X[s],"Trigno IM sensor 3: EMG 3 (IM)",X[s],"Trigno IM sensor 3: Mag 3.Z (IM)",X[s],"Trigno IM sensor 4: EMG 4 (IM)",X[s],"Trigno IM sensor 4: Mag 4.Z (IM)"
0.000000,6.713969E-07,0.000000,119,0.000000,-3.692683E-06,0.000000,0
0.0009,-1.913481E-05,0.0135,120,0.0009,1.376364E-05,0.0135,0
0.0018,-2.1149E-05,0.027,120,0.0018,4.46479E-05,0.027,1
0.0027,-8.392462E-06,0.0405,119,0.0027,3.054856E-05,0.0405,-3
0.0036,-5.539025E-05,0.054,118,0.0036,5.035477E-06,0.054,0
0.0045,-4.39765E-05,0.0675,120,0.0045,-7.721065E-06,0.0675,-2
0.0054,-1.107805E-05,0.081,118,0.0054,-5.035477E-06,0.081,1
0.0063,-2.047761E-05,0.0945,119,0.0063,-1.040665E-05,0.0945,-3
0.0072,-2.349889E-06,0.108,119,0.0072,-2.349889E-06,0.108,-1
0.0081,-2.18204E-05,0.1215,119,0.0081,-3.088426E-05,0.1215,0
0.009000001,-3.356985E-05,0.135,119,0.009000001,-3.088426E-05,0.135,1
0.0099,1.040665E-05,0.1485,119,0.0099,-1.242084E-05,0.1485,3
0.0108,1.980621E-05,0.162,119,0.0108,3.356985E-07,0.162,2
0.0117,2.349889E-05,0.1755,119,0.0117,-1.107805E-05,0.1755,2
0.0126,1.040665E-05,0.189,120,0.0126,-2.047761E-05,0.189,-1
0.0135,1.577783E-05,0.2025,119,0.0135,-3.390555E-05,0.2025,-1
0.0144,4.666209E-05,0.216,120,0.0144,-5.606165E-05,0.216,1
0.0153,2.081331E-05,0.2295,120,0.0153,-4.599069E-05,0.2295,1
0.0162,6.378271E-06,0.243,120,0.0162,-3.323415E-05,0.243,0
0.0171,1.309224E-05,0.2565,119,0.0171,-4.733349E-05,0.2565,0
0.018,-4.028382E-06,0.27,118,0.018,-5.471885E-05,0.27,-4
0.0189,1.678492E-06,0.2835,119,0.0189,-2.584878E-05,0.2835,0
0.0198,1.812772E-05,0.297,118,0.0198,-3.524834E-05,0.297,0
0.0207,4.36408E-06,0.3105,120,0.0207,-3.927672E-05,0.3105,0
0.0216,-1.577783E-05,0.324,120,0.0216,-2.853437E-05,0.324,2
0.0225,1.007095E-06,0.3375,120,0.0225,-1.947051E-05,0.3375,0
0.0234,-4.36408E-06,0.351,120,0.0234,-2.081331E-05,0.351,2
0.0243,-3.591974E-05,0.3645,119,0.0243,-5.337606E-05,0.3645,0
0.0252,3.155566E-05,0.378,119,0.0252,-4.901198E-05,0.378,0
0.0261,2.719158E-05,0.3915,119,0.0261,-4.46479E-05,0.3915,-1
0.027,-5.706874E-06,0.405,120,0.027,-4.196231E-05,0.405,0
0.0279,3.356985E-06,0.4185,121,0.0279,-4.129091E-05,0.4185,0
0.0288,1.309224E-05,0.432,119,0.0288,-6.64683E-05,0.432,0
0.0297,-2.014191E-06,0.4455,119,0.0297,-2.652018E-05,0.4455,0
0.0306,-5.304036E-05,0.459,120,0.0306,-3.356985E-06,0.459,-3
0.0315,-3.860533E-05,0.4725,120,0.0315,-4.733349E-05,0.4725,0
0.0324,-1.913481E-05,0.486,120,0.0324,-7.150377E-05,0.486,1
0.0333,-2.819867E-05,0.4995,119,0.0333,9.063859E-06,0.4995,-2
0.0342,-8.728161E-06,0.513,119,0.0342,-5.706874E-06,0.513,-1
0.0351,-7.049668E-06,0.5265,118,0.0351,-5.404745E-05,0.5265,0
0.036,-1.779202E-05,0.54,120,0.036,-3.356985E-06,0.54,2
0.0369,3.356985E-07,0.5535,119,0.0369,2.786297E-05,0.5535,1
0.0378,-1.007095E-06,0.567,120,0.0378,1.007095E-06,0.567,0
0.0387,2.28275E-05,0.5805,119,0.0387,-2.584878E-05,0.5805,0
0.0396,5.035477E-06,0.594,119,0.0396,1.980621E-05,0.594,0
0.0405,1.409934E-05,0.6075,117,0.0405,-2.685588E-06,0.6075,0
0.0414,-1.678492E-06,0.621,117,0.0414,-1.745632E-05,0.621,0
0.0423,-5.035477E-06,0.6345,118,0.0423,-3.994812E-05,0.6345,1
0.0432,-9.063859E-06,0.648,119,0.0432,7.049668E-06,0.648,0
0.0441,-4.39765E-05,0.6615,119,0.0441,7.385367E-06,0.6615,0
0.045,-3.356985E-05,0.675,119,0.045,-3.726253E-05,0.675,0
0.0459,5.035477E-06,0.6885,118,0.0459,-3.826963E-05,0.6885,0
0.0468,-3.591974E-05,0.702,120,0.0468,3.121996E-05,0.702,-1
0.0477,-4.49836E-05,0.7155,120,0.0477,-4.028382E-06,0.7155,0
0.0486,1.309224E-05,0.729,119,0.0486,-4.934768E-05,0.729,4
0.0495,7.721065E-06,0.7425,120,0.0495,2.652018E-05,0.7425,0
0.0504,5.706874E-06,0.756,119,0.0504,2.752728E-05,0.756,0
0.0513,3.692683E-06,0.7695,121,0.0513,-2.920577E-05,0.7695,-4
0.0522,3.860533E-05,0.783,119,0.0522,-3.591974E-05,0.783,2
0.0531,1.510643E-05,0.7965,120,0.0531,2.1149E-05,0.7965,-3
0.054,1.745632E-05,0.81,118,0.054,3.021286E-06,0.81,1
0.0549,2.349889E-06,0.8235,120,0.0549,-1.510643E-05,0.8235,1
0.0558,6.713969E-06,0.837,120,0.0558,-5.438316E-05,0.837,-3
0.0567,-5.035477E-06,0.8505,120,0.0567,-1.040665E-05,0.8505,0
0.0576,-4.632639E-05,0.864,121,0.0576,2.517739E-05,0.864,-1
0.0585,-4.263371E-05,0.8775,120,0.0585,-1.913481E-05,0.8775,0
0.0594,-4.834058E-05,0.891,118,0.0594,-3.793393E-05,0.891,0
0.0603,-3.659113E-05,0.9045,120,0.0603,2.1149E-05,0.9045,-1
0.0612,-9.735256E-06,0.918,119,0.0612,6.378271E-06,0.918,-3
0.0621,-3.558404E-05,0.9315,119,0.0621,-6.076142E-05,0.9315,0
0.063,-2.383459E-05,0.945,120,0.063,-5.706874E-06,0.945,-3
0.0639,2.752728E-05,0.9585,119,0.0639,1.174945E-05,0.9585,0
0.0648,-2.316319E-05,0.972,119,0.0648,-3.726253E-05,0.972,0
0.0657,-3.390555E-05,0.9855,120,0.0657,-2.719158E-05,0.9855,0
0.0666,-1.376364E-05,0.999,121,0.0666,1.812772E-05,0.999,-2
0.0675,-1.644922E-05,1.0125,119,0.0675,-1.040665E-05,1.0125,0
0.0684,-1.644922E-05,1.026,120,0.0684,-2.618448E-05,1.026,-4
0.0693,-6.042573E-06,1.0395,120,0.0693,-5.539025E-05,1.0395,-2
0.0702,4.666209E-05,1.053,121,0.0702,-3.390555E-05,1.053,-1
0.0711,5.807584E-05,1.0665,121,0.0711,-3.021286E-06,1.0665,0
0.072,3.726253E-05,1.08,120,0.072,-6.042573E-05,1.08,0
0.0729,5.203327E-05,1.0935,120,0.0729,-6.411841E-05,1.0935,0
0.07380001,9.735256E-06,1.107,121,0.07380001,1.141375E-05,1.107,0
0.07470001,-9.735256E-06,1.1205,120,0.07470001,-2.618448E-05,1.1205,0
0.0756,1.242084E-05,1.134,121,0.0756,-7.553216E-05,1.134,0
0.0765,-5.706874E-06,1.1475,122,0.0765,-2.685588E-06,1.1475,-1
0.0774,-2.618448E-05,1.161,121,0.0774,1.040665E-05,1.161,1
0.0783,-4.263371E-05,1.1745,121,0.0783,-4.666209E-05,1.1745,1
0.0792,-4.901198E-05,1.188,122,0.0792,-2.484169E-05,1.188,-1
0.0801,-3.994812E-05,1.2015,122,0.0801,2.047761E-05,1.2015,-4
0.081,-8.392462E-06,1.215,122,0.081,9.063859E-06,1.215,2
0.0819,1.040665E-05,1.2285,123,0.0819,-1.409934E-05,1.2285,-2
0.0828,-8.392462E-06,1.242,124,0.0828,-2.450599E-05,1.242,-2
0.0837,-5.706874E-06,1.2555,122,0.0837,-1.510643E-05,1.2555,0
0.0846,2.1149E-05,1.269,122,0.0846,-1.342794E-05,1.269,0
0.0855,1.678492E-06,1.2825,122,0.0855,-3.256275E-05,1.2825,-1
0.0864,7.385367E-06,1.296,121,0.0864,-5.203327E-05,1.296,-1
0.0873,1.242084E-05,1.3095,122,0.0873,-1.678492E-06,1.3095,0
0.0882,-2.316319E-05,1.323,123,0.0882,-7.049668E-06,1.323,-2
0.0891,7.049668E-06,1.3365,122,0.0891,-6.311131E-05,1.3365,0
0.09,2.719158E-05,1.35,123,0.09,7.049668E-06,1.35,2
0.0909,-2.349889E-05,1.3635,123,0.0909,4.599069E-05,1.3635,0
0.0918,-2.652018E-05,1.377,123,0.0918,-3.054856E-05,1.377,0
0.0927,-1.208515E-05,1.3905,124,0.0927,-3.826963E-05,1.3905,0
0.0936,-2.047761E-05,1.404,123,0.0936,6.378271E-06,1.404,0
0.09450001,-3.256275E-05,1.4175,123,0.09450001,-7.721065E-06,1.4175,0
0.09540001,-1.040665E-05,1.431,123,0.09540001,-2.618448E-05,1.431,0
0.09630001,-3.356985E-06,1.4445,123,0.09630001,-6.344701E-05,1.4445,0
0.0972,-3.222705E-05,1.458,123,0.0972,-3.692683E-06,1.458,1
0.0981,-5.539025E-05,1.4715,123,0.0981,4.33051E-05,1.4715,-2
0.099,-4.129091E-05,1.485,123,0.099,-2.28275E-05,1.485,-1
0.0999,-2.618448E-05,1.4985,121,0.0999,-3.793393E-05,1.4985,-1
0.1008,-1.846342E-05,1.512,123,0.1008,1.577783E-05,1.512,0
0.1017,-7.049668E-06,1.5255,122,0.1017,-1.107805E-05,1.5255,0
0.1026,-1.007095E-06,1.539,124,0.1026,-4.699779E-05,1.539,0
0.1035,-1.242084E-05,1.5525,123,0.1035,-4.028382E-06,1.5525,0
0.1044,-2.685588E-06,1.566,123,0.1044,3.356985E-06,1.566,0
0.1053,-2.383459E-05,1.5795,123,0.1053,-5.203327E-05,1.5795,0
0.1062,-2.316319E-05,1.593,123,0.1062,-2.081331E-05,1.593,2
0.1071,-2.28275E-05,1.6065,124,0.1071,1.544213E-05,1.6065,0
0.108,-9.063859E-06,1.62,123,0.108,-1.745632E-05,1.62,0
0.1089,-2.920577E-05,1.6335,123,0.1089,-3.659113E-05,1.6335,0
0.1098,-1.510643E-05,1.647,123,0.1098,-4.867628E-05,1.647,1
0.1107,1.040665E-05,1.6605,123,0.1107,-2.417029E-05,1.6605,-1
0.1116,1.913481E-05,1.674,122,0.1116,-1.678492E-06,1.674,-1
0.1125,7.385367E-06,1.6875,123,0.1125,-2.484169E-05,1.6875,-1
0.1134,2.517739E-05,1.701,123,0.1134,-5.706874E-05,1.701,1
0.1143,-1.242084E-05,1.7145,125,0.1143,1.007095E-06,1.7145,1
0.1152,2.349889E-06,1.728,126,0.1152,-1.174945E-05,1.728,0
0.1161,4.699779E-06,1.7415,122,0.1161,-8.493171E-05,1.7415,0
0.117,1.141375E-05,1.755,123,0.117,-1.980621E-05,1.755,0
0.1179,-1.678492E-05,1.7685,123,0.1179,2.349889E-06,1.7685,1
0.1188,-2.081331E-05,1.782,123,0.1188,-4.162661E-05,1.782,1
0.1197,3.021286E-05,1.7955,122,0.1197,-3.524834E-05,1.7955,0
0.1206,1.678492E-05,1.809,123,0.1206,1.510643E-05,1.809,0
0.1215,1.947051E-05,1.8225,122,0.1215,6.042573E-06,1.8225,2
0.1224,1.376364E-05,1.836,124,0.1224,-2.987716E-05,1.836,1
0.1233,-3.021286E-06,1.8495,123,0.1233,-5.673304E-05,1.8495,0
0.1242,7.385367E-06,1.863,123,0.1242,-2.316319E-05,1.863,0
0.1251,3.021286E-05,1.8765,122,0.1251,-3.356985E-07,1.8765,2
0.126,-1.443504E-05,1.89,123,0.126,-2.584878E-05,1.89,0
0.1269,-1.107805E-05,1.9035,123,0.1269,-3.726253E-05,1.9035,0
0.1278,-6.378271E-06,1.917,123,0.1278,0,1.917,0
0.1287,-2.081331E-05,1.9305,122,0.1287,-4.36408E-06,1.9305,-1
0.1296,-6.042573E-06,1.944,123,0.1296,-6.378271E-05,1.944,0
0.1305,-6.378271E-06,1.9575,123,0.1305,1.107805E-05,1.9575,4
0.1314,-3.793393E-05,1.971,122,0.1314,-1.678492E-06,1.971,0
0.1323,-4.934768E-05,1.9845,122,0.1323,-6.076142E-05,1.9845,-2
0.1332,1.242084E-05,1.998,123,0.1332,-1.040665E-05,1.998,1
0.1341,-1.107805E-05,2.0115,121,0.1341,1.812772E-05,2.0115,0
0.135,-2.28275E-05,2.025,123,0.135,-5.035477E-06,2.025,1
0.1359,-4.699779E-06,2.0385,122,0.1359,1.007095E-06,2.0385,2
0.1368,-3.256275E-05,2.052,122,0.1368,-4.129091E-05,2.052,0
0.1377,-1.913481E-05,2.0655,123,0.1377,-1.510643E-05,2.0655,1
0.1386,-3.155566E-05,2.079,121,0.1386,2.484169E-05,2.079,0
0.1395,-3.323415E-05,2.0925,123,0.1395,-9.063859E-06,2.0925,0
0.1404,-2.719158E-05,2.106,122,0.1404,-3.054856E-05,2.106,0
0.1413,-5.169757E-05,2.1195,122,0.1413,1.342794E-05,2.1195,1
0.1422,-1.577783E-05,2.133,122,0.1422,-9.063859E-06,2.133,3
0.1431,3.726253E-05,2.1465,121,0.1431,-6.478981E-05,2.1465,0
0.144,1.980621E-05,2.16,122,0.144,-1.342794E-05,2.16,0
0.1449,1.745632E-05,2.1735,121,0.1449,-5.035477E-06,2.1735,0
0.1458,9.735256E-06,2.187,122,0.1458,-4.733349E-05,2.187,0
0.1467,1.477073E-05,2.2005,122,0.1467,-4.632639E-05,2.2005,4
0.1476,-3.356985E-07,2.214,122,0.1476,-3.021286E-06,2.214,-2
0.1485,-4.36408E-06,2.2275,121,0.1485,-1.376364E-05,2.2275,1
0.1494,-2.685588E-06,2.241,121,0.1494,-3.323415E-05,2.241,0
0.1503,-5.035477E-06,2.2545,122,0.1503,-4.800488E-05,2.2545,1
0.1512,1.577783E-05,2.268,123,0.1512,-1.342794E-05,2.268,0
0.1521,5.169757E-05,2.2815,122,0.1521,-9.063859E-06,2.2815,0
0.153,2.081331E-05,2.295,121,0.153,-3.860533E-05,2.295,-1
0.1539,3.189136E-05,2.3085,123,0.1539,-5.035477E-05,2.3085,-2
0.1548,2.887007E-05,2.322,122,0.1548,1.577783E-05,2.322,-1
0.1557,1.007095E-06,2.3355,121,0.1557,-1.174945E-05,2.3355,0
0.1566,1.242084E-05,2.349,121,0.1566,-6.64683E-05,2.349,1
0.1575,5.035477E-06,2.3625,123,0.1575,1.913481E-05,2.3625,1
0.1584,-5.740444E-05,2.376,121,0.1584,2.450599E-05,2.376,1
0.1593,-5.404745E-05,2.3895,123,0.1593,-2.853437E-05,2.3895,-1
0.1602,1.980621E-05,2.403,122,0.1602,-2.383459E-05,2.403,0
0.1611,-1.846342E-05,2.4165,121,0.1611,1.846342E-05,2.4165,-1
0.162,-1.712062E-05,2.43,122,0.162,-6.042573E-06,2.43,1
0.1629,1.141375E-05,2.4435,122,0.1629,-2.450599E-05,2.4435,-1
0.1638,-1.409934E-05,2.457,121,0.1638,-5.572595E-05,2.457,-2
0.1647,-3.356985E-07,2.4705,122,0.1647,3.692683E-06,2.4705,0
0.1656,5.706874E-06,2.484,122,0.1656,2.047761E-05,2.484,1
0.1665,-9.735256E-06,2.4975,121,0.1665,-1.644922E-05,2.4975,0
0.1674,-1.174945E-05,2.511,122,0.1674,-5.136187E-05,2.511,0
0.1683,-1.342794E-06,2.5245,122,0.1683,1.678492E-06,2.5245,0
0.1692,-1.074235E-05,2.538,121,0.1692,-7.049668E-06,2.538,0
0.1701,-3.222705E-05,2.5515,122,0.1701,-6.311131E-05,2.5515,-1
0.171,-2.24918E-05,2.565,123,0.171,3.021286E-06,2.565,-2
0.1719,-4.196231E-05,2.5785,123,0.1719,3.558404E-05,2.5785,2
0.1728,-5.471885E-05,2.592,122,0.1728,-2.618448E-05,2.592,0
0.1737,3.692683E-06,2.6055,121,0.1737,-1.980621E-05,2.6055,1
0.1746,-1.174945E-05,2.619,122,0.1746,2.21561E-05,2.619,-1
0.1755,-3.021286E-05,2.6325,123,0.1755,1.678492E-06,2.6325,1
0.1764,-1.779202E-05,2.646,123,0.1764,-1.074235E-05,2.646,1
0.1773,-1.947051E-05,2.6595,122,0.1773,-5.069047E-05,2.6595,1
0.1782,-1.510643E-05,2.673,122,0.1782,-1.208515E-05,2.673,0
0.1791,-1.040665E-05,2.6865,122,0.1791,1.477073E-05,2.6865,-3
0.18,9.063859E-06,2.7,124,0.18,-3.692683E-05,2.7,-2
0.1809,-5.706874E-06,2.7135,122,0.1809,-5.270466E-05,2.7135,0
0.1818,-1.611353E-05,2.727,122,0.1818,9.735256E-06,2.727,0
0.1827,1.678492E-05,2.7405,122,0.1827,-2.719158E-05,2.7405,1
0.1836,3.692683E-06,2.754,121,0.1836,-7.217517E-05,2.754,-2
0.1845,-9.735256E-06,2.7675,122,0.1845,-6.378271E-06,2.7675,-2
0.1854,-6.378271E-06,2.781,122,0.1854,-1.913481E-05,2.781,0
0.1863,-1.376364E-05,2.7945,123,0.1863,-6.210422E-05,2.7945,-2
0.1872,5.706874E-06,2.808,122,0.1872,-4.43122E-05,2.808,-1
0.1881,-1.342794E-06,2.8215,122,0.1881,-1.107805E-05,2.8215,1
0.189,2.685588E-06,2.835,122,0.189,-3.390555E-05,2.835,1
0.1899,-1.712062E-05,2.8485,122,0.1899,-4.162661E-05,2.8485,-1
0.1908,-1.644922E-05,2.862,123,0.1908,-5.035477E-05,2.862,3
0.1917,4.699779E-06,2.8755,122,0.1917,-2.047761E-05,2.8755,0
0.1926,-3.356985E-06,2.889,122,0.1926,3.189136E-05,2.889,0
0.1935,-5.035477E-06,2.9025,122,0.1935,-2.349889E-06,2.9025,1
0.1944,1.174945E-05,2.916,122,0.1944,-4.36408E-05,2.916,0
0.1953,-5.035477E-06,2.9295,123,0.1953,1.443504E-05,2.9295,0
0.1962,-2.719158E-05,2.943,122,0.1962,-5.706874E-06,2.943,1
0.1971,-7.721065E-06,2.9565,122,0.1971,-6.74754E-05,2.9565,1
0.198,-3.591974E-05,2.97,122,0.198,-8.392462E-06,2.97,-2
0.1989,-3.021286E-05,2.9835,123,0.1989,1.544213E-05,2.9835,-2
0.1998,-2.1149E-05,2.997,121,0.1998,-6.378271E-05,2.997,1
0.2007,-3.356985E-06,3.0105,123,0.2007,-1.712062E-05,3.0105,1
0.2016,-1.376364E-05,3.024,0,0.2016,1.812772E-05,3.024,0
0.2025,-1.779202E-05,3.0375,0,0.2025,4.699779E-06,3.0375,0
0.2034,4.129091E-05,3.051,0,0.2034,-1.040665E-05,3.051,0
0.2043,1.913481E-05,3.0645,0,0.2043,-5.673304E-05,3.0645,0
0.2052,-1.376364E-05,3.078,0,0.2052,-1.107805E-05,3.078,0
0.2061,-5.136187E-05,3.0915,0,0.2061,5.035477E-06,3.0915,0
0.207,-3.961242E-05,3.105,0,0.207,-2.719158E-05,3.105,0
0.2079,-4.33051E-05,3.1185,0,0.2079,-4.733349E-05,3.1185,0
0.2088,-3.189136E-05,3.132,0,0.2088,2.349889E-06,3.132,0
0.2097,-2.18204E-05,3.1455,0,0.2097,-1.275654E-05,3.1455,0
0.2106,-3.021286E-06,3.159,0,0.2106,-5.572595E-05,3.159,0
0.2115,-1.712062E-05,3.1725,0,0.2115,-1.107805E-05,3.1725,0
0.2124,1.242084E-05,3.186,0,0.2124,-3.692683E-06,3.186,0
0.2133,-5.035477E-06,3.1995,0,0.2133,-5.001907E-05,3.1995,0
0.2142,-1.712062E-05,3.213,0,0.2142,-5.203327E-05,3.213,0
0.2151,-3.692683E-06,3.2265,0,0.2151,-3.021286E-06,3.2265,0
0.216,-7.049668E-06,3.24,0,0.216,-3.591974E-05,3.24,0
0.2169,-1.242084E-05,3.2535,0,0.2169,-3.289845E-05,3.2535,0
0.2178,5.035477E-06,3.267,0,0.2178,-3.356985E-05,3.267,0
0.2187,5.706874E-06,3.2805,0,0.2187,-1.040665E-05,3.2805,0
0.2196,1.040665E-05,3.294,0,0.2196,1.712062E-05,3.294,0
0.2205,8.392462E-06,3.3075,0,0.2205,-3.054856E-05,3.3075,0
0.2214,-3.356985E-07,3.321,0,0.2214,-6.009003E-05,3.321,0
0.2223,-9.735256E-06,3.3345,0,0.2223,2.652018E-05,3.3345,0
0.2232,-1.107805E-05,3.348,0,0.2232,-2.685588E-06,3.348,0
0.2241,3.692683E-06,3.3615,0,0.2241,-6.948959E-05,3.3615,0
0.225,9.735256E-06,3.375,0,0.225,-1.007095E-06,3.375,0
0.2259,1.242084E-05,3.3885,0,0.2259,3.121996E-05,3.3885,0
0.2268,1.409934E-05,3.402,0,0.2268,-1.510643E-05,3.402,0
0.2277,3.524834E-05,3.4155,0,0.2277,-1.846342E-05,3.4155,0
0.2286,1.309224E-05,3.429,0,0.2286,2.584878E-05,3.429,0
0.2295,1.242084E-05,3.4425,0,0.2295,9.735256E-06,3.4425,0
0.2304,1.980621E-05,3.456,0,0.2304,-1.174945E-05,3.456,0
0.2313,9.735256E-06,3.4695,0,0.2313,-3.591974E-05,3.4695,0
0.2322,1.275654E-05,3.483,0,0.2322,1.678492E-06,3.483,0
0.2331,-2.1149E-05,3.4965,0,0.2331,1.510643E-05,3.4965,0
0.234,-3.323415E-05,3.51,0,0.234,-2.887007E-05,3.51,0
0.2349,-2.18204E-05,3.5235,0,0.2349,-4.49836E-05,3.5235,0
0.2358,0,3.537,0,0.2358,4.36408E-06,3.537,0
0.2367,-2.584878E-05,3.5505,0,0.2367,-4.36408E-06,3.5505,0
0.2376,-1.510643E-05,3.564,0,0.2376,-6.478981E-05,3.564,0
0.2385,7.721065E-06,3.5775,0,0.2385,1.342794E-05,3.5775,0
0.2394,6.042573E-06,3.591,0,0.2394,1.980621E-05,3.591,0
0.2403,-2.24918E-05,3.6045,0,0.2403,-4.867628E-05,3.6045,0
0.2412,-2.853437E-05,3.618,0,0.2412,-2.551309E-05,3.618,0
0.2421,-1.745632E-05,3.6315,0,0.2421,5.035477E-06,3.6315,0
0.243,-1.376364E-05,3.645,0,0.243,-3.054856E-05,3.645,0
0.2439,0,3.6585,0,0.2439,-2.517739E-05,3.6585,0
0.2448,-8.392462E-06,3.672,0,0.2448,-5.069047E-05,3.672,0
0.2457,-6.378271E-06,3.6855,0,0.2457,-3.491264E-05,3.6855,0
0.2466,-1.779202E-05,3.699,0,0.2466,2.18204E-05,3.699,0
0.2475,-1.678492E-06,3.7125,0,0.2475,-1.376364E-05,3.7125,0
0.2484,5.371176E-06,3.726,0,0.2484,-4.800488E-05,3.726,0
0.2493,-7.721065E-06,3.7395,0,0.2493,1.443504E-05,3.7395,0
0.2502,-3.356985E-07,3.753,0,0.2502,3.692683E-06,3.753,0
0.2511,1.477073E-05,3.7665,0,0.2511,-6.210422E-05,3.7665,0
0.252,-1.510643E-05,3.78,0,0.252,-1.309224E-05,3.78,0
0.2529,-3.356985E-07,3.7935,0,0.2529,1.678492E-06,3.7935,0
0.2538,1.678492E-06,3.807,0,0.2538,-4.33051E-05,3.807,0
0.2547,-6.713969E-06,3.8205,0,0.2547,-3.189136E-05,3.8205,0
0.2556,1.712062E-05,3.834,0,0.2556,7.721065E-06,3.834,0
0.2565,3.692683E-06,3.8475,0,0.2565,-1.409934E-05,3.8475,0
0.2574,1.443504E-05,3.861,0,0.2574,-1.913481E-05,3.861,0
0.2583,9.399558E-06,3.8745,0,0.2583,-3.994812E-05,3.8745,0
0.2592,9.063859E-06,3.888,0,0.2592,-1.443504E-05,3.888,0
0.2601,-2.987716E-05,3.9015,0,0.2601,-3.256275E-05,3.9015,0
0.261,-3.659113E-05,3.915,0,0.261,-6.881819E-05,3.915,0
0.2619,-8.728161E-06,3.9285,0,0.2619,-6.176852E-05,3.9285,0
0.2628,-3.524834E-05,3.942,0,0.2628,-2.685588E-06,3.942,0
0.2637,-2.652018E-05,3.9555,0,0.2637,-2.081331E-05,3.9555,0
0.2646,7.721065E-06,3.969,0,0.2646,-8.090334E-05,3.969,0
0.2655,-1.174945E-05,3.9825,0,0.2655,1.510643E-05,3.9825,0
0.2664,-2.014191E-06,3.996,0,0.2664,2.081331E-05,3.996,0
0.2673,-1.846342E-05,4.0095,0,0.2673,-4.968337E-05,4.0095,0
0.2682,-6.378271E-06,4.023,0,0.2682,-3.289845E-05,4.023,0
0.2691,-2.316319E-05,4.0365,0,0.2691,1.376364E-05,4.0365,0
0.27,-2.18204E-05,4.05,0,0.27,-5.706874E-06,4.05,0
0.2709,-4.36408E-06,4.0635,0,0.2709,-1.846342E-05,4.0635,0
0.2718,-1.141375E-05,4.077,0,0.2718,-5.606165E-05,4.077,0
0.2727,8.392462E-06,4.0905,0,0.2727,-5.706874E-06,4.0905,0
0.2736,9.399558E-06,4.104,0,0.2736,3.323415E-05,4.104,0
0.2745,-1.846342E-05,4.1175,0,0.2745,-1.007095E-06,4.1175,0
0.2754,3.692683E-06,4.131,0,0.2754,-3.625543E-05,4.131,0
0.2763,-2.349889E-06,4.1445,0,0.2763,2.517739E-05,4.1445,0
0.2772,-9.735256E-06,4.158,0,0.2772,2.685588E-06,4.158,0
0.2781,-4.699779E-06,4.1715,0,0.2781,-5.572595E-05,4.1715,0
0.279,5.035477E-06,4.185,0,0.279,1.007095E-05,4.185,0
0.2799,2.316319E-05,4.1985,0,0.2799,3.356985E-06,4.1985,0
0.2808,1.913481E-05,4.212,0,0.2808,-6.109713E-05,4.212,0
0.2817,-5.706874E-06,4.2255,0,0.2817,-4.699779E-06,4.2255,0
0.2826,3.356985E-07,4.239,0,0.2826,2.1149E-05,4.239,0
0.2835,-1.275654E-05,4.2525,0,0.2835,-9.399558E-06,4.2525,0
0.2844,-1.510643E-05,4.266,0,0.2844,-1.779202E-05,4.266,0
0.2853,-8.728161E-06,4.2795,0,0.2853,-3.457694E-05,4.2795,0
0.2862,-1.275654E-05,4.293,0,0.2862,-3.021286E-06,4.293,0
0.2871,-6.54612E-05,4.3065,0,0.2871,-1.107805E-05,4.3065,0
0.288,-3.692683E-05,4.32,0,0.288,-3.927672E-05,4.32,0
0.2889,-2.1149E-05,4.3335,0,0.2889,-6.74754E-05,4.3335,0
0.2898,-1.107805E-05,4.347,0,0.2898,-6.713969E-06,4.347,0
0.2907,2.584878E-05,4.3605,0,0.2907,-2.450599E-05,4.3605,0
0.2916,-3.356985E-07,4.374,0,0.2916,-6.478981E-05,4.374,0
0.2925,-1.510643E-05,4.3875,0,0.2925,4.028382E-06,4.3875,0
0.2934,-1.007095E-06,4.401,0,0.2934,2.920577E-05,4.401,0
0.2943,-1.913481E-05,4.4145,0,0.2943,-2.450599E-05,4.4145,0
0.2952,3.256275E-05,4.428,0,0.2952,-5.136187E-05,4.428,0
0.2961,1.007095E-06,4.4415,0,0.2961,-9.735256E-06,4.4415,0
0.297,-1.107805E-05,4.455,0,0.297,-1.477073E-05,4.455,0
0.2979,6.713969E-07,4.4685,0,0.2979,-1.443504E-05,4.4685,0
0.2988,3.356985E-07,4.482,0,0.2988,-3.994812E-05,4.482,0
0.2997,3.021286E-06,4.4955,0,0.2997,-2.24918E-05,4.4955,0
0.3006,-1.980621E-05,4.509,0,0.3006,1.174945E-05,4.509,0
0.3015,-1.007095E-05,4.5225,0,0.3015,-1.477073E-05,4.5225,0
0.3024,2.383459E-05,4.536,0,0.3024,-4.699779E-05,4.536,0
0.3033,-1.309224E-05,4.5495,0,0.3033,1.846342E-05,4.5495,0
0.3042,-1.644922E-05,4.563,0,0.3042,-4.36408E-06,4.563,0
0.3051,-1.678492E-06,4.5765,0,0.3051,-6.982528E-05,4.5765,0
0.306,-1.477073E-05,4.59,0,0.306,-1.678492E-06,4.59,0
0.3069,-4.934768E-05,4.6035,0,0.3069,-1.242084E-05,4.6035,0
0.3078,-2.719158E-05,4.617,0,0.3078,-6.948959E-05,4.617,0
0.3087,2.1149E-05,4.6305,0,0.3087,-4.229801E-05,4.6305,0
0.3096,-3.424125E-05,4.644,0,0.3096,-1.007095E-05,4.644,0
0.3105,-1.779202E-05,4.6575,0,0.3105,-4.36408E-06,4.6575,0
0.3114,1.007095E-05,4.671,0,0.3114,-2.18204E-05,4.671,0
0.3123,3.021286E-06,4.6845,0,0.3123,-4.49836E-05,4.6845,0
0.3132,-1.376364E-05,4.698,0,0.3132,3.021286E-06,4.698,0
0.3141,-4.33051E-05,4.7115,0,0.3141,1.577783E-05,4.7115,0
0.315,-4.53193E-05,4.725,0,0.315,-1.644922E-05,4.725,0
0.3159,-2.517739E-05,4.7385,0,0.3159,-4.800488E-05,4.7385,0
0.3168,-3.591974E-05,4.752,0,0.3168,3.692683E-06,4.752,0
0.3177,-1.141375E-05,4.7655,0,0.3177,-8.056763E-06,4.7655,0
0.3186,-1.141375E-05,4.779,0,0.3186,-5.035477E-05,4.779,0
0.3195,-1.376364E-05,4.7925,0,0.3195,-1.275654E-05,4.7925,0
0.3204,1.174945E-05,4.806,0,0.3204,-1.913481E-05,4.806,0
0.3213,-3.356985E-07,4.8195,0,0.3213,-5.706874E-05,4.8195,0
0.3222,3.994812E-05,4.833,0,0.3222,-2.349889E-06,4.833,0
0.3231,2.24918E-05,4.8465,0,0.3231,2.383459E-05,4.8465,0
0.324,-3.356985E-07,4.86,0,0.324,-7.721065E-06,4.86,0
0.3249,1.376364E-05,4.8735,0,0.3249,-1.443504E-05,4.8735,0
0.3258,2.1149E-05,4.887,0,0.3258,-4.867628E-05,4.887,0
0.3267,-1.409934E-05,4.9005,0,0.3267,-2.047761E-05,4.9005,0
0.3276,-5.069047E-05,4.914,0,0.3276,2.1149E-05,4.914,0
0.3285,-4.599069E-05,4.9275,0,0.3285,-1.510643E-05,4.9275,0
0.3294,3.021286E-06,4.941,0,0.3294,-2.417029E-05,4.941,0
0.3303,-1.376364E-05,4.9545,0,0.3303,5.203327E-05,4.9545,0
0.3312,-3.659113E-05,4.968,0,0.3312,1.174945E-05,4.968,0
0.3321,-9.735256E-06,4.9815,0,0.3321,-6.78111E-05,4.9815,0
0.333,-6.713969E-06,4.995,0,0.333,1.007095E-06,4.995,0
0.3339,9.063859E-06,5.0085,0,0.3339,-4.36408E-06,5.0085,0
0.3348,-3.692683E-06,5.022,0,0.3348,-6.6804E-05,5.022,0
0.3357,-1.745632E-05,5.0355,0,0.3357,-4.53193E-05,5.0355,0
0.3366,-2.584878E-05,5.049,0,0.3366,1.007095E-06,5.049,0
0.3375,-1.040665E-05,5.0625,0,0.3375,-1.174945E-05,5.0625,0
0.3384,-3.155566E-05,5.076,0,0.3384,-3.054856E-05,5.076,0
0.3393,-1.846342E-05,5.0895,0,0.3393,-3.927672E-05,5.0895,0
0.3402,8.392462E-06,5.103,0,0.3402,-3.021286E-06,5.103,0
0.3411,3.726253E-05,5.1165,0,0.3411,2.383459E-05,5.1165,0
0.342,2.987716E-05,5.13,0,0.342,2.685588E-06,5.13,0
0.3429,4.129091E-05,5.1435,0,0.3429,-4.934768E-05,5.1435,0
0.3438,4.632639E-05,5.157,0,0.3438,-1.007095E-06,5.157,0
0.3447,1.409934E-05,5.1705,0,0.3447,-1.376364E-05,5.1705,0
0.3456,1.376364E-05,5.184,0,0.3456,-7.821774E-05,5.184,0
0.3465,1.712062E-05,5.1975,0,0.3465,-8.392462E-06,5.1975,0
0.3474,-3.558404E-05,5.211,0,0.3474,-7.049668E-06,5.211,0
0.3483,-4.800488E-05,5.2245,0,0.3483,-4.934768E-05,5.2245,0
0.3492,-1.644922E-05,5.238,0,0.3492,-2.047761E-05,5.238,0
0.3501,-1.947051E-05,5.2515,0,0.3501,8.392462E-06,5.2515,0
0.351,-3.692683E-06,5.265,0,0.351,-1.174945E-05,5.265,0
0.3519,1.007095E-06,5.2785,0,0.3519,-2.14847E-05,5.2785,0
0.3528,-1.443504E-05,5.292,0,0.3528,-4.196231E-05,5.292,0
0.3537,1.544213E-05,5.3055,0,0.3537,-2.18204E-05,5.3055,0
0.3546,5.404745E-05,5.319,0,0.3546,-1.611353E-05,5.319,0
0.3555,5.001907E-05,5.3325,0,0.3555,-5.539025E-05,5.3325,0
0.3564,2.853437E-05,5.346,0,0.3564,-5.136187E-05,5.346,0
0.3573,4.36408E-06,5.3595,0,0.3573,1.678492E-06,5.3595,0
0.3582,-1.678492E-06,5.373,0,0.3582,3.021286E-06,5.373,0
0.3591,-5.706874E-06,5.3865,0,0.3591,-5.841154E-05,5.3865,0
0.36,-2.719158E-05,5.4,0,0.36,-4.699779E-06,5.4,0
0.3609,-3.759823E-05,5.4135,0,0.3609,2.450599E-05,5.4135,0
0.3618,-6.61326E-05,5.427,0,0.3618,-3.256275E-05,5.427,0
0.3627,-5.404745E-05,5.4405,0,0.3627,-5.236896E-05,5.4405,0
0.3636,-3.826963E-05,5.454,0,0.3636,-4.36408E-06,5.454,0
0.3645,-2.752728E-05,5.4675,0,0.3645,-9.735256E-06,5.4675,0
0.3654,-1.107805E-05,5.481,0,0.3654,-2.920577E-05,5.481,0
0.3663,-6.713969E-07,5.4945,0,0.3663,-3.894102E-05,5.4945,0
0.3672,1.174945E-05,5.508,0,0.3672,-2.584878E-05,5.508,0
0.3681,-2.349889E-06,5.5215,0,0.3681,-6.378271E-06,5.5215,0
0.369,-3.256275E-05,5.535,0,0.369,-4.666209E-05,5.535,0
0.3699,-1.242084E-05,5.5485,0,0.3699,-5.740444E-05,5.5485,0
0.3708,-1.644922E-05,5.562,0,0.3708,1.879912E-05,5.562,0
0.3717,-1.007095E-05,5.5755,0,0.3717,-1.141375E-05,5.5755,0
0.3726,-6.378271E-06,5.589,0,0.3726,-6.54612E-05,5.589,0
0.3735,-3.323415E-05,5.6025,0,0.3735,7.721065E-06,5.6025,0
0.3744,-8.392462E-06,5.616,0,0.3744,3.323415E-05,5.616,0
0.3753,2.685588E-05,5.6295,0,0.3753,-3.256275E-05,5.6295,0
0.3762,2.517739E-05,5.643,0,0.3762,-1.846342E-05,5.643,0
0.3771,-1.644922E-05,5.6565,0,0.3771,1.510643E-05,5.6565,0
0.378,-4.36408E-06,5.67,0,0.378,7.049668E-06,5.67,0
0.3789,8.392462E-06,5.6835,0,0.3789,-3.356985E-06,5.6835,0
0.3798,-1.141375E-05,5.697,0,0.3798,-3.793393E-05,5.697,0
0.3807,2.081331E-05,5.7105,0,0.3807,0,5.7105,0
0.3816,5.706874E-06,5.724,0,0.3816,2.349889E-05,5.724,0
0.3825,-3.256275E-05,5.7375,0,0.3825,-9.735256E-06,5.7375,0
0.3834,-1.947051E-05,5.751,0,0.3834,-4.46479E-05,5.751,0
0.3843,-1.947051E-05,5.7645,0,0.3843,6.378271E-06,5.7645,0
0.3852,-3.256275E-05,5.778,0,0.3852,5.035477E-06,5.778,0
0.3861,-9.399558E-06,5.7915,0,0.3861,-5.270466E-05,5.7915,0
0.387,1.208515E-05,5.805,0,0.387,2.685588E-06,5.805,0
0.3879,9.735256E-06,5.8185,0,0.3879,1.242084E-05,5.8185,0
0.3888,-3.692683E-06,5.832,0,0.3888,-4.229801E-05,5.832,0
0.3897,2.920577E-05,5.8455,0,0.3897,-2.517739E-05,5.8455,0
0.3906,3.222705E-05,5.859,0,0.3906,1.577783E-05,5.859,0
0.3915,-1.275654E-05,5.8725,0,0.3915,-2.517739E-05,5.8725,0
0.3924,-3.356985E-06,5.886,0,0.3924,-2.047761E-05,5.886,0
0.3933,2.047761E-05,5.8995,0,0.3933,-5.807584E-05,5.8995,0
0.3942,-9.063859E-06,5.913,0,0.3942,-1.107805E-05,5.913,0
0.3951,-1.879912E-05,5.9265,0,0.3951,-3.356985E-06,5.9265,0
0.396,-1.376364E-05,5.94,0,0.396,-4.39765E-05,5.94,0
0.3969,-1.712062E-05,5.9535,0,0.3969,-5.774014E-05,5.9535,0
0.3978,-1.309224E-05,5.967,0,0.3978,1.678492E-06,5.967,0
0.3987,1.007095E-06,5.9805,0,0.3987,-2.584878E-05,5.9805,0
0.3996,-2.21561E-05,5.994,0,0.3996,-7.754635E-05,5.994,0
0.4005,-1.141375E-05,6.0075,0,0.4005,-7.049668E-06,6.0075,0
0.4014,-2.987716E-05,6.021,0,0.4014,-2.047761E-05,6.021,0
0.4023,-3.155566E-05,6.0345,0,0.4023,-6.143282E-05,6.0345,0
0.4032,5.706874E-06,6.048,0,0.4032,-2.719158E-05,6.048,0
0.4041,-1.409934E-05,6.0615,0,0.4041,3.021286E-06,6.0615,0
0.405,-2.316319E-05,6.075,0,0.405,-1.007095E-05,6.075,0
0.4059,-2.14847E-05,6.0885,0,0.4059,-7.049668E-06,6.0885,0
0.4068,4.36408E-06,6.102,0,0.4068,-3.961242E-05,6.102,0
0.4077,5.035477E-06,6.1155,0,0.4077,-2.719158E-05,6.1155,0
0.4086,-2.450599E-05,6.129,0,0.4086,-1.242084E-05,6.129,0
0.4095,-7.049668E-06,6.1425,0,0.4095,-3.256275E-05,6.1425,0
0.4104,1.644922E-05,6.156,0,0.4104,-5.706874E-05,6.156,0
0.4113,-2.719158E-05,6.1695,0,0.4113,6.378271E-06,6.1695,0
0.4122,-2.349889E-06,6.183,0,0.4122,-5.706874E-06,6.183,0
0.4131,2.786297E-05,6.1965,0,0.4131,-5.471885E-05,6.1965,0
0.414,6.042573E-06,6.21,0,0.414,1.242084E-05,6.21,0
0.4149,-2.18204E-05,6.2235,0,0.4149,1.577783E-05,6.2235,0
0.4158,-3.289845E-05,6.237,0,0.4158,-4.43122E-05,6.237,0
0.4167,-3.323415E-05,6.2505,0,0.4167,-2.517739E-05,6.2505,0
0.4176,-7.016098E-05,6.264,0,0.4176,1.040665E-05,6.264,0
0.4185,-7.150377E-05,6.2775,0,0.4185,-1.678492E-06,6.2775,0
0.4194,-5.807584E-05,6.291,0,0.4194,-2.014191E-05,6.291,0
0.4203,-4.33051E-05,6.3045,0,0.4203,-3.625543E-05,6.3045,0
0.4212,-4.36408E-06,6.318,0,0.4212,1.779202E-05,6.318,0
0.4221,6.378271E-06,6.3315,0,0.4221,2.316319E-05,6.3315,0
0.423,1.040665E-05,6.345,0,0.423,-2.484169E-05,6.345,0
0.4239,3.054856E-05,6.3585,0,0.4239,-3.356985E-05,6.3585,0
0.4248,2.450599E-05,6.372,0,0.4248,2.316319E-05,6.372,0
0.4257,2.887007E-05,6.3855,0,0.4257,-1.678492E-06,6.3855,0
0.4266,-1.376364E-05,6.399,0,0.4266,-5.740444E-05,6.399,0
0.4275,0,6.4125,0,0.4275,-2.014191E-06,6.4125,0
0.4284,4.129091E-05,6.426,0,0.4284,1.678492E-05,6.426,0
0.4293,9.399558E-06,6.4395,0,0.4293,-3.994812E-05,6.4395,0
0.4302,-2.417029E-05,6.453,0,0.4302,-1.913481E-05,6.453,0
0.4311,-2.349889E-05,6.4665,0,0.4311,5.035477E-06,6.4665,0
0.432,-1.779202E-05,6.48,0,0.432,-1.107805E-05,6.48,0
0.4329,4.36408E-06,6.4935,0,0.4329,-6.378271E-06,6.4935,0
0.4338,8.392462E-06,6.507,0,0.4338,-4.733349E-05,6.507,0
0.4347,7.385367E-06,6.5205,0,0.4347,-2.853437E-05,6.5205,0
0.4356,2.719158E-05,6.534,0,0.4356,-2.450599E-05,6.534,0
0.4365,9.063859E-06,6.5475,0,0.4365,-5.471885E-05,6.5475,0
0.4374,1.812772E-05,6.561,0,0.4374,-6.64683E-05,6.561,0
0.4383,9.063859E-06,6.5745,0,0.4383,1.443504E-05,6.5745,0
0.4392,8.056763E-06,6.588,0,0.4392,-1.275654E-05,6.588,0
0.4401,2.584878E-05,6.6015,0,0.4401,-7.351797E-05,6.6015,0
0.441,1.242084E-05,6.615,0,0.441,-1.007095E-06,6.615,0
0.4419,3.692683E-06,6.6285,0,0.4419,3.457694E-05,6.6285,0
0.4428,-4.36408E-06,6.642,0,0.4428,-2.987716E-05,6.642,0
0.4437,-3.021286E-05,6.6555,0,0.4437,-4.229801E-05,6.6555,0
0.4446,-3.356985E-05,6.669,0,0.4446,-3.356985E-07,6.669,0
0.4455,-1.544213E-05,6.6825,0,0.4455,-4.699779E-06,6.6825,0
0.4464,-3.289845E-05,6.696,0,0.4464,-1.174945E-05,6.696,0
0.4473,-4.699779E-05,6.7095,0,0.4473,-4.196231E-05,6.7095,0
0.4482,-9.735256E-06,6.723,0,0.4482,1.007095E-06,6.723,0
0.4491,-7.553216E-05,6.7365,0,0.4491,-9.399558E-06,6.7365,0
0.45,-6.51255E-05,6.75,0,0.45,-4.53193E-05,6.75,0
0.4509,-2.014191E-06,6.7635,0,0.4509,-4.49836E-05,6.7635,0
0.4518,-5.706874E-06,6.777,0,0.4518,7.049668E-06,6.777,0
0.4527,3.692683E-06,6.7905,0,0.4527,-2.349889E-05,6.7905,0
0.4536,1.309224E-05,6.804,0,0.4536,-6.57969E-05,6.804,0
0.4545,4.699779E-06,6.8175,0,0.4545,6.378271E-06,6.8175,0
0.4554,3.692683E-06,6.831,0,0.4554,9.735256E-06,6.831,0
0.4563,7.721065E-06,6.8445,0,0.4563,-4.599069E-05,6.8445,0
0.4572,-2.517739E-05,6.858,0,0.4572,-1.208515E-05,6.858,0
0.4581,-4.028382E-06,6.8715,0,0.4581,1.040665E-05,6.8715,0
0.459,-3.021286E-06,6.885,0,0.459,-1.007095E-06,6.885,0
0.4599,3.692683E-06,6.8985,0,0.4599,-4.36408E-06,6.8985,0
0.4608,1.242084E-05,6.912,0,0.4608,-3.860533E-05,6.912,0
0.4617,1.376364E-05,6.9255,0,0.4617,2.014191E-06,6.9255,0
0.4626,2.853437E-05,6.939,0,0.4626,3.759823E-05,6.939,0
0.4635,6.713969E-07,6.9525,0,0.4635,-2.484169E-05,6.9525,0
0.4644,2.1149E-05,6.966,0,0.4644,-2.584878E-05,6.966,0
0.4653,1.443504E-05,6.9795,0,0.4653,1.947051E-05,6.9795,0
0.4662,-3.356985E-05,6.993,0,0.4662,-6.378271E-06,6.993,0
0.4671,3.692683E-06,7.0065,0,0.4671,-6.74754E-05,7.0065,0
0.468,1.712062E-05,7.02,0,0.468,-2.349889E-06,7.02,0
0.4689,1.040665E-05,7.0335,0,0.4689,1.544213E-05,7.0335,0
0.4698,6.713969E-07,7.047,0,0.4698,-3.793393E-05,7.047,0
0.4707,-5.706874E-06,7.0605,0,0.4707,-3.591974E-05,7.0605,0
0.4716,-2.1149E-05,7.074,0,0.4716,-1.007095E-06,7.074,0
0.4725,-1.947051E-05,7.0875,0,0.4725,1.678492E-06,7.0875,0
0.4734,-1.040665E-05,7.101,0,0.4734,-2.719158E-05,7.101,0
0.4743,7.721065E-06,7.1145,0,0.4743,-4.867628E-05,7.1145,0
0.4752,-2.786297E-05,7.128,0,0.4752,-2.719158E-05,7.128,0
0.4761,-6.143282E-05,7.1415,0,0.4761,-1.174945E-05,7.1415,0
0.477,-1.980621E-05,7.155,0,0.477,-3.625543E-05,7.155,0
0.4779,-1.242084E-05,7.1685,0,0.4779,-3.558404E-05,7.1685,0
0.4788,-2.618448E-05,7.182,0,0.4788,1.309224E-05,7.182,0
0.4797,-1.980621E-05,7.1955,0,0.4797,-1.779202E-05,7.1955,0
0.4806,-1.443504E-05,7.209,0,0.4806,-7.888914E-05,7.209,0
0.4815,-3.692683E-05,7.2225,0,0.4815,-1.141375E-05,7.2225,0
0.4824,-1.342794E-06,7.236,0,0.4824,-1.644922E-05,7.236,0
0.4833,-3.021286E-06,7.2495,0,0.4833,-6.881819E-05,7.2495,0
0.4842,-7.721065E-06,7.263,0,0.4842,-6.948959E-05,7.263,0
0.4851,-1.309224E-05,7.2765,0,0.4851,-1.846342E-05,7.2765,0
0.486,7.385367E-06,7.29,0,0.486,-1.107805E-05,7.29,0
0.4869,-1.577783E-05,7.3035,0,0.4869,-2.853437E-05,7.3035,0
0.4878,-2.014191E-05,7.317,0,0.4878,-5.069047E-05,7.317,0
0.4887,1.644922E-05,7.3305,0,0.4887,-8.056763E-06,7.3305,0
0.4896,3.826963E-05,7.344,0,0.4896,2.652018E-05,7.344,0
0.4905,9.735256E-06,7.3575,0,0.4905,-2.1149E-05,7.3575,0
0.4914,2.786297E-05,7.371,0,0.4914,-4.599069E-05,7.371,0
0.4923,-6.713969E-06,7.3845,0,0.4923,1.040665E-05,7.3845,0
0.4932,3.356985E-07,7.398,0,0.4932,2.349889E-06,7.398,0
0.4941,5.270466E-05,7.4115,0,0.4941,-6.143282E-05,7.4115,0
0.495,1.443504E-05,7.425,0,0.495,2.349889E-06,7.425,0
0.4959,-2.987716E-05,7.4385,0,0.4959,-1.678492E-06,7.4385,0
0.4968,-4.061952E-05,7.452,0,0.4968,-5.203327E-05,7.452,0
0.4977,-1.678492E-05,7.4655,0,0.4977,-2.853437E-05,7.4655,0
0.4986,-1.980621E-05,7.479,0,0.4986,6.042573E-06,7.479,0
0.4995,-3.021286E-05,7.4925,0,0.4995,-1.812772E-05,7.4925,0
0.5004,-2.1149E-05,7.506,0,0.5004,-2.685588E-05,7.506,0
0.5013,-2.014191E-05,7.5195,0,0.5013,-4.061952E-05,7.5195,0
0.5022,3.021286E-06,7.533,0,0.5022,3.021286E-06,7.533,0
0.5031,5.304036E-05,7.5465,0,0.5031,9.063859E-06,7.5465,0
0.504,1.443504E-05,7.56,0,0.504,-2.28275E-05,7.56,0
0.5049,1.678492E-06,7.5735,0,0.5049,-3.793393E-05,7.5735,0
0.5058,1.678492E-06,7.587,0,0.5058,1.409934E-05,7.587,0
0.5067,2.014191E-06,7.6005,0,0.5067,2.349889E-06,7.6005,0
0.5076,-5.706874E-06,7.614,0,0.5076,-5.337606E-05,7.614,0
0.5085,-8.056763E-06,7.6275,0,0.5085,5.706874E-06,7.6275,0
0.5094,-2.1149E-05,7.641,0,0.5094,8.392462E-06,7.641,0
0.5103,-5.807584E-05,7.6545,0,0.5103,-2.853437E-05,7.6545,0
0.5112,-3.692683E-05,7.668,0,0.5112,-4.36408E-06,7.668,0
0.5121,-2.920577E-05,7.6815,0,0.5121,2.316319E-05,7.6815,0
0.513,-3.625543E-05,7.695,0,0.513,6.378271E-06,7.695,0
0.5139,-1.242084E-05,7.7085,0,0.5139,2.349889E-06,7.7085,0
0.5148,1.107805E-05,7.722,0,0.5148,-3.390555E-05,7.722,0
0.5157,2.1149E-05,7.7355,0,0.5157,-1.174945E-05,7.7355,0
0.5166,4.095522E-05,7.749,0,0.5166,-3.692683E-06,7.749,0
0.5175,1.443504E-05,7.7625,0,0.5175,-4.46479E-05,7.7625,0
0.5184,-8.728161E-06,7.776,0,0.5184,-8.69459E-05,7.776,0
0.5193,6.378271E-06,7.7895,0,0.5193,-1.577783E-05,7.7895,0
0.5202,1.174945E-05,7.803,0,0.5202,-9.735256E-06,7.803,0
0.5211,1.577783E-05,7.8165,0,0.5211,-7.183947E-05,7.8165,0
0.522,-6.042573E-06,7.83,0,0.522,5.035477E-06,7.83,0
0.5229,-1.779202E-05,7.8435,0,0.5229,1.577783E-05,7.8435,0
0.5238,-3.256275E-05,7.857,0,0.5238,-5.438316E-05,7.857,0
0.5247,-3.256275E-05,7.8705,0,0.5247,-4.39765E-05,7.8705,0
0.5256,-4.666209E-05,7.884,0,0.5256,1.678492E-06,7.884,0
0.5265,-2.517739E-05,7.8975,0,0.5265,8.392462E-06,7.8975,0
0.5274,-4.666209E-05,7.911,0,0.5274,-2.316319E-05,7.911,0
0.5283,-2.685588E-05,7.9245,0,0.5283,-5.606165E-05,7.9245,0
0.5292,2.18204E-05,7.938,0,0.5292,-7.049668E-06,7.938,0
0.5301,-8.392462E-06,7.9515,0,0.5301,7.385367E-06,7.9515,0
0.531,-3.021286E-06,7.965,0,0.531,-3.256275E-05,7.965,0
0.5319,6.713969E-07,7.9785,0,0.5319,-4.129091E-05,7.9785,0
0.5328,-9.063859E-06,7.992,0,0.5328,1.242084E-05,7.992,0
0.5337,-2.1149E-05,8.0055,0,0.5337,-6.713969E-07,8.0055,0
0.5346,-1.510643E-05,8.019,0,0.5346,-6.378271E-05,8.019,0
0.5355,-1.309224E-05,8.0325,0,0.5355,-1.208515E-05,8.0325,0
0.5364,-7.385367E-06,8.046,0,0.5364,1.644922E-05,8.046,0
0.5373,-1.913481E-05,8.0595,0,0.5373,-2.987716E-05,8.0595,0
0.5382,2.349889E-06,8.073,0,0.5382,-1.040665E-05,8.073,0
0.5391,-7.721065E-06,8.0865,0,0.5391,1.040665E-05,8.0865,0
0.54,-7.049668E-06,8.1,0,0.54,-3.021286E-06,8.1,0
0.5409,1.107805E-05,8.1135,0,0.5409,4.36408E-06,8.1135,0
0.5418,-3.021286E-06,8.127,0,0.5418,-2.719158E-05,8.127,0
0.5427,1.644922E-05,8.1405,0,0.5427,-2.1149E-05,8.1405,0
0.5436,5.941863E-05,8.154,0,0.5436,-1.980621E-05,8.154,0
0.5445,3.457694E-05,8.1675,0,0.5445,-5.270466E-05,8.1675,0
0.5454,-3.356985E-06,8.181,0,0.5454,-7.016098E-05,8.181,0
0.5463,-1.342794E-05,8.1945,0,0.5463,4.699779E-06,8.1945,0
0.5472,9.735256E-06,8.208,0,0.5472,-2.551309E-05,8.208,0
0.5481,-1.779202E-05,8.2215,0,0.5481,-6.143282E-05,8.2215,0
0.549,-1.812772E-05,8.235,0,0.549,1.443504E-05,8.235,0
0.5499,-1.040665E-05,8.2485,0,0.5499,3.860533E-05,8.2485,0
0.5508,-1.779202E-05,8.262,0,0.5508,-4.196231E-05,8.262,0
0.5517,-2.18204E-05,8.2755,0,0.5517,-2.18204E-05,8.2755,0
0.5526,-2.316319E-05,8.289,0,0.5526,2.24918E-05,8.289,0
0.5535,-1.745632E-05,8.3025,0,0.5535,3.692683E-06,8.3025,0
0.5544,-7.721065E-06,8.316,0,0.5544,-2.920577E-05,8.316,0
0.5553,-3.356985E-07,8.3295,0,0.5553,-5.001907E-05,8.3295,0
0.5562,2.349889E-06,8.343,0,0.5562,-6.378271E-06,8.343,0
0.5571,-1.913481E-05,8.3565,0,0.5571,1.174945E-05,8.3565,0
0.558,-3.356985E-07,8.37,0,0.558,-8.056763E-06,8.37,0
0.5589,2.081331E-05,8.3835,0,0.5589,-5.639734E-05,8.3835,0
0.5598,-1.577783E-05,8.397,0,0.5598,-1.007095E-06,8.397,0
0.5607,-1.980621E-05,8.4105,0,0.5607,-1.644922E-05,8.4105,0
0.5616,7.721065E-06,8.424,0,0.5616,-5.471885E-05,8.424,0
0.5625,-8.392462E-06,8.4375,0,0.5625,-7.721065E-06,8.4375,0
0.5634,-3.390555E-05,8.451,0,0.5634,-1.745632E-05,8.451,0
0.5643,-2.920577E-05,8.4645,0,0.5643,-5.941863E-05,8.4645,0
0.5652,2.349889E-06,8.478,0,0.5652,-2.517739E-05,8.478,0
0.5661,-8.392462E-06,8.4915,0,0.5661,-8.392462E-06,8.4915,0
0.567,-2.18204E-05,8.505,0,0.567,-2.484169E-05,8.505,0
0.5679,-9.735256E-06,8.5185,0,0.5679,-1.779202E-05,8.5185,0
0.5688,-1.342794E-06,8.532,0,0.5688,-5.169757E-05,8.532,0
0.5697,-1.980621E-05,8.5455,0,0.5697,-2.987716E-05,8.5455,0
0.5706,-6.54612E-05,8.559,0,0.5706,-2.786297E-05,8.559,0
0.5715,-5.069047E-05,8.5725,0,0.5715,-5.740444E-05,8.5725,0
0.5724,-1.712062E-05,8.586,0,0.5724,-7.553216E-05,8.586,0
0.5733,-1.544213E-05,8.5995,0,0.5733,-1.544213E-05,8.5995,0
0.5742,-2.786297E-05,8.613,0,0.5742,-1.309224E-05,8.613,0
0.5751,1.040665E-05,8.6265,0,0.5751,-5.639734E-05,8.6265,0
0.576,3.692683E-05,8.64,0,0.576,1.913481E-05,8.64,0
0.5769,3.390555E-05,8.6535,0,0.5769,4.901198E-05,8.6535,0
0.5778,3.524834E-05,8.667,0,0.5778,-2.819867E-05,8.667,0
0.5787,2.014191E-06,8.6805,0,0.5787,-1.040665E-05,8.6805,0
0.5796,-1.309224E-05,8.694,0,0.5796,3.189136E-05,8.694,0
0.5805,-7.049668E-06,8.7075,0,0.5805,1.309224E-05,8.7075,0
0.5814,3.692683E-06,8.721,0,0.5814,-1.678492E-05,8.721,0
0.5823,1.947051E-05,8.7345,0,0.5823,-3.927672E-05,8.7345,0
0.5832,-5.706874E-06,8.748,0,0.5832,-1.007095E-05,8.748,0
0.5841,-1.745632E-05,8.7615,0,0.5841,1.577783E-05,8.7615,0
0.585,2.21561E-05,8.775,0,0.585,-2.316319E-05,8.775,0
0.5859,2.349889E-06,8.7885,0,0.5859,-4.46479E-05,8.7885,0
0.5868,-2.920577E-05,8.802,0,0.5868,2.014191E-06,8.802,0
0.5877,-1.141375E-05,8.8155,0,0.5877,-1.007095E-05,8.8155,0
0.5886,7.721065E-06,8.829,0,0.5886,-7.150377E-05,8.829,0
0.5895,-3.692683E-06,8.8425,0,0.5895,-9.063859E-06,8.8425,0
0.5904,3.155566E-05,8.856,0,0.5904,-4.36408E-06,8.856,0
0.5913,5.069047E-05,8.8695,0,0.5913,-5.841154E-05,8.8695,0
0.5922,1.174945E-05,8.883,0,0.5922,-7.385367E-06,8.883,0
0.5931,1.577783E-05,8.8965,0,0.5931,2.047761E-05,8.8965,0
0.594,9.063859E-06,8.91,0,0.594,1.980621E-05,8.91,0
0.5949,-1.577783E-05,8.9235,0,0.5949,-8.392462E-06,8.9235,0
0.5958,6.713969E-07,8.937,0,0.5958,-3.323415E-05,8.937,0
0.5967,-1.812772E-05,8.9505,0,0.5967,-1.678492E-06,8.9505,0
0.5976,-3.927672E-05,8.964,0,0.5976,-8.056763E-06,8.964,0
0.5985,-8.392462E-06,8.9775,0,0.5985,-3.894102E-05,8.9775,0
0.5994,2.349889E-06,8.991,0,0.5994,-5.639734E-05,8.991,0
0.6003,-3.256275E-05,9.0045,0,0.6003,6.378271E-06,9.0045,0
0.6012,-4.867628E-05,9.018,0,0.6012,3.021286E-06,9.018,0
0.6021,-4.196231E-05,9.0315,0,0.6021,-7.385367E-05,9.0315,0
0.603,-2.047761E-05,9.045,0,0.603,-6.378271E-06,9.045,0
0.6039,-2.349889E-05,9.0585,0,0.6039,8.392462E-06,9.0585,0
0.6048,-2.316319E-05,9.072001,0,0.6048,-7.653925E-05,9.072001,0
0.6057,-3.256275E-05,9.0855,0,0.6057,-3.894102E-05,9.0855,0
0.6066,-4.699779E-06,9.099,0,0.6066,-3.356985E-06,9.099,0
0.6075,1.846342E-05,9.1125,0,0.6075,-1.846342E-05,9.1125,0
0.6084,1.745632E-05,9.126,0,0.6084,4.028382E-06,9.126,0
0.6093,-1.846342E-05,9.1395,0,0.6093,2.1149E-05,9.1395,0
0.6102,-1.107805E-05,9.153,0,0.6102,5.203327E-05,9.153,0
0.6111,-1.376364E-05,9.1665,0,0.6111,1.712062E-05,9.1665,0
0.612,-3.189136E-05,9.18,0,0.612,-1.644922E-05,9.18,0
0.6129,-2.584878E-05,9.1935,0,0.6129,-3.121996E-05,9.1935,0
0.6138,-2.21561E-05,9.207,0,0.6138,1.846342E-05,9.207,0
0.6147,-1.309224E-05,9.2205,0,0.6147,-8.392462E-06,9.2205,0
0.6156,-9.735256E-06,9.234,0,0.6156,-7.016098E-05,9.234,0
0.6165,-5.035477E-06,9.2475,0,0.6165,-9.735256E-06,9.2475,0
0.6174,2.853437E-05,9.261,0,0.6174,-5.371176E-06,9.261,0
0.6183,8.728161E-06,9.2745,0,0.6183,-6.881819E-05,9.2745,0
0.6192,-3.356985E-07,9.288,0,0.6192,-8.96315E-05,9.288,0
0.6201,-4.36408E-06,9.3015,0,0.6201,-2.450599E-05,9.3015,0
0.621,-2.18204E-05,9.315,0,0.621,-2.047761E-05,9.315,0
0.6219,-3.356985E-06,9.3285,0,0.6219,-1.846342E-05,9.3285,0
0.6228,2.081331E-05,9.342,0,0.6228,-4.766919E-05,9.342,0
0.6237,-5.706874E-06,9.3555,0,0.6237,-2.047761E-05,9.3555,0
0.6246,-5.404745E-05,9.369,0,0.6246,8.056763E-06,9.369,0
0.6255,-3.591974E-05,9.3825,0,0.6255,-2.316319E-05,9.3825,0
0.6264,-3.054856E-05,9.396,0,0.6264,-5.270466E-05,9.396,0
0.6273,-3.826963E-05,9.4095,0,0.6273,1.544213E-05,9.4095,0
0.6282,-2.618448E-05,9.423,0,0.6282,7.721065E-06,9.423,0
0.6291,1.846342E-05,9.4365,0,0.6291,-4.968337E-05,9.4365,0
0.63,-1.846342E-05,9.45,0,0.63,-1.342794E-06,9.45,0
0.6309,1.141375E-05,9.4635,0,0.6309,-1.409934E-05,9.4635,0
0.6318,4.800488E-05,9.477,0,0.6318,-5.639734E-05,9.477,0
0.6327,-2.316319E-05,9.4905,0,0.6327,-2.18204E-05,9.4905,0
0.6336,-3.289845E-05,9.504,0,0.6336,1.409934E-05,9.504,0
0.6345,-1.443504E-05,9.5175,0,0.6345,-1.309224E-05,9.5175,0
0.6354,-2.383459E-05,9.531,0,0.6354,-2.450599E-05,9.531,0
0.6363,-1.544213E-05,9.5445,0,0.6363,-5.774014E-05,9.5445,0
0.6372,1.242084E-05,9.558,0,0.6372,-3.524834E-05,9.558,0
0.6381,1.040665E-05,9.5715,0,0.6381,-4.49836E-05,9.5715,0
0.639,0,9.585,0,0.639,-6.74754E-05,9.585,0
0.6399,2.047761E-05,9.5985,0,0.6399,-6.076142E-05,9.5985,0
0.6408,2.383459E-05,9.612,0,0.6408,-3.021286E-06,9.612,0
0.6417,-3.021286E-06,9.6255,0,0.6417,-1.242084E-05,9.6255,0
0.6426,2.383459E-05,9.639,0,0.6426,-7.452507E-05,9.639,0
0.6435,1.544213E-05,9.6525,0,0.6435,-4.699779E-06,9.6525,0
0.6444,-3.591974E-05,9.666,0,0.6444,4.699779E-06,9.666,0
0.6453,-3.457694E-05,9.6795,0,0.6453,-3.591974E-05,9.6795,0
0.6462,-4.36408E-06,9.693,0,0.6462,-1.342794E-05,9.693,0
0.6471,-4.129091E-05,9.7065,0,0.6471,1.812772E-05,9.7065,0
0.648,-5.035477E-06,9.72,0,0.648,2.618448E-05,9.72,0
0.6489,1.309224E-05,9.7335,0,0.6489,2.652018E-05,9.7335,0
0.6498,-2.349889E-06,9.747,0,0.6498,-6.378271E-06,9.747,0
0.6507,1.846342E-05,9.7605,0,0.6507,2.1149E-05,9.7605,0
0.6516,3.826963E-05,9.774,0,0.6516,4.129091E-05,9.774,0
0.6525,1.812772E-05,9.7875,0,0.6525,-1.644922E-05,9.7875,0
0.6534,-3.356985E-07,9.801,0,0.6534,-4.263371E-05,9.801,0
0.6543,-2.18204E-05,9.8145,0,0.6543,1.174945E-05,9.8145,0
0.6552,3.692683E-06,9.828,0,0.6552,-2.18204E-05,9.828,0
0.6561,-2.685588E-06,9.8415,0,0.6561,-7.318227E-05,9.8415,0
0.657,7.721065E-06,9.855,0,0.657,-1.510643E-05,9.855,0
0.6579,2.383459E-05,9.8685,0,0.6579,8.392462E-06,9.8685,0
0.6588,-1.678492E-06,9.882,0,0.6588,-7.284657E-05,9.882,0
0.6597,-3.793393E-05,9.8955,0,0.6597,-7.016098E-05,9.8955,0
0.6606,-3.927672E-05,9.909,0,0.6606,-2.383459E-05,9.909,0
0.6615,-1.913481E-05,9.9225,0,0.6615,-3.524834E-05,9.9225,0
0.6624,-1.443504E-05,9.936,0,0.6624,-2.383459E-05,9.936,0
0.6633,-6.713969E-07,9.9495,0,0.6633,-3.121996E-05,9.9495,0
0.6642,1.208515E-05,9.963,0,0.6642,4.028382E-06,9.963,0
0.6651,1.779202E-05,9.976501,0,0.6651,1.980621E-05,9.976501,0
0.666,2.920577E-05,9.99,0,0.666,3.356985E-05,9.99,0
0.6669,1.477073E-05,10.0035,0,0.6669,5.035477E-06,10.0035,0
0.6678,3.356985E-07,10.017,0,0.6678,4.968337E-05,10.017,0
0.6687,4.36408E-06,10.0305,0,0.6687,3.860533E-05,10.0305,0
0.6696,1.678492E-06,10.044,0,0.6696,-2.450599E-05,10.044,0
0.6705,-7.049668E-06,10.0575,0,0.6705,3.021286E-06,10.0575,0
0.6714,-2.21561E-05,10.071,0,0.6714,2.316319E-05,10.071,0
0.6723,-3.021286E-05,10.0845,0,0.6723,-1.779202E-05,10.0845,0
0.6732,-4.33051E-05,10.098,0,0.6732,-1.141375E-05,10.098,0
0.6741,-6.210422E-05,10.1115,0,0.6741,2.484169E-05,10.1115,0
0.675,-4.33051E-05,10.125,0,0.675,2.450599E-05,10.125,0
0.6759,-3.289845E-05,10.1385,0,0.6759,2.349889E-05,10.1385,0
0.6768,-5.035477E-05,10.152,0,0.6768,-2.349889E-05,10.152,0
0.6777,-1.712062E-05,10.1655,0,0.6777,3.021286E-06,10.1655,0
0.6786,6.378271E-06,10.179,0,0.6786,-1.913481E-05,10.179,0
0.6795,-9.735256E-06,10.1925,0,0.6795,-5.572595E-05,10.1925,0
0.6804,2.014191E-06,10.206,0,0.6804,-8.258183E-05,10.206,0
0.6813,3.323415E-05,10.2195,0,0.6813,-3.860533E-05,10.2195,0
0.6822,1.141375E-05,10.233,0,0.6822,-4.867628E-05,10.233,0
0.6831,-2.18204E-05,10.2465,0,0.6831,-0.0001077592,10.2465,0
0.684,-1.913481E-05,10.26,0,0.684,-5.069047E-05,10.26,0
0.6849,-2.954147E-05,10.2735,0,0.6849,0,10.2735,0
0.6858,5.035477E-06,10.287,0,0.6858,-4.33051E-05,10.287,0
0.6867,2.920577E-05,10.3005,0,0.6867,-8.392462E-06,10.3005,0
0.6876,1.409934E-05,10.314,0,0.6876,5.606165E-05,10.314,0
0.6885,7.049668E-06,10.3275,0,0.6885,1.141375E-05,10.3275,0
0.6894,1.376364E-05,10.341,0,0.6894,-3.054856E-05,10.341,0
0.6903,2.349889E-06,10.3545,0,0.6903,-6.74754E-05,10.3545,0
0.6912,-3.356985E-07,10.368,0,0.6912,-3.826963E-05,10.368,0
0.6921,-2.887007E-05,10.3815,0,0.6921,-5.706874E-06,10.3815,0
0.693,7.049668E-06,10.395,0,0.693,-1.913481E-05,10.395,0
0.6939,-6.042573E-06,10.4085,0,0.6939,-1.779202E-05,10.4085,0
0.6948,-2.719158E-05,10.422,0,0.6948,4.061952E-05,10.422,0
0.6957,-2.786297E-05,10.4355,0,0.6957,3.558404E-05,10.4355,0
0.6966,2.349889E-06,10.449,0,0.6966,-2.081331E-05,10.449,0
0.6975,3.390555E-05,10.4625,0,0.6975,4.028382E-06,10.4625,0
0.6984,2.047761E-05,10.476,0,0.6984,-1.779202E-05,10.476,0
0.6993,-4.699779E-05,10.4895,0,0.6993,-5.740444E-05,10.4895,0
0.7002,-5.807584E-05,10.503,0,0.7002,-4.46479E-05,10.503,0
0.7011,-3.860533E-05,10.5165,0,0.7011,-4.263371E-05,10.5165,0
0.702,-1.174945E-05,10.53,0,0.702,-7.217517E-05,10.53,0
0.7029,-9.735256E-06,10.5435,0,0.7029,-8.92958E-05,10.5435,0
0.7038,6.713969E-07,10.557,0,0.7038,-9.298848E-05,10.557,0
0.7047,2.517739E-05,10.5705,0,0.7047,-2.652018E-05,10.5705,0
0.7056,4.229801E-05,10.584,0,0.7056,2.987716E-05,10.584,0
0.7065,2.047761E-05,10.5975,0,0.7065,-1.342794E-06,10.5975,0
0.7074,1.577783E-05,10.611,0,0.7074,-6.076142E-05,10.611,0
0.7083,-8.392462E-06,10.6245,0,0.7083,2.584878E-05,10.6245,0
0.7092,-2.349889E-06,10.638,0,0.7092,-3.356985E-07,10.638,0
0.7101,-4.699779E-06,10.6515,0,0.7101,-9.063859E-05,10.6515,0
0.711,-1.510643E-05,10.665,0,0.711,-1.376364E-05,10.665,0
0.7119,-3.256275E-05,10.6785,0,0.7119,-1.208515E-05,10.6785,0
0.7128,-1.678492E-05,10.692,0,0.7128,-6.982528E-05,10.692,0
0.7137,-3.021286E-06,10.7055,0,0.7137,-5.539025E-05,10.7055,0
0.7146,-1.376364E-05,10.719,0,0.7146,-1.779202E-05,10.719,0
0.7155,-7.721065E-06,10.7325,0,0.7155,-2.484169E-05,10.7325,0
0.7164,-1.040665E-05,10.746,0,0.7164,-2.18204E-05,10.746,0
0.7173,-1.678492E-05,10.7595,0,0.7173,-3.524834E-05,10.7595,0
0.7182,-1.309224E-05,10.773,0,0.7182,2.014191E-06,10.773,0
0.7191,-9.063859E-06,10.7865,0,0.7191,3.390555E-05,10.7865,0
0.72,-2.517739E-05,10.8,0,0.72,1.007095E-06,10.8,0
0.7209,-1.510643E-05,10.8135,0,0.7209,-1.242084E-05,10.8135,0
0.7218,-2.081331E-05,10.827,0,0.7218,2.584878E-05,10.827,0
0.7227,-3.927672E-05,10.8405,0,0.7227,4.699779E-06,10.8405,0
0.7236,-8.728161E-06,10.854,0,0.7236,-6.009003E-05,10.854,0
0.7245,1.040665E-05,10.8675,0,0.7245,-9.063859E-06,10.8675,0
0.7254,-1.846342E-05,10.881,0,0.7254,9.063859E-06,10.881,0
0.7263,-1.242084E-05,10.8945,0,0.7263,-4.867628E-05,10.8945,0
0.7272,1.846342E-05,10.908,0,0.7272,-4.599069E-05,10.908,0
0.7281,0,10.9215,0,0.7281,1.947051E-05,10.9215,0
0.729,-1.980621E-05,10.935,0,0.729,-2.349889E-06,10.935,0
0.7299,-3.021286E-06,10.9485,0,0.7299,-4.632639E-05,10.9485,0
0.7308,-1.007095E-06,10.962,0,0.7308,-0.0001171588,10.962,0
0.7317,3.356985E-06,10.9755,0,0.7317,-6.243992E-05,10.9755,0
0.7326,-4.53193E-05,10.989,0,0.7326,-1.644922E-05,10.989,0
0.7335,-2.618448E-05,11.0025,0,0.7335,-7.284657E-05,11.0025,0
0.7344,-2.24918E-05,11.016,0,0.7344,-7.754635E-05,11.016,0
0.7353,-3.289845E-05,11.0295,0,0.7353,3.356985E-07,11.0295,0
0.7362,-3.524834E-05,11.043,0,0.7362,-1.074235E-05,11.043,0
0.7371,-1.544213E-05,11.0565,0,0.7371,-3.256275E-05,11.0565,0
0.738,1.376364E-05,11.07,0,0.738,5.136187E-05,11.07,0
0.7389,3.021286E-05,11.0835,0,0.7389,4.53193E-05,11.0835,0
0.7398,-4.699779E-06,11.097,0,0.7398,-6.713969E-06,11.097,0
0.7407,9.063859E-06,11.1105,0,0.7407,-1.477073E-05,11.1105,0
0.7416,3.692683E-06,11.124,0,0.7416,1.443504E-05,11.124,0
0.7425,-6.713969E-06,11.1375,0,0.7425,-3.390555E-05,11.1375,0
0.7434,7.385367E-06,11.151,0,0.7434,-4.867628E-05,11.151,0
0.7443,3.256275E-05,11.1645,0,0.7443,-5.706874E-05,11.1645,0
0.7452,2.21561E-05,11.178,0,0.7452,-3.289845E-05,11.178,0
0.7461,-7.721065E-06,11.1915,0,0.7461,-5.035477E-06,11.1915,0
0.747,-2.987716E-05,11.205,0,0.747,-2.450599E-05,11.205,0
0.7479,-1.712062E-05,11.2185,0,0.7479,-2.081331E-05,11.2185,0
0.7488,-2.719158E-05,11.232,0,0.7488,4.968337E-05,11.232,0
0.7497,-5.706874E-06,11.2455,0,0.7497,4.46479E-05,11.2455,0
0.7506,1.443504E-05,11.259,0,0.7506,-1.040665E-05,11.259,0
0.7515,-2.349889E-05,11.2725,0,0.7515,6.243992E-05,11.2725,0
0.7524,2.24918E-05,11.286,0,0.7524,6.54612E-05,11.286,0
0.7533,5.337606E-05,11.2995,0,0.7533,-3.356985E-06,11.2995,0
0.7542,3.121996E-05,11.313,0,0.7542,-3.356985E-06,11.313,0
0.7551,7.385367E-06,11.3265,0,0.7551,2.28275E-05,11.3265,0
0.756,4.028382E-06,11.34,0,0.756,-5.035477E-06,11.34,0
0.7569,6.378271E-06,11.3535,0,0.7569,-2.047761E-05,11.3535,0
0.7578,2.349889E-06,11.367,0,0.7578,-6.848249E-05,11.367,0
0.7587,-2.18204E-05,11.3805,0,0.7587,-5.941863E-05,11.3805,0
0.7596,-7.251087E-05,11.394,0,0.7596,-5.874724E-05,11.394,0
0.7605,-6.948959E-05,11.4075,0,0.7605,-8.627451E-05,11.4075,0
0.7614,-9.399558E-06,11.421,0,0.7614,-9.802396E-05,11.421,0
0.7623,1.712062E-05,11.4345,0,0.7623,-4.666209E-05,11.4345,0
0.7632,9.735256E-06,11.448,0,0.7632,-4.867628E-05,11.448,0
0.7641,-1.779202E-05,11.4615,0,0.7641,-9.835965E-05,11.4615,0
0.765,-2.450599E-05,11.475,0,0.765,-1.913481E-05,11.475,0
0.7659,1.040665E-05,11.4885,0,0.7659,3.054856E-05,11.4885,0
0.7668,-7.049668E-06,11.502,0,0.7668,-4.699779E-06,11.502,0
0.7677,-5.001907E-05,11.5155,0,0.7677,1.980621E-05,11.5155,0
0.7686,-4.632639E-05,11.529,0,0.7686,0.0001030594,11.529,0
0.7695,-2.853437E-05,11.5425,0,0.7695,4.934768E-05,11.5425,0
0.7704,7.721065E-06,11.556,0,0.7704,9.735256E-06,11.556,0
0.7713,4.800488E-05,11.5695,0,0.7713,-2.24918E-05,11.5695,0
0.7722,2.14847E-05,11.583,0,0.7722,5.706874E-06,11.583,0
0.7731,4.699779E-06,11.5965,0,0.7731,2.1149E-05,11.5965,0
0.774,1.275654E-05,11.61,0,0.774,-6.713969E-07,11.61,0
0.7749,-2.18204E-05,11.6235,0,0.7749,-3.793393E-05,11.6235,0
0.7758,-4.632639E-05,11.637,0,0.7758,1.779202E-05,11.637,0
0.7767,-1.242084E-05,11.6505,0,0.7767,-2.316319E-05,11.6505,0
0.7776,-1.712062E-05,11.664,0,0.7776,-8.291753E-05,11.664,0
0.7785,-3.021286E-06,11.6775,0,0.7785,-4.33051E-05,11.6775,0
0.7794,2.652018E-05,11.691,0,0.7794,-2.887007E-05,11.691,0
0.7803,1.443504E-05,11.7045,0,0.7803,-6.982528E-05,11.7045,0
0.7812,1.510643E-05,11.718,0,0.7812,-8.761731E-05,11.718,0
0.7821,4.39765E-05,11.7315,0,0.7821,-3.189136E-05,11.7315,0
0.783,7.922484E-05,11.745,0,0.783,-2.484169E-05,11.745,0
0.7839,2.920577E-05,11.7585,0,0.7839,-2.584878E-05,11.7585,0
0.7848,-2.450599E-05,11.772,0,0.7848,-1.577783E-05,11.772,0
0.7857,-6.478981E-05,11.7855,0,0.7857,5.606165E-05,11.7855,0
0.7866,-0.0001356222,11.799,0,0.7866,-5.706874E-06,11.799,0
0.7875,-0.000102388,11.8125,0,0.7875,-7.553216E-05,11.8125,0
0.7884,-5.404745E-05,11.826,0,0.7884,-8.82887E-05,11.826,0
0.7893,-3.994812E-05,11.8395,0,0.7893,-1.913481E-05,11.8395,0
0.7902,4.129091E-05,11.853,0,0.7902,-1.376364E-05,11.853,0
0.7911,9.332418E-05,11.8665,0,0.7911,-7.251087E-05,11.8665,0
0.792,4.49836E-05,11.88,0,0.792,3.021286E-06,11.88,0
0.7929,2.1149E-05,11.8935,0,0.7929,2.853437E-05,11.8935,0
0.7938,-3.390555E-05,11.907,0,0.7938,-3.323415E-05,11.907,0
0.7947,-4.095522E-05,11.9205,0,0.7947,8.392462E-06,11.9205,0
0.7956,-2.719158E-05,11.934,0,0.7956,5.169757E-05,11.934,0
0.7965,-1.913481E-05,11.9475,0,0.7965,2.1149E-05,11.9475,0
0.7974,2.517739E-05,11.961,0,0.7974,1.879912E-05,11.961,0
0.7983,1.443504E-05,11.9745,0,0.7983,-3.994812E-05,11.9745,0
0.7992,0,11.988,0,0.7992,-5.673304E-05,11.988,0
0.8001,4.599069E-05,12.0015,0,0.8001,-5.404745E-05,12.0015,0
0.801,3.390555E-05,12.015,0,0.801,-7.284657E-05,12.015,0
0.8019,2.349889E-05,12.0285,0,0.8019,-8.761731E-05,12.0285,0
0.8028,1.913481E-05,12.042,0,0.8028,-2.853437E-05,12.042,0
0.8037,-7.049668E-06,12.0555,0,0.8037,-1.577783E-05,12.0555,0
0.8046,1.007095E-06,12.069,0,0.8046,-5.001907E-05,12.069,0
0.8055,-9.063859E-06,12.0825,0,0.8055,-1.107805E-05,12.0825,0
0.8064,-2.047761E-05,12.096,0,0.8064,1.577783E-05,12.096,0
0.8073,-3.726253E-05,12.1095,0,0.8073,7.721065E-06,12.1095,0
0.8082,-1.309224E-05,12.123,0,0.8082,6.378271E-06,12.123,0
0.8091,-3.323415E-05,12.1365,0,0.8091,-1.242084E-05,12.1365,0
0.81,-2.853437E-05,12.15,0,0.81,-4.867628E-05,12.15,0
0.8109,-2.517739E-05,12.1635,0,0.8109,-6.009003E-05,12.1635,0
0.8118,-4.36408E-06,12.177,0,0.8118,-7.754635E-05,12.177,0
0.8127,-1.510643E-05,12.1905,0,0.8127,-2.18204E-05,12.1905,0
0.8136,-3.692683E-06,12.204,0,0.8136,2.652018E-05,12.204,0
0.8145,1.812772E-05,12.2175,0,0.8145,7.351797E-05,12.2175,0
0.8154,-1.309224E-05,12.231,0,0.8154,7.956054E-05,12.231,0
0.8163,-2.618448E-05,12.2445,0,0.8163,0.0001819486,12.2445,0
0.8172,-1.712062E-05,12.258,0,0.8172,0.0002064546,12.258,0
0.8181,-9.735256E-06,12.2715,0,0.8181,0.0001315938,12.2715,0
0.819,-1.779202E-05,12.285,0,0.819,7.754635E-05,12.285,0
0.8199,-3.256275E-05,12.2985,0,0.8199,-8.023193E-05,12.2985,0
0.8208,-1.443504E-05,12.312,0,0.8208,-0.0001889983,12.312,0
0.8217,1.980621E-05,12.3255,0,0.8217,-0.0001460288,12.3255,0
0.8226,1.275654E-05,12.339,0,0.8226,-8.358892E-05,12.339,0
0.8235,4.061952E-05,12.3525,0,0.8235,-0.0001342794,12.3525,0
0.8244,-3.994812E-05,12.366,0,0.8244,-0.0001705348,12.366,0
0.8253,-1.913481E-05,12.3795,0,0.8253,-0.0001456931,12.3795,0
0.8262,-1.007095E-06,12.393,0,0.8262,-5.740444E-05,12.393,0
0.8271,-6.881819E-05,12.4065,0,0.8271,-6.378271E-06,12.4065,0
0.828,-5.270466E-05,12.42,0,0.828,-1.913481E-05,12.42,0
0.8289,-2.21561E-05,12.4335,0,0.8289,-5.337606E-05,12.4335,0
0.8298,-2.047761E-05,12.447,0,0.8298,-2.383459E-05,12.447,0
0.8307,-3.726253E-05,12.4605,0,0.8307,-2.1149E-05,12.4605,0
0.8316,-1.846342E-05,12.474,0,0.8316,-6.64683E-05,12.474,0
0.8325,1.376364E-05,12.4875,0,0.8325,1.947051E-05,12.4875,0
0.8334,6.378271E-06,12.501,0,0.8334,5.606165E-05,12.501,0
0.8343,-2.383459E-05,12.5145,0,0.8343,-1.040665E-05,12.5145,0
0.8352,-1.980621E-05,12.528,0,0.8352,-6.378271E-06,12.528,0
0.8361,-4.061952E-05,12.5415,0,0.8361,2.987716E-05,12.5415,0
0.837,-2.047761E-05,12.555,0,0.837,2.450599E-05,12.555,0
0.8379,-1.678492E-06,12.5685,0,0.8379,2.1149E-05,12.5685,0
0.8388,-7.721065E-06,12.582,0,0.8388,-1.879912E-05,12.582,0
0.8397,1.376364E-05,12.5955,0,0.8397,-9.063859E-06,12.5955,0
0.8406,4.766919E-05,12.609,0,0.8406,-1.879912E-05,12.609,0
0.8415,2.887007E-05,12.6225,0,0.8415,-5.304036E-05,12.6225,0
0.8424,1.174945E-05,12.636,0,0.8424,-4.901198E-05,12.636,0
0.8433,3.189136E-05,12.6495,0,0.8433,7.049668E-06,12.6495,0
0.8442,4.263371E-05,12.663,0,0.8442,-8.392462E-06,12.663,0
0.8451,4.46479E-05,12.6765,0,0.8451,-4.095522E-05,12.6765,0
0.846,3.356985E-06,12.69,0,0.846,1.376364E-05,12.69,0
0.8469,-4.33051E-05,12.7035,0,0.8469,2.18204E-05,12.7035,0
0.8478,-8.090334E-05,12.717,0,0.8478,-1.980621E-05,12.717,0
0.8487,-5.438316E-05,12.7305,0,0.8487,-3.558404E-05,12.7305,0
0.8496,-1.510643E-05,12.744,0,0.8496,-2.349889E-06,12.744,0
0.8505,-3.054856E-05,12.7575,0,0.8505,-4.53193E-05,12.7575,0
0.8514,-5.035477E-06,12.771,0,0.8514,-8.627451E-05,12.771,0
0.8523,5.874724E-05,12.7845,0,0.8523,-0.0001040665,12.7845,0
0.8532,3.860533E-05,12.798,0,0.8532,-3.994812E-05,12.798,0
0.8541,3.390555E-05,12.8115,0,0.8541,-3.424125E-05,12.8115,0
0.855,1.376364E-05,12.825,0,0.855,-7.351797E-05,12.825,0
0.8559,-1.577783E-05,12.8385,0,0.8559,-8.72816E-05,12.8385,0
0.8568,-2.584878E-05,12.852,0,0.8568,-3.021286E-05,12.852,0
0.8577,3.692683E-06,12.8655,0,0.8577,-1.208515E-05,12.8655,0
0.8586,5.706874E-06,12.879,0,0.8586,-5.035477E-05,12.879,0
0.8595001,-7.418937E-05,12.8925,0,0.8595001,3.491264E-05,12.8925,0
0.8604,-7.721065E-06,12.906,0,0.8604,7.217517E-05,12.906,0
0.8613,5.975433E-05,12.9195,0,0.8613,3.591974E-05,12.9195,0
0.8622,-2.584878E-05,12.933,0,0.8622,7.418937E-05,12.933,0
0.8631,-5.572595E-05,12.9465,0,0.8631,9.970245E-05,12.9465,0
0.864,-1.644922E-05,12.96,0,0.864,6.378271E-05,12.96,0
0.8649,-5.706874E-06,12.9735,0,0.8649,3.189136E-05,12.9735,0
0.8658,-3.356985E-07,12.987,0,0.8658,-2.786297E-05,12.987,0
0.8667,4.699779E-05,13.0005,0,0.8667,-1.577783E-05,13.0005,0
0.8676,8.426032E-05,13.014,0,0.8676,-2.752728E-05,13.014,0
0.8685,6.74754E-05,13.0275,0,0.8685,-0.0001010452,13.0275,0
0.8694,3.994812E-05,13.041,0,0.8694,-0.0001121233,13.041,0
0.8703,6.042573E-06,13.0545,0,0.8703,-6.78111E-05,13.0545,0
0.8712,-8.560311E-05,13.068,0,0.8712,-0.0001030594,13.068,0
0.8721,-5.404745E-05,13.0815,0,0.8721,-0.000140322,13.0815,0
0.873,-3.189136E-05,13.095,0,0.873,-6.64683E-05,13.095,0
0.8739,-0.0001003738,13.1085,0,0.8739,-1.644922E-05,13.1085,0
0.8748,-0.0001037308,13.122,0,0.8748,-1.779202E-05,13.122,0
0.8757,2.920577E-05,13.1355,0,0.8757,5.706874E-05,13.1355,0
0.8766,5.874724E-05,13.149,0,0.8766,0.000115816,13.149,0
0.8775,3.659113E-05,13.1625,0,0.8775,5.673304E-05,13.1625,0
0.8784,-1.342794E-06,13.176,0,0.8784,6.009003E-05,13.176,0
0.8793,-1.443504E-05,13.1895,0,0.8793,1.443504E-05,13.1895,0
0.8802,2.014191E-05,13.203,0,0.8802,3.390555E-05,13.203,0
0.8811,3.088426E-05,13.2165,0,0.8811,4.53193E-05,13.2165,0
0.882,-4.599069E-05,13.23,0,0.882,-3.390555E-05,13.23,0
0.8829,-2.719158E-05,13.2435,0,0.8829,-5.673304E-05,13.2435,0
0.8838,-1.007095E-05,13.257,0,0.8838,0,13.257,0
0.8847,-1.141375E-05,13.2705,0,0.8847,-2.349889E-05,13.2705,0
0.8856,-4.095522E-05,13.284,0,0.8856,-7.150377E-05,13.284,0
0.8865,-2.652018E-05,13.2975,0,0.8865,-3.994812E-05,13.2975,0
0.8874,-3.054856E-05,13.311,0,0.8874,-3.659113E-05,13.311,0
0.8883,-2.1149E-05,13.3245,0,0.8883,-6.076142E-05,13.3245,0
0.8892,-6.61326E-05,13.338,0,0.8892,-6.445411E-05,13.338,0
0.8901,-2.450599E-05,13.3515,0,0.8901,-1.107805E-05,13.3515,0
0.891,-1.141375E-05,13.365,0,0.891,2.450599E-05,13.365,0
0.8919,-1.007095E-05,13.3785,0,0.8919,1.107805E-05,13.3785,0
0.8928,0,13.392,0,0.8928,-6.143282E-05,13.392,0
0.8937,4.36408E-06,13.4055,0,0.8937,1.846342E-05,13.4055,0
0.8946,-3.726253E-05,13.419,0,0.8946,4.901198E-05,13.419,0
0.8955,3.021286E-06,13.4325,0,0.8955,-3.021286E-05,13.4325,0
0.8964,1.812772E-05,13.446,0,0.8964,-9.869535E-05,13.446,0
0.8973,-2.24918E-05,13.4595,0,0.8973,-6.076142E-05,13.4595,0
0.8982,-1.510643E-05,13.473,0,0.8982,-8.023193E-05,13.473,0
0.8991,-2.450599E-05,13.4865,0,0.8991,-7.687495E-05,13.4865,0
0.9,-3.390555E-05,13.5,0,0.9,7.586786E-05,13.5,0
0.9009,3.726253E-05,13.5135,0,0.9009,0.0001312581,13.5135,0
0.9018,6.378271E-05,13.527,0,0.9018,5.975433E-05,13.527,0
0.9027,1.678492E-06,13.5405,0,0.9027,2.786297E-05,13.5405,0
0.9036,0,13.554,0,0.9036,2.047761E-05,13.554,0
0.9045,1.611353E-05,13.5675,0,0.9045,-2.081331E-05,13.5675,0
0.9054,3.323415E-05,13.581,0,0.9054,3.356985E-07,13.581,0
0.9063,-4.36408E-06,13.5945,0,0.9063,-7.687495E-05,13.5945,0
0.9072,1.779202E-05,13.608,0,0.9072,-3.726253E-05,13.608,0
0.9081,-1.107805E-05,13.6215,0,0.9081,-5.035477E-05,13.6215,0
0.909,-2.719158E-05,13.635,0,0.909,-0.0001064164,13.635,0
0.9099,-9.735256E-06,13.6485,0,0.9099,-0.0001044022,13.6485,0
0.9108,-2.450599E-05,13.662,0,0.9108,-2.819867E-05,13.662,0
0.9117,-4.33051E-05,13.6755,0,0.9117,-4.129091E-05,13.6755,0
0.9126,-2.18204E-05,13.689,0,0.9126,-7.318227E-05,13.689,0
0.9135,-3.793393E-05,13.7025,0,0.9135,-2.21561E-05,13.7025,0
0.9144,1.409934E-05,13.716,0,0.9144,3.457694E-05,13.716,0
0.9153,3.457694E-05,13.7295,0,0.9153,2.316319E-05,13.7295,0
0.9162,-5.706874E-06,13.743,0,0.9162,3.994812E-05,13.743,0
0.9171,-1.107805E-05,13.7565,0,0.9171,5.841154E-05,13.7565,0
0.918,-2.047761E-05,13.77,0,0.918,2.349889E-06,13.77,0
0.9189,-2.484169E-05,13.7835,0,0.9189,-3.457694E-05,13.7835,0
0.9198,-1.242084E-05,13.797,0,0.9198,-7.016098E-05,13.797,0
0.9207,-4.028382E-06,13.8105,0,0.9207,-2.316319E-05,13.8105,0
0.9216,9.231708E-05,13.824,0,0.9216,9.063859E-06,13.824,0
0.9225,0.0001285725,13.8375,0,0.9225,-6.210422E-05,13.8375,0
0.9234,7.888914E-05,13.851,0,0.9234,-0.0001101091,13.851,0
0.9243,2.349889E-05,13.8645,0,0.9243,-3.793393E-05,13.8645,0
0.9252,-7.049668E-06,13.878,0,0.9252,-7.754635E-05,13.878,0
0.9261,-8.191043E-05,13.8915,0,0.9261,-0.0001399863,13.8915,0
0.927,-0.0001426719,13.905,0,0.927,-6.344701E-05,13.905,0
0.9279,-9.164568E-05,13.9185,0,0.9279,-3.491264E-05,13.9185,0
0.9288,-5.706874E-06,13.932,0,0.9288,-7.821774E-05,13.932,0
0.9297,4.699779E-06,13.9455,0,0.9297,-0.000126894,13.9455,0
0.9306,4.53193E-05,13.959,0,0.9306,-7.553216E-05,13.959,0
0.9315,8.157473E-05,13.9725,0,0.9315,-6.009003E-05,13.9725,0
0.9324,-5.706874E-06,13.986,0,0.9324,-6.411841E-05,13.986,0
0.9333,-6.344701E-05,13.9995,0,0.9333,1.577783E-05,13.9995,0
0.9342,-2.786297E-05,14.013,0,0.9342,0.0001769131,14.013,0
0.9351,-8.392462E-06,14.0265,0,0.9351,0.0002232395,14.0265,0
0.936,1.040665E-05,14.04,0,0.936,0.0001299153,14.04,0
0.9369,2.24918E-05,14.0535,0,0.9369,8.560311E-05,14.0535,0
0.9378,-2.24918E-05,14.067,0,0.9378,0.0001030594,14.067,0
0.9387,-8.661021E-05,14.0805,0,0.9387,5.203327E-05,14.0805,0
0.9396001,-6.176852E-05,14.094,0,0.9396001,3.356985E-07,14.094,0
0.9405,-5.337606E-05,14.1075,0,0.9405,3.457694E-05,14.1075,0
0.9414001,-5.136187E-05,14.121,0,0.9414001,5.102617E-05,14.121,0
0.9423,-2.987716E-05,14.1345,0,0.9423,-6.71397E-05,14.1345,0
0.9432001,-4.36408E-05,14.148,0,0.9432001,-0.0001178302,14.148,0
0.9441,-4.028382E-06,14.1615,0,0.9441,-0.0001409934,14.1615,0
0.9450001,5.874724E-05,14.175,0,0.9450001,-0.0001591211,14.175,0
0.9459,8.426032E-05,14.1885,0,0.9459,-0.0001420005,14.1885,0
0.9468,5.069047E-05,14.202,0,0.9468,-0.0001087663,14.202,0
0.9477,2.786297E-05,14.2155,0,0.9477,-2.28275E-05,14.2155,0
0.9486,0,14.229,0,0.9486,6.009003E-05,14.229,0
0.9495,7.418937E-05,14.2425,0,0.9495,0.0001379721,14.2425,0
0.9504,8.291753E-05,14.256,0,0.9504,0.0001514,14.256,0
0.9513,4.733349E-05,14.2695,0,0.9513,0.0001537499,14.2695,0
0.9522,-5.706874E-06,14.283,0,0.9522,4.36408E-05,14.283,0
0.9531,1.007095E-06,14.2965,0,0.9531,-8.72816E-05,14.2965,0
0.954,-2.719158E-05,14.31,0,0.954,-0.0001010452,14.31,0
0.9549,-7.183947E-05,14.3235,0,0.9549,-9.701686E-05,14.3235,0
0.9558,-0.0002118257,14.337,0,0.9558,-0.0001312581,14.337,0
0.9567,-0.0001634852,14.3505,0,0.9567,-7.821774E-05,14.3505,0
0.9576,-4.39765E-05,14.364,0,0.9576,-3.021286E-06,14.364,0
0.9585,7.721065E-06,14.3775,0,0.9585,-4.36408E-06,14.3775,0
0.9594,2.1149E-05,14.391,0,0.9594,-3.994812E-05,14.391,0
0.9603,4.599069E-05,14.4045,0,0.9603,-9.063859E-05,14.4045,0
0.9612,-3.692683E-06,14.418,0,0.9612,-6.344701E-05,14.418,0
0.9621,-7.049668E-05,14.4315,0,0.9621,-1.242084E-05,14.4315,0
0.963,-8.224613E-05,14.445,0,0.963,-5.471885E-05,14.445,0
0.9639,-0.0001114519,14.4585,0,0.9639,-7.150377E-05,14.4585,0
0.9648,-3.726253E-05,14.472,0,0.9648,5.069047E-05,14.472,0
0.9657,4.766919E-05,14.4855,0,0.9657,7.486076E-05,14.4855,0
0.9666,6.176852E-05,14.499,0,0.9666,-8.728161E-06,14.499,0
0.9675,0.0001104448,14.5125,0,0.9675,6.378271E-05,14.5125,0
0.9684,9.970245E-05,14.526,0,0.9684,6.74754E-05,14.526,0
0.9693,-4.196231E-05,14.5395,0,0.9693,-3.692683E-06,14.5395,0
0.9702,-0.0001164874,14.553,0,0.9702,-2.047761E-05,14.553,0
0.9711,-7.888914E-05,14.5665,0,0.9711,-3.424125E-05,14.5665,0
0.972,3.994812E-05,14.58,0,0.972,-6.076142E-05,14.58,0
0.9729,-1.544213E-05,14.5935,0,0.9729,-0.0001094377,14.5935,0
0.9738,-6.948959E-05,14.607,0,0.9738,-0.0001953765,14.607,0
0.9747,-2.920577E-05,14.6205,0,0.9747,-0.0001530785,14.6205,0
0.9756,-8.627451E-05,14.634,0,0.9756,-0.0001141375,14.634,0
0.9765,-9.097429E-05,14.6475,0,0.9765,-8.493171E-05,14.6475,0
0.9774,-1.644922E-05,14.661,0,0.9774,-2.18204E-05,14.661,0
0.9783,-3.692683E-06,14.6745,0,0.9783,9.768826E-05,14.6745,0
0.9792,-1.644922E-05,14.688,0,0.9792,0.0001218585,14.688,0
0.9801,-3.692683E-06,14.7015,0,0.9801,6.54612E-05,14.7015,0
0.981,-1.678492E-05,14.715,0,0.981,0.0001017166,14.715,0
0.9819,5.673304E-05,14.7285,0,0.9819,6.277562E-05,14.7285,0
0.9828,7.754635E-05,14.742,0,0.9828,-1.913481E-05,14.742,0
0.9837,-1.644922E-05,14.7555,0,0.9837,-9.735256E-06,14.7555,0
0.9846,1.577783E-05,14.769,0,0.9846,2.652018E-05,14.769,0
0.9855,2.551309E-05,14.7825,0,0.9855,-4.33051E-05,14.7825,0
0.9864,9.600977E-05,14.796,0,0.9864,-5.203327E-05,14.796,0
0.9873,0.0001413291,14.8095,0,0.9873,-0.0001087663,14.8095,0
0.9882,0.0001070878,14.823,0,0.9882,-9.701686E-05,14.823,0
0.9891,3.994812E-05,14.8365,0,0.9891,-3.994812E-05,14.8365,0
0.99,1.980621E-05,14.85,0,0.99,-5.874724E-05,14.85,0
0.9909,1.309224E-05,14.8635,0,0.9909,-4.33051E-05,14.8635,0
0.9918,4.666209E-05,14.877,0,0.9918,2.551309E-05,14.877,0
0.9927,4.53193E-05,14.8905,0,0.9927,-1.913481E-05,14.8905,0
0.9936,6.277562E-05,14.904,0,0.9936,-0.0001131304,14.904,0
0.9945,3.994812E-05,14.9175,0,0.9945,-5.572595E-05,14.9175,0
0.9954,-3.356985E-07,14.931,0,0.9954,-4.196231E-05,14.931,0
0.9963,-6.74754E-05,14.9445,0,0.9963,-8.96315E-05,14.9445,0
0.9972,-0.000123537,14.958,0,0.9972,-4.800488E-05,14.958,0
0.9981,-8.526741E-05,14.9715,0,0.9981,-3.927672E-05,14.9715,0
0.999,-0.0001228656,14.985,0,0.999,-0.0001386435,14.985,0
0.9999,-0.0001473716,14.9985,0,0.9999,-0.0001228656,14.9985,0
1.0008,-0.0001077592,15.012,0,1.0008,-1.376364E-05,15.012,0
1.0017,-6.915389E-05,15.0255,0,1.0017,0.0001064164,15.0255,0
1.0026,-9.198138E-05,15.039,0,1.0026,0.0001366293,15.039,0
1.0035,-5.270466E-05,15.0525,0,1.0035,0.0001094377,15.0525,0
1.0044,-1.745632E-05,15.066,0,1.0044,4.129091E-05,15.066,0
1.0053,-2.1149E-05,15.0795,0,1.0053,7.284657E-05,15.0795,0
1.0062,1.980621E-05,15.093,0,1.0062,4.53193E-05,15.093,0
1.0071,7.016098E-05,15.1065,0,1.0071,1.376364E-05,15.1065,0
1.008,-7.049668E-06,15.12,0,1.008,6.076142E-05,15.12,0
1.0089,2.517739E-05,15.1335,0,1.0089,7.385367E-05,15.1335,0
1.0098,3.927672E-05,15.147,0,1.0098,-1.544213E-05,15.147,0
1.0107,2.652018E-05,15.1605,0,1.0107,-6.210422E-05,15.1605,0
1.0116,1.712062E-05,15.174,0,1.0116,-4.33051E-05,15.174,0
1.0125,2.752728E-05,15.1875,0,1.0125,-9.970245E-05,15.1875,0
1.0134,8.728161E-06,15.201,0,1.0134,-0.0001171588,15.201,0
1.0143,0.0001174945,15.2145,0,1.0143,-0.0001366293,15.2145,0
1.0152,0.000115816,15.228,0,1.0152,-5.203327E-05,15.228,0
1.0161,-2.987716E-05,15.2415,0,1.0161,7.721065E-06,15.2415,0
1.017,-2.014191E-06,15.255,0,1.017,2.786297E-05,15.255,0
1.0179,5.337606E-05,15.2685,0,1.0179,5.774014E-05,15.2685,0
1.0188,4.129091E-05,15.282,0,1.0188,0.0001420005,15.282,0
1.0197,-1.040665E-05,15.2955,0,1.0197,6.378271E-05,15.2955,0
1.0206,-4.733349E-05,15.309,0,1.0206,-3.659113E-05,15.309,0
1.0215,-6.042573E-06,15.3225,0,1.0215,-6.378271E-06,15.3225,0
1.0224,-2.081331E-05,15.336,0,1.0224,-1.242084E-05,15.336,0
1.0233,3.927672E-05,15.3495,0,1.0233,-0.0001621424,15.3495,0
1.0242,2.349889E-05,15.363,0,1.0242,-0.0003598688,15.363,0
1.0251,-5.438316E-05,15.3765,0,1.0251,-0.0003189135,15.3765,0
1.026,-9.735256E-06,15.39,0,1.026,-0.0003289845,15.39,0
1.0269,0.0001111162,15.4035,0,1.0269,-0.0002336461,15.4035,0
1.0278,0.0001762417,15.417,0,1.0278,-0.0001373007,15.417,0
1.0287,0.0001225299,15.4305,0,1.0287,0.0001033951,15.4305,0
1.0296,1.544213E-05,15.444,0,1.0296,0.0003716182,15.444,0
1.0305,-4.061952E-05,15.4575,0,1.0305,0.0005058976,15.4575,0
1.0314,-6.378271E-06,15.471,0,1.0314,0.000348455,15.471,0
1.0323,-0.0001218585,15.4845,0,1.0323,0.0002098116,15.4845,0
1.0332,-0.0003024643,15.498,0,1.0332,7.418937E-05,15.498,0
1.0341,-0.0001097734,15.5115,0,1.0341,6.378271E-06,15.5115,0
1.035,7.452507E-05,15.525,0,1.035,5.203327E-05,15.525,0
1.0359,5.035477E-05,15.5385,0,1.0359,3.793393E-05,15.5385,0
1.0368,-7.486076E-05,15.552,0,1.0368,-5.807584E-05,15.552,0
1.0377,-0.0001493858,15.5655,0,1.0377,-6.009003E-05,15.5655,0
1.0386,-0.0001940337,15.579,0,1.0386,-3.323415E-05,15.579,0
1.0395,-0.0001819486,15.5925,0,1.0395,-5.438316E-05,15.5925,0
1.0404,-0.0001426719,15.606,0,1.0404,-7.418937E-05,15.606,0
1.0413,-3.457694E-05,15.6195,0,1.0413,-8.560311E-05,15.6195,0
1.0422,3.424125E-05,15.633,0,1.0422,-4.028382E-05,15.633,0
1.0431,1.309224E-05,15.6465,0,1.0431,1.007095E-06,15.6465,0
1.044,7.217517E-05,15.66,0,1.044,-1.107805E-05,15.66,0
1.0449,5.404745E-05,15.6735,0,1.0449,-5.304036E-05,15.6735,0
1.0458,-0.0001279011,15.687,0,1.0458,-1.678492E-05,15.687,0
1.0467,-9.567407E-05,15.7005,0,1.0467,-2.349889E-05,15.7005,0
1.0476,2.316319E-05,15.714,0,1.0476,-9.533837E-05,15.714,0
1.0485,1.477073E-05,15.7275,0,1.0485,-7.821774E-05,15.7275,0
1.0494,7.486076E-05,15.741,0,1.0494,-0.0001037308,15.741,0
1.0503,0.0001148089,15.7545,0,1.0503,-0.0001426719,15.7545,0
1.0512,0.0001077592,15.768,0,1.0512,-5.874724E-05,15.768,0
1.0521,2.24918E-05,15.7815,0,1.0521,-2.752728E-05,15.7815,0
1.053,5.874724E-05,15.795,0,1.053,-3.591974E-05,15.795,0
1.0539,5.941863E-05,15.8085,0,1.0539,-2.349889E-06,15.8085,0
1.0548,8.526741E-05,15.822,0,1.0548,1.040665E-05,15.822,0
1.0557,8.426032E-05,15.8355,0,1.0557,6.411841E-05,15.8355,0
1.0566,8.728161E-06,15.849,0,1.0566,4.666209E-05,15.849,0
1.0575,7.486076E-05,15.8625,0,1.0575,-2.652018E-05,15.8625,0
1.0584,5.874724E-05,15.876,0,1.0584,-4.39765E-05,15.876,0
1.0593,2.18204E-05,15.8895,0,1.0593,-2.887007E-05,15.8895,0
1.0602,-0.0001003738,15.903,0,1.0602,-0.0002165255,15.903,0
1.0611,-0.0001950408,15.9165,0,1.0611,-0.0003675898,15.9165,0
1.062,-0.0001816129,15.93,0,1.062,-0.0003085069,15.93,0
1.0629,-0.0001493858,15.9435,0,1.0629,-0.0002544594,15.9435,0
1.0638,-6.076142E-05,15.957,0,1.0638,-0.0001621424,15.957,0
1.0647,-4.028382E-06,15.9705,0,1.0647,6.54612E-05,15.9705,0
1.0656,3.021286E-05,15.984,0,1.0656,0.000340734,15.984,0
1.0665,3.524834E-05,15.9975,0,1.0665,0.0003635614,15.9975,0
1.0674,-3.121996E-05,16.011,0,1.0674,0.0002168612,16.011,0
1.0683,-1.443504E-05,16.0245,0,1.0683,0.0002306248,16.0245,0
1.0692,5.136187E-05,16.038,0,1.0692,0.0001607996,16.038,0
1.0701,2.987716E-05,16.0515,0,1.0701,8.291753E-05,16.0515,0
1.071,3.256275E-05,16.065,0,1.071,3.759823E-05,16.065,0
1.0719,4.599069E-05,16.0785,0,1.0719,-5.404745E-05,16.0785,0
1.0728,7.418937E-05,16.092,0,1.0728,-5.337606E-05,16.092,0
1.0737,1.309224E-05,16.1055,0,1.0737,-5.102617E-05,16.1055,0
1.0746,5.706874E-05,16.119,0,1.0746,-8.358892E-05,16.119,0
1.0755,3.121996E-05,16.1325,0,1.0755,-1.242084E-05,16.1325,0
1.0764,-1.879912E-05,16.146,0,1.0764,-6.881819E-05,16.146,0
1.0773,1.107805E-05,16.1595,0,1.0773,-0.0001309224,16.1595,0
1.0782,1.577783E-05,16.173,0,1.0782,-0.0001534142,16.173,0
1.0791,1.745632E-05,16.1865,0,1.0791,-0.0001275654,16.1865,0
1.08,4.800488E-05,16.2,0,1.08,-0.0001121233,16.2,0
1.0809,3.390555E-05,16.2135,0,1.0809,-9.164568E-05,16.2135,0
1.0818,9.735256E-06,16.227,0,1.0818,-7.418937E-05,16.227,0
1.0827,2.014191E-06,16.2405,0,1.0827,-2.954147E-05,16.2405,0
1.0836,-1.208515E-05,16.254,0,1.0836,-0.0001003738,16.254,0
1.0845,2.24918E-05,16.2675,0,1.0845,-0.0001618067,16.2675,0
1.0854,7.754635E-05,16.281,0,1.0854,-0.0001013809,16.281,0
1.0863,9.164568E-05,16.2945,0,1.0863,3.793393E-05,16.2945,0
1.0872,3.894102E-05,16.308,0,1.0872,0.0001285725,16.308,0
1.0881,4.196231E-05,16.3215,0,1.0881,0.0001735561,16.3215,0
1.089,-0.0001524071,16.335,0,1.089,0.0001315938,16.335,0
1.0899,-0.0001426719,16.3485,0,1.0899,0.0001420005,16.3485,0
1.0908,-9.332418E-05,16.362,0,1.0908,7.620356E-05,16.362,0
1.0917,-4.028382E-06,16.3755,0,1.0917,1.544213E-05,16.3755,0
1.0926,-2.349889E-05,16.389,0,1.0926,1.040665E-05,16.389,0
1.0935,-3.289845E-05,16.4025,0,1.0935,-3.659113E-05,16.4025,0
1.0944,-3.524834E-05,16.416,0,1.0944,-5.035477E-05,16.416,0
1.0953,-5.404745E-05,16.4295,0,1.0953,-7.620356E-05,16.4295,0
1.0962,-4.162661E-05,16.443,0,1.0962,-5.371176E-05,16.443,0
1.0971,4.46479E-05,16.4565,0,1.0971,3.054856E-05,16.4565,0
1.098,3.659113E-05,16.47,0,1.098,3.927672E-05,16.47,0
1.0989,-9.164568E-05,16.4835,0,1.0989,-5.471885E-05,16.4835,0
1.0998,-6.478981E-05,16.497,0,1.0998,-3.591974E-05,16.497,0
1.1007,-3.591974E-05,16.5105,0,1.1007,-3.726253E-05,16.5105,0
1.1016,-2.719158E-05,16.524,0,1.1016,-3.860533E-05,16.524,0
1.1025,-3.591974E-05,16.5375,0,1.1025,7.251087E-05,16.5375,0
1.1034,1.779202E-05,16.551,0,1.1034,9.231708E-05,16.551,0
1.1043,-2.18204E-05,16.5645,0,1.1043,-2.719158E-05,16.5645,0
1.1052,-4.36408E-06,16.578,0,1.1052,-7.687495E-05,16.578,0
1.1061,3.356985E-07,16.5915,0,1.1061,-3.591974E-05,16.5915,0
1.107,-0.0001517357,16.605,0,1.107,-6.076142E-05,16.605,0
1.1079,-0.0001097734,16.6185,0,1.1079,-8.627451E-05,16.6185,0
1.1088,8.023193E-05,16.632,0,1.1088,-8.661021E-05,16.632,0
1.1097,9.365987E-05,16.6455,0,1.1097,-0.0001033951,16.6455,0
1.1106,4.53193E-05,16.659,0,1.1106,-0.0001514,16.659,0
1.1115,1.947051E-05,16.6725,0,1.1115,-0.0002057832,16.6725,0
1.1124,5.740444E-05,16.686,0,1.1124,-0.0002323034,16.686,0
1.1133,3.424125E-05,16.6995,0,1.1133,-0.0001238727,16.6995,0
1.1142,-1.376364E-05,16.713,0,1.1142,-0.000105745,16.713,0
1.1151,5.438316E-05,16.7265,0,1.1151,-9.735256E-06,16.7265,0
1.116,-3.994812E-05,16.74,0,1.116,0.0001131304,16.74,0
1.1169,-3.894102E-05,16.7535,0,1.1169,5.807584E-05,16.7535,0
1.1178,-4.061952E-05,16.767,0,1.1178,7.284657E-05,16.767,0
1.1187,-0.0001842985,16.7805,0,1.1187,0.0001654994,16.7805,0
1.1196,-0.0001319295,16.794,0,1.1196,0.000197055,16.794,0
1.1205,6.042573E-06,16.8075,0,1.1205,0.0002719158,16.8075,0
1.1214,-2.18204E-05,16.821,0,1.1214,0.0001983978,16.821,0
1.1223,-3.222705E-05,16.8345,0,1.1223,-2.24918E-05,16.8345,0
1.1232,2.987716E-05,16.848,0,1.1232,-2.954147E-05,16.848,0
1.1241,-2.417029E-05,16.8615,0,1.1241,-0.0001168231,16.8615,0
1.125,6.6804E-05,16.875,0,1.125,-0.0002500954,16.875,0
1.1259,7.217517E-05,16.8885,0,1.1259,-0.0002531167,16.8885,0
1.1268,-6.311131E-05,16.902,0,1.1268,-0.0001312581,16.902,0
1.1277,-0.0001386435,16.9155,0,1.1277,-0.0001111162,16.9155,0
1.1286,-3.994812E-05,16.929,0,1.1286,-5.941863E-05,16.929,0
1.1295,0.0002682231,16.9425,0,1.1295,0.0001708705,16.9425,0
1.1304,0.0002534524,16.956,0,1.1304,0.0002809796,16.956,0
1.1313,5.371176E-06,16.9695,0,1.1313,0.0002292821,16.9695,0
1.1322,1.007095E-06,16.983,0,1.1322,0.0001527428,16.983,0
1.1331,-0.0001285725,16.9965,0,1.1331,0.0001252155,16.9965,0
1.134,-0.0001470359,17.01,0,1.134,5.136187E-05,17.01,0
1.1349,-1.779202E-05,17.0235,0,1.1349,-2.18204E-05,17.0235,0
1.1358,-5.035477E-05,17.037,0,1.1358,-0.0001104448,17.037,0
1.1367,-0.0001077592,17.0505,0,1.1367,-0.0001050736,17.0505,0
1.1376,-6.6804E-05,17.064,0,1.1376,-0.0001138018,17.064,0
1.1385,-4.733349E-05,17.0775,0,1.1385,-0.0001248798,17.0775,0
1.1394,-3.356985E-07,17.091,0,1.1394,-7.553216E-05,17.091,0
1.1403,6.042573E-05,17.1045,0,1.1403,4.699779E-05,17.1045,0
1.1412,-1.678492E-05,17.118,0,1.1412,3.155566E-05,17.118,0
1.1421,2.349889E-06,17.1315,0,1.1421,-0.0001245441,17.1315,0
1.143,1.846342E-05,17.145,0,1.143,-8.627451E-05,17.145,0
1.1439,1.678492E-05,17.1585,0,1.1439,-0.0001138018,17.1585,0
1.1448,9.970245E-05,17.172,0,1.1448,-0.0002380102,17.172,0
1.1457,0.0002574807,17.1855,0,1.1457,-0.0002433814,17.1855,0
1.1466,0.0002856794,17.199,0,1.1466,-0.0001305867,17.199,0
1.1475,0.0001107805,17.2125,0,1.1475,-6.176852E-05,17.2125,0
1.1484,1.577783E-05,17.226,0,1.1484,1.678492E-06,17.226,0
1.1493,-0.0001138018,17.2395,0,1.1493,3.121996E-05,17.2395,0
1.1502,-0.0003041428,17.253,0,1.1502,0.0002074617,17.253,0
1.1511,-0.0003511406,17.2665,0,1.1511,0.0001883268,17.2665,0
1.152,-9.433127E-05,17.28,0,1.152,5.236896E-05,17.28,0
1.1529,6.814679E-05,17.2935,0,1.1529,-3.021286E-06,17.2935,0
1.1538,2.652018E-05,17.307,0,1.1538,9.063859E-06,17.307,0
1.1547,8.96315E-05,17.3205,0,1.1547,-2.853437E-05,17.3205,0
1.1556,8.761731E-05,17.334,0,1.1556,-0.0001460288,17.334,0
1.1565,6.713969E-07,17.3475,0,1.1565,-0.0001221943,17.3475,0
1.1574,-9.567407E-05,17.361,0,1.1574,-6.009003E-05,17.361,0
1.1583,-0.0001362936,17.3745,0,1.1583,-8.82887E-05,17.3745,0
1.1592,-0.0001718776,17.388,0,1.1592,9.063859E-06,17.388,0
1.1601,-0.0001003738,17.4015,0,1.1601,-7.016098E-05,17.4015,0
1.161,7.116808E-05,17.415,0,1.161,-0.0002081331,17.415,0
1.1619,2.484169E-05,17.4285,0,1.1619,-0.0002876936,17.4285,0
1.1628,-6.378271E-06,17.442,0,1.1628,-0.0002635233,17.442,0
1.1637,2.786297E-05,17.4555,0,1.1637,-0.0001044022,17.4555,0
1.1646,-1.309224E-05,17.469,0,1.1646,0.0001822843,17.469,0
1.1655,-7.116808E-05,17.4825,0,1.1655,0.0005253681,17.4825,0
1.1664,-6.74754E-05,17.496,0,1.1664,0.0004508431,17.496,0
1.1673,-6.948959E-05,17.5095,0,1.1673,0.0002514381,17.5095,0
1.1682,-0.0001064164,17.523,0,1.1682,0.0001420005,17.523,0
1.1691,-6.009003E-05,17.5365,0,1.1691,1.544213E-05,17.5365,0
1.17,3.356985E-06,17.55,0,1.17,3.323415E-05,17.55,0
1.1709,3.961242E-05,17.5635,0,1.1709,8.392462E-06,17.5635,0
1.1718,9.231708E-05,17.577,0,1.1718,-0.000123537,17.577,0
1.1727,0.0001775845,17.5905,0,1.1727,-0.0001775845,17.5905,0
1.1736,0.0001030594,17.604,0,1.1736,-0.0001943694,17.604,0
1.1745,0.0001141375,17.6175,0,1.1745,-0.0001990692,17.6175,0
1.1754,0.0001111162,17.631,0,1.1754,-0.0001591211,17.631,0
1.1763,0.000105745,17.6445,0,1.1763,-7.351797E-05,17.6445,0
1.1772,8.426032E-05,17.658,0,1.1772,-3.692683E-06,17.658,0
1.1781,2.786297E-05,17.6715,0,1.1781,0.0001174945,17.6715,0
1.179,3.726253E-05,17.685,0,1.179,0.0001705348,17.685,0
1.1799,1.007095E-06,17.6985,0,1.1799,6.948959E-05,17.6985,0
1.1808,2.1149E-05,17.712,0,1.1808,2.417029E-05,17.712,0
1.1817,1.678492E-06,17.7255,0,1.1817,-7.351797E-05,17.7255,0
1.1826,0,17.739,0,1.1826,-0.0001332723,17.739,0
1.1835,-4.46479E-05,17.7525,0,1.1835,-5.505455E-05,17.7525,0
1.1844,-0.0001785916,17.766,0,1.1844,-4.33051E-05,17.766,0
1.1853,-0.0002121614,17.7795,0,1.1853,-0.0001104448,17.7795,0
1.1862,-4.733349E-05,17.793,0,1.1862,-0.0001460288,17.793,0
1.1871,-2.316319E-05,17.8065,0,1.1871,-2.719158E-05,17.8065,0
1.188,-7.150377E-05,17.82,0,1.188,8.392462E-06,17.82,0
1.1889,-8.661021E-05,17.8335,0,1.1889,-3.524834E-05,17.8335,0
1.1898,-4.968337E-05,17.847,0,1.1898,-5.572595E-05,17.847,0
1.1907,-1.107805E-05,17.8605,0,1.1907,6.042573E-06,17.8605,0
1.1916,-4.901198E-05,17.874,0,1.1916,7.721065E-06,17.874,0
1.1925,9.735256E-06,17.8875,0,1.1925,-7.150377E-05,17.8875,0
1.1934,1.678492E-05,17.901,0,1.1934,-9.701686E-05,17.901,0
1.1943,-7.888914E-05,17.9145,0,1.1943,-2.24918E-05,17.9145,0
1.1952,-8.191043E-05,17.928,0,1.1952,2.014191E-06,17.928,0
1.1961,3.927672E-05,17.9415,0,1.1961,-3.994812E-05,17.9415,0
1.197,0.0002265965,17.955,0,1.197,6.210422E-05,17.955,0
1.1979,0.000285008,17.9685,0,1.1979,8.258183E-05,17.9685,0
1.1988,0.0001252155,17.982,0,1.1988,-1.577783E-05,17.982,0
1.1997,1.141375E-05,17.9955,0,1.1997,-1.510643E-05,17.9955,0
1.2006,4.53193E-05,18.009,0,1.2006,6.042573E-06,18.009,0
1.2015,8.69459E-05,18.0225,0,1.2015,-9.030289E-05,18.0225,0
1.2024,-4.36408E-06,18.036,0,1.2024,-0.0001819486,18.036,0
1.2033,-5.706874E-06,18.0495,0,1.2033,-0.0002276036,18.0495,0
1.2042,-1.510643E-05,18.063,0,1.2042,-0.0002487526,18.063,0
1.2051,-4.901198E-05,18.0765,0,1.2051,-0.0002289464,18.0765,0
1.206,-6.6804E-05,18.09,0,1.206,-0.0002688945,18.09,0
1.2069,-0.0001044022,18.1035,0,1.2069,-0.0001151446,18.1035,0
1.2078,1.477073E-05,18.117,0,1.2078,0.0001339437,18.117,0
1.2087,-8.92958E-05,18.1305,0,1.2087,0.0002594949,18.1305,0
1.2096,-0.0001601282,18.144,0,1.2096,0.0002047761,18.144,0
1.2105,-4.43122E-05,18.1575,0,1.2105,0.0001658351,18.1575,0
1.2114,-7.284657E-05,18.171,0,1.2114,7.855344E-05,18.171,0
1.2123,5.136187E-05,18.1845,0,1.2123,4.599069E-05,18.1845,0
1.2132,1.577783E-05,18.198,0,1.2132,0.000158114,18.198,0
1.2141,-0.0001681849,18.2115,0,1.2141,0.0002373388,18.2115,0
1.215,-0.0001379721,18.225,0,1.215,0.0002386816,18.225,0
1.2159,-6.61326E-05,18.2385,0,1.2159,0.0002145113,18.2385,0
1.2168,-0.0001628138,18.252,0,1.2168,2.1149E-05,18.252,0
1.2177,-0.0001426719,18.2655,0,1.2177,-3.927672E-05,18.2655,0
1.2186,-0.0001470359,18.279,0,1.2186,-6.009003E-05,18.279,0
1.2195,-0.0001104448,18.2925,0,1.2195,-8.82887E-05,18.2925,0
1.2204,-6.344701E-05,18.306,0,1.2204,-6.344701E-05,18.306,0
1.2213,-1.107805E-05,18.3195,0,1.2213,0.0001131304,18.3195,0
1.2222,1.040665E-05,18.333,0,1.2222,0.000102388,18.333,0
1.2231,6.277562E-05,18.3465,0,1.2231,-9.500267E-05,18.3465,0
1.224,0.0001104448,18.36,0,1.224,-9.735256E-06,18.36,0
1.2249,0.0002440528,18.3735,0,1.2249,1.577783E-05,18.3735,0
1.2258,0.000197055,18.387,0,1.2258,-4.196231E-05,18.387,0
1.2267,6.344701E-05,18.4005,0,1.2267,-4.599069E-05,18.4005,0
1.2276,4.43122E-05,18.414,0,1.2276,-7.553216E-05,18.414,0
1.2285,-5.001907E-05,18.4275,0,1.2285,-0.0001279011,18.4275,0
1.2294,-0.000102388,18.441,0,1.2294,-0.0001853056,18.441,0
1.2303,-0.0001094377,18.4545,0,1.2303,-0.0002081331,18.4545,0
1.2312,5.740444E-05,18.468,0,1.2312,-0.000175906,18.468,0
1.2321,8.023193E-05,18.4815,0,1.2321,-0.0001185016,18.4815,0
1.233,2.517739E-05,18.495,0,1.233,-4.095522E-05,18.495,0
1.2339,3.692683E-06,18.5085,0,1.2339,-2.18204E-05,18.5085,0
1.2348,-2.383459E-05,18.522,0,1.2348,-5.706874E-06,18.522,0
1.2357,-8.157473E-05,18.5355,0,1.2357,-4.36408E-06,18.5355,0
1.2366,-6.78111E-05,18.549,0,1.2366,-2.24918E-05,18.549,0
1.2375,-8.291753E-05,18.5625,0,1.2375,2.316319E-05,18.5625,0
1.2384,6.378271E-06,18.576,0,1.2384,6.948959E-05,18.576,0
1.2393,8.258183E-05,18.5895,0,1.2393,1.544213E-05,18.5895,0
1.2402,0.0001443503,18.603,0,1.2402,-7.721065E-06,18.603,0
1.2411,0.0001738918,18.6165,0,1.2411,3.021286E-06,18.6165,0
1.242,0.0001930266,18.63,0,1.242,-2.719158E-05,18.63,0
1.2429,0.0002064546,18.6435,0,1.2429,-2.987716E-05,18.6435,0
1.2438,9.903105E-05,18.657,0,1.2438,-3.826963E-05,18.657,0
1.2447,3.021286E-05,18.6705,0,1.2447,9.063859E-06,18.6705,0
1.2456,-2.786297E-05,18.684,0,1.2456,-3.558404E-05,18.684,0
1.2465,-0.0001409934,18.6975,0,1.2465,-8.996719E-05,18.6975,0
1.2474,-0.0001997406,18.711,0,1.2474,-9.500267E-05,18.711,0
1.2483,-0.0001309224,18.7245,0,1.2483,-3.591974E-05,18.7245,0
1.2492,-0.0001856413,18.738,0,1.2492,-4.733349E-05,18.738,0
1.2501,-8.123904E-05,18.7515,0,1.2501,-9.701686E-05,18.7515,0
1.251,-2.349889E-06,18.765,0,1.251,-3.323415E-05,18.765,0
1.2519,6.143282E-05,18.7785,0,1.2519,-8.728161E-06,18.7785,0
1.2528,7.888914E-05,18.792,0,1.2528,-0.0001161517,18.792,0
1.2537,5.069047E-05,18.8055,0,1.2537,-0.0001926909,18.8055,0
1.2546,-5.874724E-05,18.819,0,1.2546,-0.0001785916,18.819,0
1.2555,-0.0001205158,18.8325,0,1.2555,-0.0001883268,18.8325,0
1.2564,6.176852E-05,18.846,0,1.2564,-0.0001453574,18.846,0
1.2573,0.0002222324,18.8595,0,1.2573,-4.29694E-05,18.8595,0
1.2582,0.0001685206,18.873,0,1.2582,0.0001386435,18.873,0
1.2591,4.666209E-05,18.8865,0,1.2591,0.0002873579,18.8865,0
1.26,-4.46479E-05,18.9,0,1.26,0.0002326391,18.9,0
1.2609,-0.0002437171,18.9135,0,1.2609,4.565499E-05,18.9135,0
1.2618,-0.0003420768,18.927,0,1.2618,3.457694E-05,18.927,0
1.2627,-0.0001188373,18.9405,0,1.2627,2.349889E-06,18.9405,0
1.2636,-7.150377E-05,18.954,0,1.2636,-7.284657E-05,18.954,0
1.2645,-3.659113E-05,18.9675,0,1.2645,3.726253E-05,18.9675,0
1.2654,1.007095E-05,18.981,0,1.2654,4.800488E-05,18.981,0
1.2663,-1.342794E-06,18.9945,0,1.2663,-2.887007E-05,18.9945,0
1.2672,-2.383459E-05,19.008,0,1.2672,4.39765E-05,19.008,0
1.2681,-2.853437E-05,19.0215,0,1.2681,7.553216E-05,19.0215,0
1.269,8.224613E-05,19.035,0,1.269,5.102617E-05,19.035,0
1.2699,0.000109102,19.0485,0,1.2699,2.719158E-05,19.0485,0
1.2708,5.841154E-05,19.062,0,1.2708,-5.740444E-05,19.062,0
1.2717,0.0001111162,19.0755,0,1.2717,-5.337606E-05,19.0755,0
1.2726,1.477073E-05,19.089,0,1.2726,-5.035477E-06,19.089,0
1.2735,-0.0001359579,19.1025,0,1.2735,-0.0001044022,19.1025,0
1.2744,-0.0001104448,19.116,0,1.2744,-0.0001748989,19.116,0
1.2753,-5.740444E-05,19.1295,0,1.2753,-0.0001077592,19.1295,0
1.2762,-8.392462E-06,19.143,0,1.2762,-0.000112459,19.143,0
1.2771,0.0001013809,19.1565,0,1.2771,4.028382E-06,19.1565,0
1.278,0.0001319295,19.17,0,1.278,3.021286E-05,19.17,0
1.2789,-3.356985E-07,19.1835,0,1.2789,3.021286E-06,19.1835,0
1.2798,2.18204E-05,19.197,0,1.2798,1.846342E-05,19.197,0
1.2807,8.96315E-05,19.2105,0,1.2807,0.0001779202,19.2105,0
1.2816,-4.129091E-05,19.224,0,1.2816,0.0001661708,19.224,0
1.2825,-2.047761E-05,19.2375,0,1.2825,-7.721065E-06,19.2375,0
1.2834,7.888914E-05,19.251,0,1.2834,-2.484169E-05,19.251,0
1.2843,8.157473E-05,19.2645,0,1.2843,-5.169757E-05,19.2645,0
1.2852,7.418937E-05,19.278,0,1.2852,-3.826963E-05,19.278,0
1.2861,0.0001349508,19.2915,0,1.2861,-5.941863E-05,19.2915,0
1.287,0.0002695659,19.305,0,1.287,-0.0001376364,19.305,0
1.2879,0.0001248798,19.3185,0,1.2879,-0.0001839628,19.3185,0
1.2888,-3.994812E-05,19.332,0,1.2888,-0.0001151446,19.332,0
1.2897,-0.0001735561,19.3455,0,1.2897,-0.0001460288,19.3455,0
1.2906,-0.0001030594,19.359,0,1.2906,-8.123904E-05,19.359,0
1.2915,-7.486076E-05,19.3725,0,1.2915,7.553216E-05,19.3725,0
1.2924,-0.0001349508,19.386,0,1.2924,0.0002306248,19.386,0
1.2933,-0.0002074617,19.3995,0,1.2933,0.0002521096,19.3995,0
1.2942,-0.0001923552,19.413,0,1.2942,0.0001144732,19.413,0
1.2951,-0.0002682231,19.4265,0,1.2951,4.867628E-05,19.4265,0
1.296,-0.0001188373,19.44,0,1.296,9.063859E-06,19.44,0
1.2969,2.349889E-05,19.4535,0,1.2969,-4.39765E-05,19.4535,0
1.2978,4.901198E-05,19.467,0,1.2978,-8.69459E-05,19.467,0
1.2987,2.853437E-05,19.4805,0,1.2987,-1.846342E-05,19.4805,0
1.2996,-3.323415E-05,19.494,0,1.2996,-1.007095E-06,19.494,0
1.3005,-1.644922E-05,19.5075,0,1.3005,-7.217517E-05,19.5075,0
1.3014,-7.956054E-05,19.521,0,1.3014,-0.0001651637,19.521,0
1.3023,-7.183947E-05,19.5345,0,1.3023,-9.164568E-05,19.5345,0
1.3032,-3.189136E-05,19.548,0,1.3032,-8.89601E-05,19.548,0
1.3041,1.980621E-05,19.5615,0,1.3041,-0.0001221943,19.5615,0
1.305,0.0002279393,19.575,0,1.305,-2.316319E-05,19.575,0
1.3059,0.000288365,19.5885,0,1.3059,2.081331E-05,19.5885,0
1.3068,0.0001326009,19.602,0,1.3068,-1.107805E-05,19.602,0
1.3077,1.040665E-05,19.6155,0,1.3077,-3.021286E-06,19.6155,0
1.3086,-0.0001211871,19.629,0,1.3086,4.46479E-05,19.629,0
1.3095,-0.000348455,19.6425,0,1.3095,3.323415E-05,19.6425,0
1.3104,-0.0002007477,19.656,0,1.3104,3.961242E-05,19.656,0
1.3113,-3.021286E-06,19.6695,0,1.3113,-3.994812E-05,19.6695,0
1.3122,7.956054E-05,19.683,0,1.3122,-1.745632E-05,19.683,0
1.3131,6.109713E-05,19.6965,0,1.3131,1.040665E-05,19.6965,0
1.314,2.752728E-05,19.71,0,1.314,-3.121996E-05,19.71,0
1.3149,-1.678492E-06,19.7235,0,1.3149,-4.46479E-05,19.7235,0
1.3158,-0.0001121233,19.737,0,1.3158,-5.035477E-06,19.737,0
1.3167,-9.835965E-05,19.7505,0,1.3167,-2.28275E-05,19.7505,0
1.3176,-8.392462E-06,19.764,0,1.3176,-6.076142E-05,19.764,0
1.3185,4.46479E-05,19.7775,0,1.3185,3.155566E-05,19.7775,0
1.3194,8.392462E-05,19.791,0,1.3194,7.721065E-06,19.791,0
1.3203,3.591974E-05,19.8045,0,1.3203,-0.0001077592,19.8045,0
1.3212,9.634547E-05,19.818,0,1.3212,-8.996719E-05,19.818,0
1.3221,6.948959E-05,19.8315,0,1.3221,-7.150377E-05,19.8315,0
1.323,8.560311E-05,19.845,0,1.323,-7.821774E-05,19.845,0
1.3239,0.000158114,19.8585,0,1.3239,-0.0001289082,19.8585,0
1.3248,0.0001574426,19.872,0,1.3248,-0.0002692302,19.872,0
1.3257,0.0001040665,19.8855,0,1.3257,-0.0002970932,19.8855,0
1.3266,1.544213E-05,19.899,0,1.3266,-0.0002786297,19.899,0
1.3275,3.189136E-05,19.9125,0,1.3275,-0.000291722,19.9125,0
1.3284,-3.726253E-05,19.926,0,1.3284,-0.0001453574,19.926,0
1.3293,0,19.9395,0,1.3293,0.0001923552,19.9395,0
1.3302,-9.433127E-05,19.953,0,1.3302,0.0004387579,19.953,0
1.3311,-0.0001651637,19.9665,0,1.3311,0.0004625925,19.9665,0
1.332,-0.0002212253,19.98,0,1.332,0.0004307012,19.98,0
1.3329,-0.0001238727,19.9935,0,1.3329,0.0003205921,19.9935,0
1.3338,-5.941863E-05,20.007,0,1.3338,0.0001467002,20.007,0
1.3347,-5.706874E-06,20.0205,0,1.3347,8.89601E-05,20.0205,0
1.3356,4.229801E-05,20.034,0,1.3356,8.023193E-05,20.034,0
1.3365,-1.913481E-05,20.0475,0,1.3365,1.309224E-05,20.0475,0
1.3374,-2.014191E-06,20.061,0,1.3374,-3.457694E-05,20.061,0
1.3383,0.0001003738,20.0745,0,1.3383,-0.0001208515,20.0745,0
1.3392,-6.378271E-06,20.088,0,1.3392,-0.000102388,20.088,0
1.3401,-0.0001379721,20.1015,0,1.3401,-0.0001000381,20.1015,0
1.341,-0.0001315938,20.115,0,1.341,-0.0002104829,20.115,0
1.3419,-4.733349E-05,20.1285,0,1.3419,-0.0002517739,20.1285,0
1.3428,-2.24918E-05,20.142,0,1.3428,-0.0001503929,20.142,0
1.3437,-1.947051E-05,20.1555,0,1.3437,-4.867628E-05,20.1555,0
1.3446,1.644922E-05,20.169,0,1.3446,-2.786297E-05,20.169,0
1.3455,-3.256275E-05,20.1825,0,1.3455,6.076142E-05,20.1825,0
1.3464,-3.793393E-05,20.196,0,1.3464,0.000154757,20.196,0
1.3473,9.634547E-05,20.2095,0,1.3473,4.901198E-05,20.2095,0
1.3482,0.0001299153,20.223,0,1.3482,-7.956054E-05,20.223,0
1.3491,5.539025E-05,20.2365,0,1.3491,-6.51255E-05,20.2365,0
1.35,-3.256275E-05,20.25,0,1.35,-9.533837E-05,20.25,0
1.3509,-6.109713E-05,20.2635,0,1.3509,-9.567407E-05,20.2635,0
1.3518,-0.0001470359,20.277,0,1.3518,-7.754635E-05,20.277,0
1.3527,-4.800488E-05,20.2905,0,1.3527,-3.356985E-06,20.2905,0
1.3536,4.263371E-05,20.304,0,1.3536,3.121996E-05,20.304,0
1.3545,2.28275E-05,20.3175,0,1.3545,4.061952E-05,20.3175,0
1.3554,3.457694E-05,20.331,0,1.3554,3.994812E-05,20.331,0
1.3563,-8.392462E-06,20.3445,0,1.3563,5.438316E-05,20.3445,0
1.3572,-3.121996E-05,20.358,0,1.3572,-1.275654E-05,20.358,0
1.3581,-8.157473E-05,20.3715,0,1.3581,-7.956054E-05,20.3715,0
1.359,-9.903105E-05,20.385,0,1.359,-3.860533E-05,20.385,0
1.3599,-5.841154E-05,20.3985,0,1.3599,-4.129091E-05,20.3985,0
1.3608,5.035477E-06,20.412,0,1.3608,-9.433127E-05,20.412,0
1.3617,5.505455E-05,20.4255,0,1.3617,-7.653925E-05,20.4255,0
1.3626,7.687495E-05,20.439,0,1.3626,-3.390555E-05,20.439,0
1.3635,8.123904E-05,20.4525,0,1.3635,-7.956054E-05,20.4525,0
1.3644,0.0001406577,20.466,0,1.3644,-0.0001168231,20.466,0
1.3653,0.0001483787,20.4795,0,1.3653,-0.0002111543,20.4795,0
1.3662,1.107805E-05,20.493,0,1.3662,-0.0002074617,20.493,0
1.3671,-7.351797E-05,20.5065,0,1.3671,-0.0001319295,20.5065,0
1.368,-5.069047E-05,20.52,0,1.368,-5.941863E-05,20.52,0
1.3689,-1.712062E-05,20.5335,0,1.3689,-1.913481E-05,20.5335,0
1.3698,-9.365987E-05,20.547,0,1.3698,7.486076E-05,20.547,0
1.3707,-3.826963E-05,20.5605,0,1.3707,0.000218204,20.5605,0
1.3716,0.0001816129,20.574,0,1.3716,0.0001554284,20.574,0
1.3725,0.0004723278,20.5875,0,1.3725,0.0001628138,20.5875,0
1.3734,0.0004058595,20.601,0,1.3734,4.800488E-05,20.601,0
1.3743,3.692683E-05,20.6145,0,1.3743,-0.0001564355,20.6145,0
1.3752,-4.33051E-05,20.628,0,1.3752,-0.0001624781,20.628,0
1.3761,-0.0001493858,20.6415,0,1.3761,-0.0001433432,20.6415,0
1.377,-0.0004719921,20.655,0,1.377,-0.0001047379,20.655,0
1.3779,-0.0004599069,20.6685,0,1.3779,3.356985E-07,20.6685,0
1.3788,-0.0001077592,20.682,0,1.3788,0.0002185397,20.682,0
1.3797,-3.826963E-05,20.6955,0,1.3797,0.000164828,20.6955,0
1.3806,2.752728E-05,20.709,0,1.3806,-6.411841E-05,20.709,0
1.3815,0.0002306248,20.7225,0,1.3815,-0.0001426719,20.7225,0
1.3824,0.000327306,20.736,0,1.3824,-5.975433E-05,20.736,0
1.3833,0.0001500572,20.7495,0,1.3833,4.49836E-05,20.7495,0
1.3842,-2.21561E-05,20.763,0,1.3842,3.289845E-05,20.763,0
1.3851,-0.0001802701,20.7765,0,1.3851,2.014191E-06,20.7765,0
1.386,-0.0003773251,20.79,0,1.386,0.0001712062,20.79,0
1.3869,-0.0004065309,20.8035,0,1.3869,0.0002084688,20.8035,0
1.3878,-0.0001738918,20.817,0,1.3878,7.016098E-05,20.817,0
1.3887,-0.0001379721,20.8305,0,1.3887,5.740444E-05,20.8305,0
1.3896,-6.344701E-05,20.844,0,1.3896,1.812772E-05,20.844,0
1.3905,8.82887E-05,20.8575,0,1.3905,-2.920577E-05,20.8575,0
1.3914,0.000172549,20.871,0,1.3914,-4.867628E-05,20.871,0
1.3923,0.0001654994,20.8845,0,1.3923,-0.0001453574,20.8845,0
1.3932,8.560311E-05,20.898,0,1.3932,-0.0001443503,20.898,0
1.3941,-4.46479E-05,20.9115,0,1.3941,-7.217517E-05,20.9115,0
1.395,-0.0001594568,20.925,0,1.395,-0.0001258869,20.925,0
1.3959,-0.0001577783,20.9385,0,1.3959,-0.0001060807,20.9385,0
1.3968,-0.0001017166,20.952,0,1.3968,6.54612E-05,20.952,0
1.3977,2.1149E-05,20.9655,0,1.3977,7.183947E-05,20.9655,0
1.3986,0.0001802701,20.979,0,1.3986,-2.349889E-06,20.979,0
1.3995,0.000235996,20.9925,0,1.3995,-2.584878E-05,20.9925,0
1.4004,0.0004468147,21.006,0,1.4004,-0.0001467002,21.006,0
1.4013,0.0005763943,21.0195,0,1.4013,-0.000249424,21.0195,0
1.4022,0.0004401007,21.033,0,1.4022,-0.0002165255,21.033,0
1.4031,0.0001789273,21.0465,0,1.4031,-0.0001074235,21.0465,0
1.404,-8.795301E-05,21.06,0,1.404,1.577783E-05,21.06,0
1.4049,-0.000341741,21.0735,0,1.4049,0.0001218585,21.0735,0
1.4058,-0.0008113832,21.087,0,1.4058,7.989624E-05,21.087,0
1.4067,-0.0007237659,21.1005,0,1.4067,0.0001084306,21.1005,0
1.4076,-0.0003236133,21.114,0,1.4076,0.0001148089,21.114,0
1.4085,-9.970245E-05,21.1275,0,1.4085,8.426032E-05,21.1275,0
1.4094,-5.941863E-05,21.141,0,1.4094,2.21561E-05,21.141,0
1.4103,-2.484169E-05,21.1545,0,1.4103,4.49836E-05,21.1545,0
1.4112,2.24918E-05,21.168,0,1.4112,-1.007095E-06,21.168,0
1.4121,7.721065E-06,21.1815,0,1.4121,-0.0001030594,21.1815,0
1.413,3.524834E-05,21.195,0,1.413,-2.719158E-05,21.195,0
1.4139,1.980621E-05,21.2085,0,1.4139,-3.356985E-07,21.2085,0
1.4148,-2.18204E-05,21.222,0,1.4148,-8.96315E-05,21.222,0
1.4157,3.256275E-05,21.2355,0,1.4157,-0.0001107805,21.2355,0
1.4166,8.560311E-05,21.249,0,1.4166,-0.0001292439,21.249,0
1.4175,0.0001849699,21.2625,0,1.4175,-0.0001591211,21.2625,0
1.4184,0.0002420386,21.276,0,1.4184,-0.0001238727,21.276,0
1.4193,0.0002410315,21.2895,0,1.4193,-0.000102388,21.2895,0
1.4202,0.0001789273,21.303,0,1.4202,-4.33051E-05,21.303,0
1.4211,0.0001782559,21.3165,0,1.4211,2.719158E-05,21.3165,0
1.422,6.243992E-05,21.33,0,1.422,-0.000105745,21.33,0
1.4229,-0.0001131304,21.3435,0,1.4229,-0.0002057832,21.3435,0
1.4238,-0.0001567712,21.357,0,1.4238,-0.0001101091,21.357,0
1.4247,-6.478981E-05,21.3705,0,1.4247,5.136187E-05,21.3705,0
1.4256,6.042573E-06,21.384,0,1.4256,4.43122E-05,21.384,0
1.4265,9.567407E-05,21.3975,0,1.4265,7.956054E-05,21.3975,0
1.4274,0.0001483787,21.411,0,1.4274,0.0001775845,21.411,0
1.4283,5.337606E-05,21.4245,0,1.4283,7.150377E-05,21.4245,0
1.4292,-2.484169E-05,21.438,0,1.4292,-9.399558E-06,21.438,0
1.4301,-0.0001144732,21.4515,0,1.4301,1.846342E-05,21.4515,0
1.431,-0.0002098116,21.465,0,1.431,1.913481E-05,21.465,0
1.4319,-0.0001765774,21.4785,0,1.4319,0.0001218585,21.4785,0
1.4328,-6.143282E-05,21.492,0,1.4328,0.0001440146,21.492,0
1.4337,1.242084E-05,21.5055,0,1.4337,0.0001000381,21.5055,0
1.4346,6.378271E-06,21.519,0,1.4346,0.0001144732,21.519,0
1.4355,-6.042573E-06,21.5325,0,1.4355,9.198138E-05,21.5325,0
1.4364,-1.577783E-05,21.546,0,1.4364,2.853437E-05,21.546,0
1.4373,-1.846342E-05,21.5595,0,1.4373,7.385367E-06,21.5595,0
1.4382,-4.934768E-05,21.573,0,1.4382,-0.0002138399,21.573,0
1.4391,-3.289845E-05,21.5865,0,1.4391,-0.0004155947,21.5865,0
1.44,7.721065E-06,21.6,0,1.44,-0.0003299916,21.6,0
1.4409,-1.846342E-05,21.6135,0,1.4409,-0.0002161898,21.6135,0
1.4418,-2.24918E-05,21.627,0,1.4418,-0.000161471,21.627,0
1.4427,-2.551309E-05,21.6405,0,1.4427,5.606165E-05,21.6405,0
1.4436,4.733349E-05,21.654,0,1.4436,0.0004441291,21.654,0
1.4445,3.021286E-06,21.6675,0,1.4445,0.0004897841,21.6675,0
1.4454,-2.081331E-05,21.681,0,1.4454,0.0002010834,21.681,0
1.4463,2.887007E-05,21.6945,0,1.4463,1.678492E-06,21.6945,0
1.4472,8.728161E-06,21.708,0,1.4472,-1.745632E-05,21.708,0
1.4481,3.021286E-06,21.7215,0,1.4481,-9.063859E-06,21.7215,0
1.449,0.0001097734,21.735,0,1.449,-3.424125E-05,21.735,0
1.4499,0.0001436789,21.7485,0,1.4499,-7.687495E-05,21.7485,0
1.4508,0.0001010452,21.762,0,1.4508,-2.316319E-05,21.762,0
1.4517,0.0001607996,21.7755,0,1.4517,-6.277562E-05,21.7755,0
1.4526,0.0001440146,21.789,0,1.4526,-0.0001923552,21.789,0
1.4535,5.371176E-06,21.8025,0,1.4535,-0.0002756084,21.8025,0
1.4544,2.652018E-05,21.816,0,1.4544,-0.0003635614,21.816,0
1.4553,9.500267E-05,21.8295,0,1.4553,-0.0003850462,21.8295,0
1.4562,-0.0001148089,21.843,0,1.4562,-0.0002061189,21.843,0
1.4571,-0.0003054856,21.8565,0,1.4571,1.174945E-05,21.8565,0
1.458,-0.0002192111,21.87,0,1.458,0.0002695659,21.87,0
1.4589,-8.123904E-05,21.8835,0,1.4589,0.0004723278,21.8835,0
1.4598,2.349889E-05,21.897,0,1.4598,0.0001977264,21.897,0
1.4607,-1.712062E-05,21.9105,0,1.4607,6.54612E-05,21.9105,0
1.4616,3.994812E-05,21.924,0,1.4616,4.196231E-05,21.924,0
1.4625,7.486076E-05,21.9375,0,1.4625,-2.316319E-05,21.9375,0
1.4634,-8.224613E-05,21.951,0,1.4634,-8.459602E-05,21.951,0
1.4643,-0.0001342794,21.9645,0,1.4643,-1.745632E-05,21.9645,0
1.4652,-0.0001836271,21.978,0,1.4652,-2.21561E-05,21.978,0
1.4661,2.752728E-05,21.9915,0,1.4661,-9.097429E-05,21.9915,0
1.467,0.0001534142,22.005,0,1.467,-1.309224E-05,22.005,0
1.4679,-9.063859E-06,22.0185,0,1.4679,-0.0001628138,22.0185,0
1.4688,5.270466E-05,22.032,0,1.4688,-0.0002772869,22.032,0
1.4697,3.189136E-05,22.0455,0,1.4697,-0.0002756084,22.0455,0
1.4706,-5.337606E-05,22.059,0,1.4706,-0.0002034333,22.059,0
1.4715,-7.016098E-05,22.0725,0,1.4715,-6.076142E-05,22.0725,0
1.4724,-3.524834E-05,22.086,0,1.4724,7.016098E-05,22.086,0
1.4733,-0.0001154803,22.0995,0,1.4733,0.0001453574,22.0995,0
1.4742,-0.0002658732,22.113,0,1.4742,0.0001701991,22.113,0
1.4751,-0.0002588235,22.1265,0,1.4751,0.000112459,22.1265,0
1.476,-0.00018262,22.14,0,1.476,0.0001299153,22.14,0
1.4769,-4.229801E-05,22.1535,0,1.4769,0.0001017166,22.1535,0
1.4778,6.411841E-05,22.167,0,1.4778,0.000102388,22.167,0
1.4787,0.0001174945,22.1805,0,1.4787,1.007095E-06,22.1805,0
1.4796,0.0001164874,22.194,0,1.4796,-0.0001282368,22.194,0
1.4805,1.376364E-05,22.2075,0,1.4805,-5.471885E-05,22.2075,0
1.4814,6.243992E-05,22.221,0,1.4814,-1.611353E-05,22.221,0
1.4823,9.802396E-05,22.2345,0,1.4823,-6.378271E-05,22.2345,0
1.4832,7.989624E-05,22.248,0,1.4832,-2.081331E-05,22.248,0
1.4841,6.277562E-05,22.2615,0,1.4841,9.298848E-05,22.2615,0
1.485,3.860533E-05,22.275,0,1.485,0.0001564355,22.275,0
1.4859,0.0001795987,22.2885,0,1.4859,4.901198E-05,22.2885,0
1.4868,0.0002077974,22.302,0,1.4868,-0.0001017166,22.302,0
1.4877,5.203327E-05,22.3155,0,1.4877,-8.191043E-05,22.3155,0
1.4886,3.692683E-06,22.329,0,1.4886,-0.0001131304,22.329,0
1.4895,0.0001178302,22.3425,0,1.4895,-0.0001930266,22.3425,0
1.4904,0.0002178683,22.356,0,1.4904,-0.0002665446,22.356,0
1.4913,0.0001641566,22.3695,0,1.4913,-0.0002497597,22.3695,0
1.4922,0.0002111543,22.383,0,1.4922,-0.0002198825,22.383,0
1.4931,4.061952E-05,22.3965,0,1.4931,-0.0001228656,22.3965,0
1.494,-0.0004518502,22.41,0,1.494,9.298848E-05,22.41,0
1.4949,-0.0006186923,22.4235,0,1.4949,0.0001386435,22.4235,0
1.4958,-0.0002732586,22.437,0,1.4958,0.0001601282,22.437,0
1.4967,-0.0002474098,22.4505,0,1.4967,0.0002353246,22.4505,0
1.4976,-0.0001718776,22.464,0,1.4976,0.000197055,22.464,0
1.4985,-4.36408E-06,22.4775,0,1.4985,7.620356E-05,22.4775,0
1.4994,4.129091E-05,22.491,0,1.4994,0.0001171588,22.491,0
1.5003,3.155566E-05,22.5045,0,1.5003,5.035477E-06,22.5045,0
1.5012,3.927672E-05,22.518,0,1.5012,-2.316319E-05,22.518,0
1.5021,9.634547E-05,22.5315,0,1.5021,-0.0001453574,22.5315,0
1.503,6.277562E-05,22.545,0,1.503,-0.0003880674,22.545,0
1.5039,8.72816E-05,22.5585,0,1.5039,-0.0005089189,22.5585,0
1.5048,0.0001097734,22.572,0,1.5048,-0.0004112306,22.572,0
1.5057,-4.36408E-06,22.5855,0,1.5057,-0.0001806058,22.5855,0
1.5066,-0.0001111162,22.599,0,1.5066,-1.644922E-05,22.599,0
1.5075,-0.000197055,22.6125,0,1.5075,0.0003635614,22.6125,0
1.5084,-0.0001161517,22.626,0,1.5084,0.0004132448,22.626,0
1.5093,-0.0001248798,22.6395,0,1.5093,0.0003333486,22.6395,0
1.5102,-9.634547E-05,22.653,0,1.5102,0.0002897078,22.653,0
1.5111,5.874724E-05,22.6665,0,1.5111,0.0001712062,22.6665,0
1.512,0.0001715419,22.68,0,1.512,4.666209E-05,22.68,0
1.5129,0.0001258869,22.6935,0,1.5129,-1.007095E-05,22.6935,0
1.5138,6.54612E-05,22.707,0,1.5138,-6.344701E-05,22.707,0
1.5147,4.061952E-05,22.7205,0,1.5147,-0.0001252155,22.7205,0
1.5156,0.0001138018,22.734,0,1.5156,-0.0001916838,22.734,0
1.5165,0.0001926909,22.7475,0,1.5165,-0.0002329748,22.7475,0
1.5174,0.0001983978,22.761,0,1.5174,-0.0002178683,22.761,0
1.5183,0.0001849699,22.7745,0,1.5183,-7.956054E-05,22.7745,0
1.5192,5.035477E-05,22.788,0,1.5192,-5.371176E-06,22.788,0
1.5201,1.443504E-05,22.8015,0,1.5201,1.342794E-05,22.8015,0
1.521,0.0001339437,22.815,0,1.521,0.000148043,22.815,0
1.5219,0.0001228656,22.8285,0,1.5219,0.0002286107,22.8285,0
1.5228,-1.107805E-05,22.842,0,1.5228,0.0001359579,22.842,0
1.5237,-0.0001319295,22.8555,0,1.5237,4.229801E-05,22.8555,0
1.5246,1.644922E-05,22.869,0,1.5246,1.913481E-05,22.869,0
1.5255,4.766919E-05,22.8825,0,1.5255,6.713969E-06,22.8825,0
1.5264,-0.0001782559,22.896,0,1.5264,-2.383459E-05,22.896,0
1.5273,-0.0001537499,22.9095,0,1.5273,-8.493171E-05,22.9095,0
1.5282,-8.627451E-05,22.923,0,1.5282,-5.404745E-05,22.923,0
1.5291,-0.0002380102,22.9365,0,1.5291,-4.36408E-05,22.9365,0
1.53,2.28275E-05,22.95,0,1.53,-6.478981E-05,22.95,0
1.5309,0.0001188373,22.9635,0,1.5309,-8.358892E-05,22.9635,0
1.5318,-8.123904E-05,22.977,0,1.5318,-1.644922E-05,22.977,0
1.5327,-0.0002621805,22.9905,0,1.5327,-3.860533E-05,22.9905,0
1.5336,-0.0002688945,23.004,0,1.5336,-0.0002769512,23.004,0
1.5345,-0.0002500954,23.0175,0,1.5345,-0.0004172732,23.0175,0
1.5354,-0.0002051118,23.031,0,1.5354,-0.0004897841,23.031,0
1.5363,-0.0001070878,23.0445,0,1.5363,-0.0005058976,23.0445,0
1.5372,-6.74754E-05,23.058,0,1.5372,-0.0002920577,23.058,0
1.5381,-6.51255E-05,23.0715,0,1.5381,4.53193E-05,23.0715,0
1.539,0.0001003738,23.085,0,1.539,0.0004629282,23.085,0
1.5399,0.0001245441,23.0985,0,1.5399,0.0005958648,23.0985,0
1.5408,7.083238E-05,23.112,0,1.5408,0.0003884031,23.112,0
1.5417,0.0001030594,23.1255,0,1.5417,0.0003001145,23.1255,0
1.5426,0.000161471,23.139,0,1.5426,0.0001607996,23.139,0
1.5435,0.0001242084,23.1525,0,1.5435,7.385367E-06,23.1525,0
1.5444,7.855344E-05,23.166,0,1.5444,-0.0001148089,23.166,0
1.5453,0.0001450217,23.1795,0,1.5453,-0.0001027237,23.1795,0
1.5462,6.6804E-05,23.193,0,1.5462,-0.0001138018,23.193,0
1.5471,-0.0001215228,23.2065,0,1.5471,-0.0001154803,23.2065,0
1.548,-6.076142E-05,23.22,0,1.548,2.383459E-05,23.22,0
1.5489,3.726253E-05,23.2335,0,1.5489,0.0001077592,23.2335,0
1.5498,-1.376364E-05,23.247,0,1.5498,7.721065E-05,23.247,0
1.5507,-4.36408E-06,23.2605,0,1.5507,-3.390555E-05,23.2605,0
1.5516,8.795301E-05,23.274,0,1.5516,-8.89601E-05,23.274,0
1.5525,2.349889E-06,23.2875,0,1.5525,-5.136187E-05,23.2875,0
1.5534,1.678492E-06,23.301,0,1.5534,-3.356985E-07,23.301,0
1.5543,0.0001769131,23.3145,0,1.5543,1.577783E-05,23.3145,0
1.5552,0.0001806058,23.328,0,1.5552,1.141375E-05,23.328,0
1.5561,0.0001738918,23.3415,0,1.5561,8.224613E-05,23.3415,0
1.557,0.0002064546,23.355,0,1.557,6.6804E-05,23.355,0
1.5579,3.524834E-05,23.3685,0,1.5579,-9.970245E-05,23.3685,0
1.5588,-9.869535E-05,23.382,0,1.5588,-0.0001896696,23.382,0
1.5597,-0.0002252537,23.3955,0,1.5597,-0.0003148852,23.3955,0
1.5606,-0.000337377,23.409,0,1.5606,-0.0004166018,23.409,0
1.5615,-0.0003011215,23.4225,0,1.5615,-0.0003662471,23.4225,0
1.5624,-0.0001010452,23.436,0,1.5624,-0.0003256275,23.436,0
1.5633,-1.443504E-05,23.4495,0,1.5633,-0.0001594568,23.4495,0
1.5642,9.063859E-06,23.463,0,1.5642,0.0001916838,23.463,0
1.5651,9.198138E-05,23.4765,0,1.5651,0.0003800107,23.4765,0
1.566,0.0002789654,23.49,0,1.566,0.0004092164,23.49,0
1.5669,0.0002729229,23.5035,0,1.5669,0.0004333867,23.5035,0
1.5678,0.0001285725,23.517,0,1.5678,0.0002084688,23.517,0
1.5687,-4.162661E-05,23.5305,0,1.5687,-2.786297E-05,23.5305,0
1.5696,-0.0004192874,23.544,0,1.5696,-0.0001990692,23.544,0
1.5705,-0.0005884795,23.5575,0,1.5705,-0.0002175326,23.5575,0
1.5714,-0.0002544594,23.571,0,1.5714,-0.000164828,23.571,0
1.5723,-5.304036E-05,23.5845,0,1.5723,-1.141375E-05,23.5845,0
1.5732,2.652018E-05,23.598,0,1.5732,0.0002611734,23.598,0
1.5741,0.000109102,23.6115,0,1.5741,0.0002457313,23.6115,0
1.575,3.927672E-05,23.625,0,1.575,0.0001232013,23.625,0
1.5759,0.0001856413,23.6385,0,1.5759,2.618448E-05,23.6385,0
1.5768,0.0001171588,23.652,0,1.5768,-5.874724E-05,23.652,0
1.5777,-4.061952E-05,23.6655,0,1.5777,-4.599069E-05,23.6655,0
1.5786,-6.6804E-05,23.679,0,1.5786,-7.486076E-05,23.679,0
1.5795,-0.0002074617,23.6925,0,1.5795,-0.0001332723,23.6925,0
1.5804,-0.0002564736,23.706,0,1.5804,-0.000148043,23.706,0
1.5813,-0.0002104829,23.7195,0,1.5813,-0.000252781,23.7195,0
1.5822,-5.774014E-05,23.733,0,1.5822,-0.0001836271,23.733,0
1.5831,0.0001295796,23.7465,0,1.5831,-6.78111E-05,23.7465,0
1.584,0.0002265965,23.76,0,1.584,-1.913481E-05,23.76,0
1.5849,0.0002185397,23.7735,0,1.5849,-7.721065E-06,23.7735,0
1.5858,0.0001671778,23.787,0,1.5858,0.0001406577,23.787,0
1.5867,0.0001487144,23.8005,0,1.5867,5.673304E-05,23.8005,0
1.5876,0.0001795987,23.814,0,1.5876,-4.867628E-05,23.814,0
1.5885,0.0002507668,23.8275,0,1.5885,4.129091E-05,23.8275,0
1.5894,0.0002628519,23.841,0,1.5894,-1.376364E-05,23.841,0
1.5903,0.0002276036,23.8545,0,1.5903,-0.0001332723,23.8545,0
1.5912,4.733349E-05,23.868,0,1.5912,-9.164568E-05,23.868,0
1.5921,-0.0003749752,23.8815,0,1.5921,-3.457694E-05,23.8815,0
1.593,-0.0004354009,23.895,0,1.593,-6.109713E-05,23.895,0
1.5939,-0.0001782559,23.9085,0,1.5939,-1.309224E-05,23.9085,0
1.5948,0.0001420005,23.922,0,1.5948,7.721065E-05,23.922,0
1.5957,0.0002353246,23.9355,0,1.5957,8.023193E-05,23.9355,0
1.5966,2.24918E-05,23.949,0,1.5966,-9.701686E-05,23.949,0
1.5975,-0.0001987335,23.9625,0,1.5975,-0.0002621805,23.9625,0
1.5984,-0.0002628519,23.976,0,1.5984,-0.0002715801,23.976,0
1.5993,-0.0003860533,23.9895,0,1.5993,-0.000189334,23.9895,0
1.6002,-0.0003074998,24.003,0,1.6002,-7.956054E-05,24.003,0
1.6011,-0.000119173,24.0165,0,1.6011,-1.342794E-06,24.0165,0
1.602,-5.471885E-05,24.03,0,1.602,0.0001168231,24.03,0
1.6029,4.699779E-06,24.0435,0,1.6029,0.0001416648,24.0435,0
1.6038,0.0001201801,24.057,0,1.6038,8.023193E-05,24.057,0
1.6047,0.0001174945,24.0705,0,1.6047,9.332418E-05,24.0705,0
1.6056,0.0001033951,24.084,0,1.6056,0.0001661708,24.084,0
1.6065,0.0002447242,24.0975,0,1.6065,0.0001097734,24.0975,0
1.6074,0.0003078355,24.111,0,1.6074,-0.0001104448,24.111,0
1.6083,0.0002343175,24.1245,0,1.6083,-0.0002635233,24.1245,0
1.6092,0.0001930266,24.138,0,1.6092,-0.0002064546,24.138,0
1.6101,-4.129091E-05,24.1515,0,1.6101,-6.915389E-05,24.1515,0
1.611,-0.0003353628,24.165,0,1.611,0.0001104448,24.165,0
1.6119,-0.0002101472,24.1785,0,1.6119,0.000179263,24.1785,0
1.6128,-0.0001913481,24.192,0,1.6128,0.0002296178,24.192,0
1.6137,-0.0001084306,24.2055,0,1.6137,7.351797E-05,24.2055,0
1.6146,-3.894102E-05,24.219,0,1.6146,-0.0001262226,24.219,0
1.6155,1.577783E-05,24.2325,0,1.6155,-6.814679E-05,24.2325,0
1.6164,9.600977E-05,24.246,0,1.6164,-4.666209E-05,24.246,0
1.6173,8.426032E-05,24.2595,0,1.6173,-0.0001671778,24.2595,0
1.6182,5.874724E-05,24.273,0,1.6182,-0.0002403601,24.273,0
1.6191,1.913481E-05,24.2865,0,1.6191,-0.0001916838,24.2865,0
1.62,-9.063859E-06,24.3,0,1.62,-0.0002732586,24.3,0
1.6209,-5.035477E-06,24.3135,0,1.6209,-0.0002047761,24.3135,0
1.6218,4.196231E-05,24.327,0,1.6218,0.0001514,24.327,0
1.6227,3.390555E-05,24.3405,0,1.6227,0.0004669566,24.3405,0
1.6236,8.661021E-05,24.354,0,1.6236,0.0003904173,24.354,0
1.6245,9.365987E-05,24.3675,0,1.6245,0.0002695659,24.3675,0
1.6254,6.74754E-05,24.381,0,1.6254,0.0001641566,24.381,0
1.6263,5.505455E-05,24.3945,0,1.6263,8.69459E-05,24.3945,0
1.6272,1.712062E-05,24.408,0,1.6272,1.846342E-05,24.408,0
1.6281,-4.061952E-05,24.4215,0,1.6281,-8.224613E-05,24.4215,0
1.629,1.577783E-05,24.435,0,1.629,-2.450599E-05,24.435,0
1.6299,-2.24918E-05,24.4485,0,1.6299,-5.438316E-05,24.4485,0
1.6308,4.36408E-06,24.462,0,1.6308,-9.768826E-05,24.462,0
1.6317,0.0001527428,24.4755,0,1.6317,-0.0001299153,24.4755,0
1.6326,4.800488E-05,24.489,0,1.6326,-8.795301E-05,24.489,0
1.6335,-0.0001084306,24.5025,0,1.6335,6.74754E-05,24.5025,0
1.6344,-5.471885E-05,24.516,0,1.6344,0.0001305867,24.516,0
1.6353,0.000235996,24.5295,0,1.6353,6.109713E-05,24.5295,0
1.6362,0.000337377,24.543,0,1.6362,-3.356985E-06,24.543,0
1.6371,0.0001789273,24.5565,0,1.6371,-8.96315E-05,24.5565,0
1.638,-1.980621E-05,24.57,0,1.638,-0.0001527428,24.57,0
1.6389,-0.0003743038,24.5835,0,1.6389,-0.0002027619,24.5835,0
1.6398,-0.0005163043,24.597,0,1.6398,-0.0001101091,24.597,0
1.6407,-0.0003172351,24.6105,0,1.6407,-3.692683E-06,24.6105,0
1.6416,-0.0001386435,24.624,0,1.6416,-5.941863E-05,24.624,0
1.6425,1.242084E-05,24.6375,0,1.6425,-1.644922E-05,24.6375,0
1.6434,7.754635E-05,24.651,0,1.6434,1.812772E-05,24.651,0
1.6443,2.954147E-05,24.6645,0,1.6443,-9.097429E-05,24.6645,0
1.6452,-2.652018E-05,24.678,0,1.6452,-0.0001144732,24.678,0
1.6461,-8.996719E-05,24.6915,0,1.6461,-0.0001722133,24.6915,0
1.647,-0.0001312581,24.705,0,1.647,-0.0002615091,24.705,0
1.6479,-1.846342E-05,24.7185,0,1.6479,-0.000249424,24.7185,0
1.6488,-8.191043E-05,24.732,0,1.6488,-0.0002014191,24.732,0
1.6497,-9.701686E-05,24.7455,0,1.6497,3.323415E-05,24.7455,0
1.6506,-0.000115816,24.759,0,1.6506,0.0002007477,24.759,0
1.6515,5.706874E-06,24.7725,0,1.6515,0.0001668421,24.7725,0
1.6524,2.1149E-05,24.786,0,1.6524,8.090334E-05,24.786,0
1.6533,6.378271E-06,24.7995,0,1.6533,1.712062E-05,24.7995,0
1.6542,0.000235996,24.813,0,1.6542,-4.43122E-05,24.813,0
1.6551,0.0003179065,24.8265,0,1.6551,-0.0001822843,24.8265,0
1.656,0.0002601663,24.84,0,1.656,-0.0001195087,24.84,0
1.6569,1.275654E-05,24.8535,0,1.6569,3.927672E-05,24.8535,0
1.6578,-4.196231E-05,24.867,0,1.6578,0.0001114519,24.867,0
1.6587,-0.0002054475,24.8805,0,1.6587,0.0001957122,24.8805,0
1.6596,-0.0003716182,24.894,0,1.6596,0.0001661708,24.894,0
1.6605,-0.0003252918,24.9075,0,1.6605,1.107805E-05,24.9075,0
1.6614,-0.0002098116,24.921,0,1.6614,-3.356985E-05,24.921,0
1.6623,-1.342794E-06,24.9345,0,1.6623,-8.761731E-05,24.9345,0
1.6632,-2.047761E-05,24.948,0,1.6632,-0.0001376364,24.948,0
1.6641,-2.853437E-05,24.9615,0,1.6641,-4.39765E-05,24.9615,0
1.665,4.229801E-05,24.975,0,1.665,-6.042573E-05,24.975,0
1.6659,-3.356985E-07,24.9885,0,1.6659,-0.0001470359,24.9885,0
1.6668,0.0001681849,25.002,0,1.6668,-4.263371E-05,25.002,0
1.6677,0.0003246204,25.0155,0,1.6677,0.0001164874,25.0155,0
1.6686,0.0004159304,25.029,0,1.6686,0.0001097734,25.029,0
1.6695,0.0005475243,25.0425,0,1.6695,0.0001493858,25.0425,0
1.6704,0.0002944076,25.056,0,1.6704,0.0001460288,25.056,0
1.6713,-0.0001782559,25.0695,0,1.6713,2.349889E-06,25.0695,0
1.6722,-0.0002091402,25.083,0,1.6722,-2.18204E-05,25.083,0
1.6731,-0.0003346914,25.0965,0,1.6731,1.007095E-06,25.0965,0
1.674,9.063859E-06,25.11,0,1.674,-7.049668E-06,25.11,0
1.6749,-0.000112459,25.1235,0,1.6749,-5.035477E-05,25.1235,0
1.6758,-0.0002957504,25.137,0,1.6758,-0.0001295796,25.137,0
1.6767,-0.0002118257,25.1505,0,1.6767,-0.0001198444,25.1505,0
1.6776,-0.0002192111,25.164,0,1.6776,-0.0001540856,25.164,0
1.6785,-0.0001366293,25.1775,0,1.6785,-7.251087E-05,25.1775,0
1.6794,-6.076142E-05,25.191,0,1.6794,1.174945E-05,25.191,0
1.6803,7.016098E-05,25.2045,0,1.6803,8.258183E-05,25.2045,0
1.6812,0.0001285725,25.218,0,1.6812,0.000115816,25.218,0
1.6821,5.807584E-05,25.2315,0,1.6821,4.263371E-05,25.2315,0
1.683,3.189136E-05,25.245,0,1.683,0.000105745,25.245,0
1.6839,-6.243992E-05,25.2585,0,1.6839,2.853437E-05,25.2585,0
1.6848,0.0001567712,25.272,0,1.6848,-0.0001889983,25.272,0
1.6857,0.0002232395,25.2855,0,1.6857,-0.0002662089,25.2855,0
1.6866,0.0001534142,25.299,0,1.6866,-0.000172549,25.299,0
1.6875,-6.915389E-05,25.3125,0,1.6875,-6.915389E-05,25.3125,0
1.6884,-0.0001920195,25.326,0,1.6884,6.74754E-05,25.326,0
1.6893,-0.0001574426,25.3395,0,1.6893,0.0001806058,25.3395,0
1.6902,-0.0002161898,25.353,0,1.6902,9.701686E-05,25.353,0
1.6911,-1.409934E-05,25.3665,0,1.6911,-3.591974E-05,25.3665,0
1.692,0.000102388,25.38,0,1.692,-8.560311E-05,25.38,0
1.6929,3.726253E-05,25.3935,0,1.6929,-0.0001144732,25.3935,0
1.6938,-2.853437E-05,25.407,0,1.6938,-8.224613E-05,25.407,0
1.6947,5.069047E-05,25.4205,0,1.6947,1.309224E-05,25.4205,0
1.6956,3.826963E-05,25.434,0,1.6956,-6.378271E-06,25.434,0
1.6965,5.035477E-06,25.4475,0,1.6965,3.692683E-06,25.4475,0
1.6974,3.692683E-05,25.461,0,1.6974,-1.712062E-05,25.461,0
1.6983,-5.774014E-05,25.4745,0,1.6983,-1.309224E-05,25.4745,0
1.6992,-0.000164828,25.488,0,1.6992,-9.869535E-05,25.488,0
1.7001,-8.627451E-05,25.5015,0,1.7001,-7.284657E-05,25.5015,0
1.701,0.0001054093,25.515,0,1.701,-3.860533E-05,25.515,0
1.7019,0.0001671778,25.5285,0,1.7019,-0.0001044022,25.5285,0
1.7028,0.0001148089,25.542,0,1.7028,-0.0002289464,25.542,0
1.7037,0.0001151446,25.5555,0,1.7037,-0.0002618448,25.5555,0
1.7046,5.673304E-05,25.569,0,1.7046,-0.0002860151,25.569,0
1.7055,-6.478981E-05,25.5825,0,1.7055,-0.0002312963,25.5825,0
1.7064,-2.484169E-05,25.596,0,1.7064,-9.030289E-05,25.596,0
1.7073,9.231708E-05,25.6095,0,1.7073,0.0001876554,25.6095,0
1.7082,5.069047E-05,25.623,0,1.7082,0.0004434577,25.623,0
1.7091,0.0001221943,25.6365,0,1.7091,0.000200412,25.6365,0
1.71,9.701686E-05,25.65,0,1.71,-1.342794E-06,25.65,0
1.7109,-8.761731E-05,25.6635,0,1.7109,1.309224E-05,25.6635,0
1.7118,-7.721065E-05,25.677,0,1.7118,2.719158E-05,25.677,0
1.7127,4.901198E-05,25.6905,0,1.7127,4.901198E-05,25.6905,0
1.7136,2.047761E-05,25.704,0,1.7136,0.0003605402,25.704,0
1.7145,-1.007095E-05,25.7175,0,1.7145,0.0005280537,25.7175,0
1.7154,-0.0002232395,25.731,0,1.7154,0.0002930648,25.731,0
1.7163,-0.0001836271,25.7445,0,1.7163,9.164568E-05,25.7445,0
1.7172,0.0001510643,25.758,0,1.7172,8.090334E-05,25.758,0
1.7181,6.6804E-05,25.7715,0,1.7181,1.510643E-05,25.7715,0
1.719,-7.083238E-05,25.785,0,1.719,-0.000115816,25.785,0
1.7199,-7.620356E-05,25.7985,0,1.7199,-0.0001816129,25.7985,0
1.7208,2.652018E-05,25.812,0,1.7208,-0.0001148089,25.812,0
1.7217,5.035477E-05,25.8255,0,1.7217,-0.0001644923,25.8255,0
1.7226,7.284657E-05,25.839,0,1.7226,-0.0002581521,25.839,0
1.7235,-9.399558E-06,25.8525,0,1.7235,-0.0001742275,25.8525,0
1.7244,-1.376364E-05,25.866,0,1.7244,-9.030289E-05,25.866,0
1.7253,-0.0001470359,25.8795,0,1.7253,-0.0001305867,25.8795,0
1.7262,-7.821774E-05,25.893,0,1.7262,4.263371E-05,25.893,0
1.7271,1.577783E-05,25.9065,0,1.7271,0.0001138018,25.9065,0
1.728,0.0002423743,25.92,0,1.728,-0.0001114519,25.92,0
1.7289,0.0004360723,25.9335,0,1.7289,-0.000228275,25.9335,0
1.7298,0.0001675135,25.947,0,1.7298,-0.0002762798,25.947,0
1.7307,-0.0001537499,25.9605,0,1.7307,-0.0002480812,25.9605,0
1.7316,-0.0001722133,25.974,0,1.7316,-0.0001483787,25.974,0
1.7325,-0.0004035096,25.9875,0,1.7325,-0.0001040665,25.9875,0
1.7334,-0.0005116045,26.001,0,1.7334,-0.000327306,26.001,0
1.7343,-0.0001718776,26.0145,0,1.7343,-0.0001426719,26.0145,0
1.7352,-9.970245E-05,26.028,0,1.7352,2.920577E-05,26.028,0
1.7361,-9.298848E-05,26.0415,0,1.7361,0.0001040665,26.0415,0
1.737,-8.224613E-05,26.055,0,1.737,0.0002574807,26.055,0
1.7379,-0.0001943694,26.0685,0,1.7379,0.0004622568,26.0685,0
1.7388,-1.879912E-05,26.082,0,1.7388,0.0004307012,26.082,0
1.7397,0.0002856794,26.0955,0,1.7397,0.0001554284,26.0955,0
1.7406,0.0003642329,26.109,0,1.7406,-9.802396E-05,26.109,0
1.7415,0.0003672541,26.1225,0,1.7415,-0.0002826581,26.1225,0
1.7424,0.0003098497,26.136,0,1.7424,-0.0002588235,26.136,0
1.7433,0.0001604639,26.1495,0,1.7433,-0.0002621805,26.1495,0
1.7442,0.0001299153,26.163,0,1.7442,-0.0001809415,26.163,0
1.7451,0.000256138,26.1765,0,1.7451,-2.316319E-05,26.1765,0
1.746,0.0001889983,26.19,0,1.746,6.009003E-05,26.19,0
1.7469,-4.901198E-05,26.2035,0,1.7469,3.591974E-05,26.2035,0
1.7478,-3.021286E-06,26.217,0,1.7478,0.000224918,26.217,0
1.7487,-3.054856E-05,26.2305,0,1.7487,0.0002521096,26.2305,0
1.7496,-0.0008150759,26.244,0,1.7496,0.0002447242,26.244,0
1.7505,-0.0008063478,26.2575,0,1.7505,0.0001574426,26.2575,0
1.7514,-0.0003447623,26.271,0,1.7514,6.076142E-05,26.271,0
1.7523,-0.0003514763,26.2845,0,1.7523,-2.21561E-05,26.2845,0
1.7532,-0.0004360723,26.298,0,1.7532,-2.920577E-05,26.298,0
1.7541,-0.000185977,26.3115,0,1.7541,1.510643E-05,26.3115,0
1.755,4.934768E-05,26.325,0,1.755,2.014191E-06,26.325,0
1.7559,9.768826E-05,26.3385,0,1.7559,-6.61326E-05,26.3385,0
1.7568,9.634547E-05,26.352,0,1.7568,-0.0001661708,26.352,0
1.7577,0.0001661708,26.3655,0,1.7577,-0.0001560998,26.3655,0
1.7586,0.0002769512,26.379,0,1.7586,-0.0001839628,26.379,0
1.7595,0.0002568093,26.3925,0,1.7595,-0.0003461051,26.3925,0
1.7604,0.0001943694,26.406,0,1.7604,-0.0004542001,26.406,0
1.7613,0.0001520714,26.4195,0,1.7613,-0.0004602426,26.4195,0
1.7622,0.0002668803,26.433,0,1.7622,-0.0003497978,26.433,0
1.7631,0.0001742275,26.4465,0,1.7631,-8.795301E-05,26.4465,0
1.764,-6.478981E-05,26.46,0,1.764,0.0003716182,26.46,0
1.7649,3.793393E-05,26.4735,0,1.7649,0.0004844129,26.4735,0
1.7658,-0.0001393149,26.487,0,1.7658,0.0004132448,26.487,0
1.7667,-0.0003031357,26.5005,0,1.7667,0.0004122377,26.5005,0
1.7676,-0.0001242084,26.514,0,1.7676,0.0002957504,26.514,0
1.7685,-2.316319E-05,26.5275,0,1.7685,0.0001205158,26.5275,0
1.7694,-1.913481E-05,26.541,0,1.7694,4.53193E-05,26.541,0
1.7703,5.203327E-05,26.5545,0,1.7703,8.392462E-06,26.5545,0
1.7712,7.351797E-05,26.568,0,1.7712,7.049668E-06,26.568,0
1.7721,5.572595E-05,26.5815,0,1.7721,-4.867628E-05,26.5815,0
1.773,0.0001037308,26.595,0,1.773,-0.0002259251,26.595,0
1.7739,0.0002504311,26.6085,0,1.7739,-0.0002977645,26.6085,0
1.7748,0.0003326772,26.622,0,1.7748,-0.0002265965,26.622,0
1.7757,0.0002544594,26.6355,0,1.7757,-0.000193698,26.6355,0
1.7766,0.0001544213,26.649,0,1.7766,-0.000246067,26.649,0
1.7775,0.0001507286,26.6625,0,1.7775,-1.678492E-05,26.6625,0
1.7784,-2.887007E-05,26.676,0,1.7784,8.392462E-05,26.676,0
1.7793,-0.0001332723,26.6895,0,1.7793,-0.0001470359,26.6895,0
1.7802,-0.0001413291,26.703,0,1.7802,-7.486076E-05,26.703,0
1.7811,-0.0002863508,26.7165,0,1.7811,4.095522E-05,26.7165,0
1.782,-0.000428687,26.73,0,1.782,1.947051E-05,26.73,0
1.7829,-0.0001567712,26.7435,0,1.7829,1.309224E-05,26.7435,0
1.7838,6.411841E-05,26.757,0,1.7838,-6.042573E-06,26.757,0
1.7847,0.0001245441,26.7705,0,1.7847,2.21561E-05,26.7705,0
1.7856,0.0001379721,26.784,0,1.7856,-0.0001540856,26.784,0
1.7865,0.0001379721,26.7975,0,1.7865,-0.0002212253,26.7975,0
1.7874,0.000119173,26.811,0,1.7874,-0.0001346151,26.811,0
1.7883,-0.0001037308,26.8245,0,1.7883,8.224613E-05,26.8245,0
1.7892,-4.901198E-05,26.838,0,1.7892,0.0002453956,26.838,0
1.7901,-7.989624E-05,26.8515,0,1.7901,0.000203769,26.8515,0
1.791,-0.0002655375,26.865,0,1.791,0.000200412,26.865,0
1.7919,-0.0002366674,26.8785,0,1.7919,0.000186984,26.8785,0
1.7928,-4.599069E-05,26.892,0,1.7928,8.96315E-05,26.892,0
1.7937,-4.33051E-05,26.9055,0,1.7937,4.39765E-05,26.9055,0
1.7946,-4.632639E-05,26.919,0,1.7946,1.812772E-05,26.919,0
1.7955,-4.46479E-05,26.9325,0,1.7955,-0.0002138399,26.9325,0
1.7964,0.0001849699,26.946,0,1.7964,-0.0003840391,26.946,0
1.7973,0.0004461433,26.9595,0,1.7973,-0.0002339818,26.9595,0
1.7982,0.0004001526,26.973,0,1.7982,-3.994812E-05,26.973,0
1.7991,0.0003199207,26.9865,0,1.7991,1.745632E-05,26.9865,0
1.8,9.768826E-05,27,0,1.8,7.754635E-05,27,0
1.8009,-0.0001900053,27.0135,0,1.8009,0.0001215228,27.0135,0
1.8018,-0.0003494621,27.027,0,1.8018,0.0001688563,27.027,0
1.8027,-0.000285008,27.0405,0,1.8027,0.0001473716,27.0405,0
1.8036,-7.620356E-05,27.054,0,1.8036,1.913481E-05,27.054,0
1.8045,7.049668E-06,27.0675,0,1.8045,1.913481E-05,27.0675,0
1.8054,-1.342794E-05,27.081,0,1.8054,3.759823E-05,27.081,0
1.8063,2.685588E-06,27.0945,0,1.8063,-4.733349E-05,27.0945,0
1.8072,-5.505455E-05,27.108,0,1.8072,-0.0001094377,27.108,0
1.8081,-6.210422E-05,27.1215,0,1.8081,-0.000312871,27.1215,0
1.809,0.0001040665,27.135,0,1.809,-0.0004508431,27.135,0
1.8099,0.0001735561,27.1485,0,1.8099,-0.0005052262,27.1485,0
1.8108,0.0003790036,27.162,0,1.8108,-0.0005042191,27.162,0
1.8117,0.0004387579,27.1755,0,1.8117,-0.0003189135,27.1755,0
1.8126,0.000246067,27.189,0,1.8126,-1.107805E-05,27.189,0
1.8135,-0.0001769131,27.2025,0,1.8135,0.0002222324,27.2025,0
1.8144,-0.0007257801,27.216,0,1.8144,0.0001769131,27.216,0
1.8153,-0.0008654307,27.2295,0,1.8153,0.000200412,27.2295,0
1.8162,-0.0007284657,27.243,0,1.8162,0.000383032,27.243,0
1.8171,-0.0003612116,27.2565,0,1.8171,0.0002920577,27.2565,0
1.818,7.049668E-06,27.27,0,1.818,0.0002652018,27.27,0
1.8189,0.0001232013,27.2835,0,1.8189,0.0002655375,27.2835,0
1.8198,0.000102388,27.297,0,1.8198,0.0001540856,27.297,0
1.8207,0.0001040665,27.3105,0,1.8207,9.097429E-05,27.3105,0
1.8216,9.567407E-05,27.324,0,1.8216,6.109713E-05,27.324,0
1.8225,7.754635E-05,27.3375,0,1.8225,-1.174945E-05,27.3375,0
