X[s],"Trigno IM sensor 3: EMG 3 (IM)",X[s],"Trigno IM sensor 3: Mag 3.Z (IM)",X[s],"Trigno IM sensor 4: EMG 4 (IM)",X[s],"Trigno IM sensor 4: Mag 4.Z (IM)"
0.000000,-0.0001067521,0.000000,46,0.000000,-0.0002789654,0.000000,100
0.0009,-0.0001111162,0.0135,46,0.0009,-0.000531075,0.0135,99
0.0018,-0.0001238727,0.027,45,0.0018,-0.0006136568,0.027,102
0.0027,-0.0001433432,0.0405,45,0.0027,-0.0005851224,0.0405,103
0.0036,-6.54612E-05,0.054,45,0.0036,-0.0005371176,0.054,95
0.0045,8.761731E-05,0.0675,44,0.0045,-1.242084E-05,0.0675,100
0.0054,0.000144686,0.081,43,0.0054,0.0008076906,0.081,102
0.0063,0.000119173,0.0945,46,0.0063,0.0008926223,0.0945,100
0.0072,6.6804E-05,0.108,46,0.0072,0.0004813916,0.108,101
0.0081,6.54612E-05,0.1215,45,0.0081,0.0002574807,0.1215,100
0.009000001,0.0001386435,0.135,44,0.009000001,9.735256E-05,0.135,97
0.0099,0.0001846342,0.1485,44,0.0099,1.309224E-05,0.1485,100
0.0108,3.524834E-05,0.162,45,0.0108,-2.652018E-05,0.162,98
0.0117,-8.426032E-05,0.1755,45,0.0117,-9.903105E-05,0.1755,101
0.0126,-9.030289E-05,0.189,45,0.0126,-0.0001225299,0.189,97
0.0135,-0.0001111162,0.2025,45,0.0135,-0.0001554284,0.2025,100
0.0144,-8.69459E-05,0.216,46,0.0144,-0.0002054475,0.216,103
0.0153,2.551309E-05,0.2295,45,0.0153,-0.000148043,0.2295,97
0.0162,8.426032E-05,0.243,44,0.0162,-0.0001279011,0.243,100
0.0171,-3.524834E-05,0.2565,45,0.0171,-0.0001215228,0.2565,101
0.018,-7.721065E-06,0.27,45,0.018,-0.000119173,0.27,100
0.0189,1.846342E-05,0.2835,45,0.0189,-0.0001248798,0.2835,100
0.0198,7.620356E-05,0.297,46,0.0198,-9.735256E-05,0.297,97
0.0207,-4.901198E-05,0.3105,44,0.0207,-6.109713E-05,0.3105,96
0.0216,-0.0001483787,0.324,44,0.0216,-6.076142E-05,0.324,100
0.0225,-0.0001440146,0.3375,45,0.0225,-5.740444E-05,0.3375,102
0.0234,-0.0001386435,0.351,45,0.0234,-7.553216E-05,0.351,99
0.0243,-0.0001742275,0.3645,45,0.0243,-0.0001104448,0.3645,101
0.0252,-0.0002229038,0.378,46,0.0252,-0.0001070878,0.378,98
0.0261,-0.0002531167,0.3915,46,0.0261,-0.0001084306,0.3915,101
0.027,-0.0002131685,0.405,46,0.027,-0.0002165255,0.405,101
0.0279,-8.191043E-05,0.4185,47,0.0279,-0.0001849699,0.4185,101
0.0288,3.793393E-05,0.432,45,0.0288,-5.740444E-05,0.432,98
0.0297,0.0001584497,0.4455,44,0.0297,5.505455E-05,0.4455,99
0.0306,0.0001661708,0.459,46,0.0306,0.0001628138,0.459,98
0.0315,0.0001426719,0.4725,46,0.0315,0.0002265965,0.4725,101
0.0324,5.438316E-05,0.486,46,0.0324,0.0002098116,0.486,97
0.0333,-7.049668E-05,0.4995,45,0.0333,0.0002104829,0.4995,100
0.0342,1.678492E-06,0.513,46,0.0342,0.0001943694,0.513,99
0.0351,1.107805E-05,0.5265,46,0.0351,8.89601E-05,0.5265,98
0.036,-9.433127E-05,0.54,47,0.036,-8.459602E-05,0.54,100
0.0369,-2.887007E-05,0.5535,47,0.0369,-0.0001238727,0.5535,100
0.0378,3.558404E-05,0.567,45,0.0378,-7.754635E-05,0.567,99
0.0387,-5.337606E-05,0.5805,45,0.0387,-5.337606E-05,0.5805,97
0.0396,-3.625543E-05,0.594,45,0.0396,8.023193E-05,0.594,99
0.0405,5.069047E-05,0.6075,45,0.0405,8.996719E-05,0.6075,102
0.0414,8.358892E-05,0.621,44,0.0414,1.040665E-05,0.621,100
0.0423,0.0001272297,0.6345,43,0.0423,-9.298848E-05,0.6345,99
0.0432,0.0001228656,0.648,45,0.0432,-6.143282E-05,0.648,101
0.0441,7.653925E-05,0.6615,44,0.0441,-2.752728E-05,0.6615,98
0.045,8.291753E-05,0.675,46,0.045,-5.975433E-05,0.675,100
0.0459,0.0001117876,0.6885,45,0.0459,-6.881819E-05,0.6885,98
0.0468,2.652018E-05,0.702,46,0.0468,-2.853437E-05,0.702,99
0.0477,0.0001245441,0.7155,45,0.0477,1.510643E-05,0.7155,99
0.0486,0.0002762798,0.729,44,0.0486,5.270466E-05,0.729,100
0.0495,0.000140322,0.7425,44,0.0495,6.210422E-05,0.7425,102
0.0504,0.0001198444,0.756,44,0.0504,-5.807584E-05,0.756,103
0.0513,0.0001376364,0.7695,44,0.0513,-0.0001121233,0.7695,101
0.0522,0.0001188373,0.783,44,0.0522,-0.0001117876,0.783,99
0.0531,8.157473E-05,0.7965,44,0.0531,-1.242084E-05,0.7965,103
0.054,0.0001416648,0.81,45,0.054,1.174945E-05,0.81,98
0.0549,6.915389E-05,0.8235,43,0.0549,1.879912E-05,0.8235,100
0.0558,7.653925E-05,0.837,43,0.0558,1.174945E-05,0.837,99
0.0567,4.49836E-05,0.8505,43,0.0567,-2.18204E-05,0.8505,104
0.0576,-9.097429E-05,0.864,44,0.0576,-2.24918E-05,0.864,99
0.0585,-5.102617E-05,0.8775,44,0.0585,7.385367E-05,0.8775,99
0.0594,4.028382E-06,0.891,44,0.0594,0.0001080949,0.891,102
0.0603,-4.733349E-05,0.9045,45,0.0603,4.901198E-05,0.9045,100
0.0612,-4.061952E-05,0.918,45,0.0612,9.063859E-06,0.918,103
0.0621,4.36408E-06,0.9315,45,0.0621,-5.606165E-05,0.9315,102
0.063,-5.035477E-05,0.945,44,0.063,-5.001907E-05,0.945,102
0.0639,-1.376364E-05,0.9585,44,0.0639,-1.913481E-05,0.9585,100
0.0648,5.035477E-06,0.972,45,0.0648,-0.0001017166,0.972,101
0.0657,-6.74754E-05,0.9855,44,0.0657,-5.740444E-05,0.9855,101
0.0666,-0.0001050736,0.999,46,0.0666,5.874724E-05,0.999,102
0.0675,-8.627451E-05,1.0125,46,0.0675,6.478981E-05,1.0125,102
0.0684,-6.143282E-05,1.026,45,0.0684,5.337606E-05,1.026,99
0.0693,-2.047761E-05,1.0395,44,0.0693,1.779202E-05,1.0395,102
0.0702,-9.970245E-05,1.053,45,0.0702,1.007095E-05,1.053,100
0.0711,-0.0001221943,1.0665,44,0.0711,8.728161E-06,1.0665,104
0.072,-6.814679E-05,1.08,45,0.072,-1.074235E-05,1.08,99
0.0729,-7.821774E-05,1.0935,45,0.0729,7.721065E-06,1.0935,104
0.07380001,-8.325322E-05,1.107,45,0.07380001,5.706874E-06,1.107,98
0.07470001,-2.316319E-05,1.1205,46,0.07470001,-4.49836E-05,1.1205,102
0.0756,1.007095E-05,1.134,45,0.0756,-6.143282E-05,1.134,105
0.0765,-8.96315E-05,1.1475,45,0.0765,-0.0001947051,1.1475,99
0.0774,-5.841154E-05,1.161,46,0.0774,-6.311131E-05,1.161,104
0.0783,2.652018E-05,1.1745,46,0.0783,-3.793393E-05,1.1745,102
0.0792,8.157473E-05,1.188,47,0.0792,-2.887007E-05,1.188,101
0.0801,2.047761E-05,1.2015,46,0.0801,3.323415E-05,1.2015,99
0.081,1.544213E-05,1.215,46,0.081,-4.229801E-05,1.215,100
0.0819,-3.860533E-05,1.2285,48,0.0819,-8.661021E-05,1.2285,101
0.0828,-2.853437E-05,1.242,46,0.0828,-9.433127E-05,1.242,99
0.0837,-9.701686E-05,1.2555,48,0.0837,-5.941863E-05,1.2555,103
0.0846,-0.0001712062,1.269,49,0.0846,-4.901198E-05,1.269,102
0.0855,-0.0001309224,1.2825,49,0.0855,-9.701686E-05,1.2825,98
0.0864,-3.356985E-07,1.296,48,0.0864,2.719158E-05,1.296,103
0.0873,3.189136E-05,1.3095,48,0.0873,6.54612E-05,1.3095,101
0.0882,6.64683E-05,1.323,46,0.0882,4.028382E-05,1.323,105
0.0891,0.0001567712,1.3365,47,0.0891,-1.174945E-05,1.3365,103
0.09,2.786297E-05,1.35,47,0.09,-8.560311E-05,1.35,102
0.0909,-6.74754E-05,1.3635,47,0.0909,-0.0002010834,1.3635,103
0.0918,-5.069047E-05,1.377,47,0.0918,-0.0004260014,1.377,102
0.0927,-0.0001242084,1.3905,47,0.0927,-0.0005572595,1.3905,101
0.0936,-0.0001540856,1.404,47,0.0936,-0.0005226826,1.404,103
0.09450001,-8.358892E-05,1.4175,47,0.09450001,-0.0003994812,1.4175,101
0.09540001,-3.289845E-05,1.431,48,0.09540001,-9.265278E-05,1.431,104
0.09630001,-2.24918E-05,1.4445,47,0.09630001,0.0003219348,1.4445,108
0.0972,1.477073E-05,1.458,47,0.0972,0.0006119784,1.458,102
0.0981,0.0001148089,1.4715,47,0.0981,0.0003991455,1.4715,102
0.099,0.0002084688,1.485,47,0.099,0.0001326009,1.485,102
0.0999,0.000278294,1.4985,46,0.0999,9.835965E-05,1.4985,105
0.1008,0.0001846342,1.512,47,0.1008,9.030289E-05,1.512,102
0.1017,0.0001641566,1.5255,46,0.1017,4.867628E-05,1.5255,108
0.1026,0.0002061189,1.539,45,0.1026,1.913481E-05,1.539,105
0.1035,7.888914E-05,1.5525,46,0.1035,2.484169E-05,1.5525,103
0.1044,7.721065E-06,1.566,45,0.1044,-1.309224E-05,1.566,105
0.1053,-3.927672E-05,1.5795,45,0.1053,-7.016098E-05,1.5795,106
0.1062,-6.176852E-05,1.593,45,0.1062,-6.6804E-05,1.593,104
0.1071,-5.874724E-05,1.6065,45,0.1071,-6.54612E-05,1.6065,104
0.108,-0.0001033951,1.62,44,0.108,-0.0001185016,1.62,107
0.1089,-0.0001644923,1.6335,45,0.1089,-0.0002923934,1.6335,103
0.1098,-0.000218204,1.647,45,0.1098,-0.0005680018,1.647,104
0.1107,-0.0003152209,1.6605,43,0.1107,-0.0005827725,1.6605,104
0.1116,-0.0002514381,1.674,43,0.1116,-0.0004528573,1.674,104
0.1125,2.24918E-05,1.6875,45,0.1125,-0.0002262608,1.6875,106
0.1134,0.0002732586,1.701,43,0.1134,9.298848E-05,1.701,104
0.1143,0.000218204,1.7145,44,0.1143,0.0006522621,1.7145,107
0.1152,5.606165E-05,1.728,43,0.1152,0.0009752041,1.728,106
0.1161,3.189136E-05,1.7415,43,0.1161,0.0007321584,1.7415,108
0.117,-0.0001537499,1.755,43,0.117,0.0003964599,1.755,108
0.1179,-0.0001742275,1.7685,43,0.1179,0.000224918,1.7685,105
0.1188,-0.0001111162,1.782,44,0.1188,0.000130251,1.782,105
0.1197,-0.0001349508,1.7955,43,0.1197,8.157473E-05,1.7955,105
0.1206,-0.0001285725,1.809,43,0.1206,1.376364E-05,1.809,107
0.1215,-7.956054E-05,1.8225,43,0.1215,-7.721065E-06,1.8225,106
0.1224,-2.987716E-05,1.836,42,0.1224,-1.174945E-05,1.836,102
0.1233,4.46479E-05,1.8495,44,0.1233,-3.692683E-05,1.8495,107
0.1242,2.014191E-06,1.863,44,0.1242,-2.081331E-05,1.863,104
0.1251,-0.0001037308,1.8765,45,0.1251,4.028382E-06,1.8765,106
0.126,-6.478981E-05,1.89,44,0.126,-5.740444E-05,1.89,108
0.1269,-3.726253E-05,1.9035,43,0.1269,-7.217517E-05,1.9035,104
0.1278,-2.21561E-05,1.917,44,0.1278,-4.028382E-05,1.917,104
0.1287,-7.150377E-05,1.9305,44,0.1287,-9.970245E-05,1.9305,103
0.1296,-3.994812E-05,1.944,44,0.1296,-0.0001399863,1.944,107
0.1305,-6.243992E-05,1.9575,44,0.1305,-8.627451E-05,1.9575,104
0.1314,2.652018E-05,1.971,43,0.1314,-5.035477E-05,1.971,105
0.1323,8.392462E-05,1.9845,43,0.1323,2.383459E-05,1.9845,105
0.1332,3.189136E-05,1.998,44,0.1332,7.721065E-06,1.998,106
0.1341,1.544213E-05,2.0115,43,0.1341,-1.376364E-05,2.0115,104
0.135,5.471885E-05,2.025,45,0.135,-2.081331E-05,2.025,106
0.1359,6.210422E-05,2.0385,44,0.1359,-2.853437E-05,2.0385,106
0.1368,1.309224E-05,2.052,44,0.1368,-4.666209E-05,2.052,104
0.1377,3.323415E-05,2.0655,43,0.1377,-2.21561E-05,2.0655,102
0.1386,0.0001349508,2.079,44,0.1386,-2.316319E-05,2.079,103
0.1395,7.217517E-05,2.0925,44,0.1395,-7.821774E-05,2.0925,106
0.1404,7.620356E-05,2.106,41,0.1404,-4.46479E-05,2.106,108
0.1413,0.0001040665,2.1195,43,0.1413,5.035477E-06,2.1195,104
0.1422,7.754635E-05,2.133,43,0.1422,-6.076142E-05,2.133,102
0.1431,6.915389E-05,2.1465,41,0.1431,-0.0002514381,2.1465,105
0.144,7.956054E-05,2.16,42,0.144,-0.0001473716,2.16,104
0.1449,0.0001245441,2.1735,43,0.1449,-0.0001346151,2.1735,107
0.1458,2.316319E-05,2.187,43,0.1458,-0.0001896696,2.187,106
0.1467,-2.618448E-05,2.2005,43,0.1467,-0.0001601282,2.2005,106
0.1476,-6.57969E-05,2.214,43,0.1476,-7.284657E-05,2.214,106
0.1485,-5.606165E-05,2.2275,43,0.1485,-6.64683E-05,2.2275,105
0.1494,-4.33051E-05,2.241,43,0.1494,-2.18204E-05,2.241,103
0.1503,-1.678492E-06,2.2545,43,0.1503,2.047761E-05,2.2545,106
0.1512,-1.913481E-05,2.268,44,0.1512,6.54612E-05,2.268,105
0.1521,-1.007095E-05,2.2815,42,0.1521,0.0001262226,2.2815,104
0.153,-2.014191E-06,2.295,43,0.153,9.231708E-05,2.295,104
0.1539,-2.450599E-05,2.3085,43,0.1539,5.438316E-05,2.3085,105
0.1548,-4.46479E-05,2.322,45,0.1548,8.526741E-05,2.322,105
0.1557,6.948959E-05,2.3355,43,0.1557,9.936675E-05,2.3355,103
0.1566,3.726253E-05,2.349,44,0.1566,5.606165E-05,2.349,107
0.1575,-6.78111E-05,2.3625,44,0.1575,6.64683E-05,2.3625,106
0.1584,-6.948959E-05,2.376,45,0.1584,3.826963E-05,2.376,102
0.1593,-9.970245E-05,2.3895,45,0.1593,-7.049668E-06,2.3895,104
0.1602,-0.0001205158,2.403,45,0.1602,3.121996E-05,2.403,103
0.1611,-8.224613E-05,2.4165,47,0.1611,-2.047761E-05,2.4165,106
0.162,3.155566E-05,2.43,44,0.162,-0.0001507286,2.43,105
0.1629,9.063859E-06,2.4435,46,0.1629,-0.0001876554,2.4435,107
0.1638,-7.318227E-05,2.457,46,0.1638,-0.0003783322,2.457,106
0.1647,-4.934768E-05,2.4705,46,0.1647,-0.0002615091,2.4705,101
0.1656,-5.035477E-06,2.484,47,0.1656,-7.351797E-05,2.484,100
0.1665,-1.107805E-05,2.4975,46,0.1665,0.0001084306,2.4975,105
0.1674,3.356985E-07,2.511,45,0.1674,5.874724E-05,2.511,103
0.1683,-9.735256E-06,2.5245,46,0.1683,7.620356E-05,2.5245,107
0.1692,3.021286E-05,2.538,45,0.1692,0.0001282368,2.538,101
0.1701,0.0001211871,2.5515,47,0.1701,8.291753E-05,2.5515,106
0.171,-1.342794E-06,2.565,46,0.171,6.54612E-05,2.565,103
0.1719,-2.987716E-05,2.5785,46,0.1719,-1.510643E-05,2.5785,103
0.1728,2.652018E-05,2.592,45,0.1728,-0.0001540856,2.592,105
0.1737,-1.007095E-05,2.6055,47,0.1737,-0.0002185397,2.6055,100
0.1746,-7.754635E-05,2.619,46,0.1746,-0.0002010834,2.619,107
0.1755,-6.277562E-05,2.6325,45,0.1755,-0.0001742275,2.6325,105
0.1764,5.874724E-05,2.646,45,0.1764,-3.390555E-05,2.646,103
0.1773,6.6804E-05,2.6595,46,0.1773,0.000144686,2.6595,104
0.1782,-0.0001205158,2.673,46,0.1782,0.0001738918,2.673,104
0.1791,-0.0001654994,2.6865,46,0.1791,0.0001527428,2.6865,103
0.18,-5.807584E-05,2.7,45,0.18,5.035477E-06,2.7,107
0.1809,-2.014191E-05,2.7135,46,0.1809,-6.378271E-06,2.7135,103
0.1818,6.042573E-06,2.727,46,0.1818,0.0001460288,2.727,102
0.1827,0.000126894,2.7405,47,0.1827,0.0001443503,2.7405,103
0.1836,0.0003078355,2.754,47,0.1836,2.853437E-05,2.754,104
0.1845,0.0002655375,2.7675,47,0.1845,0.0001067521,2.7675,101
0.1854,0.0001205158,2.781,48,0.1854,0.0001221943,2.781,105
0.1863,3.323415E-05,2.7945,46,0.1863,1.376364E-05,2.7945,104
0.1872,-3.692683E-06,2.808,46,0.1872,-9.063859E-06,2.808,104
0.1881,-6.109713E-05,2.8215,47,0.1881,-5.706874E-06,2.8215,108
0.189,-6.64683E-05,2.835,46,0.189,-4.36408E-05,2.835,103
0.1899,-0.0001027237,2.8485,46,0.1899,-5.706874E-05,2.8485,104
0.1908,-4.33051E-05,2.862,46,0.1908,-3.692683E-05,2.862,104
0.1917,-2.18204E-05,2.8755,45,0.1917,-0.0002262608,2.8755,102
0.1926,2.517739E-05,2.889,45,0.1926,-0.0002138399,2.889,101
0.1935,1.745632E-05,2.9025,45,0.1935,-0.0001349508,2.9025,102
0.1944,-2.685588E-05,2.916,46,0.1944,-0.0001168231,2.916,104
0.1953,-3.356985E-05,2.9295,45,0.1953,-8.560311E-05,2.9295,103
0.1962,8.459602E-05,2.943,46,0.1962,-0.0001611353,2.943,105
0.1971,0.000186984,2.9565,45,0.1971,-0.0002541238,2.9565,102
0.198,8.627451E-05,2.97,45,0.198,-0.0001765774,2.97,104
0.1989,7.721065E-06,2.9835,45,0.1989,-3.927672E-05,2.9835,101
0.1998,-1.376364E-05,2.997,46,0.1998,3.088426E-05,2.997,104
0.2007,-2.047761E-05,3.0105,46,0.2007,7.486076E-05,3.0105,109
0.2016,-8.96315E-05,3.024,0,0.2016,0.0002098116,3.024,0
0.2025,-0.0001084306,3.0375,0,0.2025,0.000193698,3.0375,0
0.2034,-0.0001362936,3.051,0,0.2034,6.814679E-05,3.051,0
0.2043,-9.970245E-05,3.0645,0,0.2043,-3.054856E-05,3.0645,0
0.2052,-8.761731E-05,3.078,0,0.2052,-5.572595E-05,3.078,0
0.2061,-8.258183E-05,3.0915,0,0.2061,-3.390555E-05,3.0915,0
0.207,-0.0001040665,3.105,0,0.207,-6.210422E-05,3.105,0
0.2079,-5.169757E-05,3.1185,0,0.2079,-0.000112459,3.1185,0
0.2088,-1.577783E-05,3.132,0,0.2088,-0.0001685206,3.132,0
0.2097,1.174945E-05,3.1455,0,0.2097,-0.000148043,3.1455,0
0.2106,9.869535E-05,3.159,0,0.2106,-9.835965E-05,3.159,0
0.2115,6.6804E-05,3.1725,0,0.2115,-4.36408E-05,3.1725,0
0.2124,5.471885E-05,3.186,0,0.2124,-6.076142E-05,3.186,0
0.2133,2.584878E-05,3.1995,0,0.2133,-0.0001050736,3.1995,0
0.2142,2.652018E-05,3.213,0,0.2142,-5.706874E-05,3.213,0
0.2151,-2.652018E-05,3.2265,0,0.2151,-2.24918E-05,3.2265,0
0.216,-5.001907E-05,3.24,0,0.216,-8.86244E-05,3.24,0
0.2169,-4.061952E-05,3.2535,0,0.2169,-0.0001272297,3.2535,0
0.2178,-1.376364E-05,3.267,0,0.2178,-0.0001373007,3.267,0
0.2187,-1.510643E-05,3.2805,0,0.2187,-8.090334E-05,3.2805,0
0.2196,4.666209E-05,3.294,0,0.2196,-4.36408E-06,3.294,0
0.2205,5.505455E-05,3.3075,0,0.2205,8.72816E-05,3.3075,0
0.2214,3.927672E-05,3.321,0,0.2214,0.0001070878,3.321,0
0.2223,-3.860533E-05,3.3345,0,0.2223,7.351797E-05,3.3345,0
0.2232,-1.812772E-05,3.348,0,0.2232,4.867628E-05,3.348,0
0.2241,7.721065E-06,3.3615,0,0.2241,7.721065E-06,3.3615,0
0.225,-9.735256E-05,3.375,0,0.225,-2.349889E-06,3.375,0
0.2259,-6.076142E-05,3.3885,0,0.2259,-3.088426E-05,3.3885,0
0.2268,-2.920577E-05,3.402,0,0.2268,-1.812772E-05,3.402,0
0.2277,-6.143282E-05,3.4155,0,0.2277,0.0001782559,3.4155,0
0.2286,-4.46479E-05,3.429,0,0.2286,0.0001963836,3.429,0
0.2295,7.049668E-06,3.4425,0,0.2295,0.0001205158,3.4425,0
0.2304,-9.735256E-06,3.456,0,0.2304,0.000105745,3.456,0
0.2313,2.24918E-05,3.4695,0,0.2313,3.424125E-05,3.4695,0
0.2322,-9.063859E-06,3.483,0,0.2322,1.443504E-05,3.483,0
0.2331,-1.779202E-05,3.4965,0,0.2331,-1.174945E-05,3.4965,0
0.234,-2.719158E-05,3.51,0,0.234,-0.0001262226,3.51,0
0.2349,-5.136187E-05,3.5235,0,0.2349,-0.0002756084,3.5235,0
0.2358,-8.627451E-05,3.537,0,0.2358,-0.0002218967,3.537,0
0.2367,-7.687495E-05,3.5505,0,0.2367,-0.0003064927,3.5505,0
0.2376,4.733349E-05,3.564,0,0.2376,-0.0002366674,3.564,0
0.2385,2.853437E-05,3.5775,0,0.2385,0.0001151446,3.5775,0
0.2394,-3.894102E-05,3.591,0,0.2394,0.0004105592,3.591,0
0.2403,3.323415E-05,3.6045,0,0.2403,0.000418616,3.6045,0
0.2412,9.198138E-05,3.618,0,0.2412,0.0002507668,3.618,0
0.2421,-1.779202E-05,3.6315,0,0.2421,6.814679E-05,3.6315,0
0.243,5.706874E-06,3.645,0,0.243,6.71397E-05,3.645,0
0.2439,-1.980621E-05,3.6585,0,0.2439,-3.356985E-06,3.6585,0
0.2448,-1.510643E-05,3.672,0,0.2448,-7.318227E-05,3.672,0
0.2457,1.846342E-05,3.6855,0,0.2457,-6.848249E-05,3.6855,0
0.2466,6.948959E-05,3.699,0,0.2466,-0.0001084306,3.699,0
0.2475,5.606165E-05,3.7125,0,0.2475,-8.89601E-05,3.7125,0
0.2484,-3.356985E-06,3.726,0,0.2484,-0.0001017166,3.726,0
0.2493,-2.853437E-05,3.7395,0,0.2493,2.887007E-05,3.7395,0
0.2502,-3.591974E-05,3.753,0,0.2502,8.459602E-05,3.753,0
0.2511,-4.766919E-05,3.7665,0,0.2511,-9.735256E-06,3.7665,0
0.252,-7.821774E-05,3.78,0,0.252,-8.392462E-06,3.78,0
0.2529,-3.692683E-05,3.7935,0,0.2529,4.129091E-05,3.7935,0
0.2538,-1.779202E-05,3.807,0,0.2538,1.242084E-05,3.807,0
0.2547,-8.92958E-05,3.8205,0,0.2547,0,3.8205,0
0.2556,-0.0001443503,3.834,0,0.2556,7.049668E-06,3.834,0
0.2565,-0.0001299153,3.8475,0,0.2565,4.33051E-05,3.8475,0
0.2574,-0.0001185016,3.861,0,0.2574,-7.049668E-06,3.861,0
0.2583,-4.061952E-05,3.8745,0,0.2583,-9.332418E-05,3.8745,0
0.2592,-3.289845E-05,3.888,0,0.2592,-6.411841E-05,3.888,0
0.2601,-5.706874E-06,3.9015,0,0.2601,-0.0001050736,3.9015,0
0.261,0.0001070878,3.915,0,0.261,-8.996719E-05,3.915,0
0.2619,0.0001245441,3.9285,0,0.2619,-0.000186984,3.9285,0
0.2628,-1.577783E-05,3.942,0,0.2628,-0.0002665446,3.942,0
0.2637,1.208515E-05,3.9555,0,0.2637,-0.0003054856,3.9555,0
0.2646,4.599069E-05,3.969,0,0.2646,-0.0003575189,3.969,0
0.2655,-6.143282E-05,3.9825,0,0.2655,-0.0002195468,3.9825,0
0.2664,5.706874E-06,3.996,0,0.2664,8.89601E-05,3.996,0
0.2673,7.385367E-05,4.0095,0,0.2673,0.0003608759,4.0095,0
0.2682,-9.298848E-05,4.023,0,0.2682,0.0004159304,4.023,0
0.2691,-0.000175906,4.0365,0,0.2691,0.0002937362,4.0365,0
0.27,-0.0001198444,4.05,0,0.27,0.0001621424,4.05,0
0.2709,-8.392462E-05,4.0635,0,0.2709,5.304036E-05,4.0635,0
0.2718,-6.478981E-05,4.077,0,0.2718,-2.349889E-06,4.077,0
0.2727,6.378271E-06,4.0905,0,0.2727,-7.721065E-05,4.0905,0
0.2736,8.224613E-05,4.104,0,0.2736,-0.0001111162,4.104,0
0.2745,0.0003044785,4.1175,0,0.2745,-0.000144686,4.1175,0
0.2754,0.0002789654,4.131,0,0.2754,-0.0001668421,4.131,0
0.2763,6.848249E-05,4.1445,0,0.2763,-0.0001329366,4.1445,0
0.2772,0.0001037308,4.158,0,0.2772,-0.0001322652,4.158,0
0.2781,0.0002034333,4.1715,0,0.2781,-0.0001493858,4.1715,0
0.279,6.478981E-05,4.185,0,0.279,-4.800488E-05,4.185,0
0.2799,7.083238E-05,4.1985,0,0.2799,-2.954147E-05,4.1985,0
0.2808,0.000158114,4.212,0,0.2808,-0.0001221943,4.212,0
0.2817,0.0001017166,4.2255,0,0.2817,-0.0001493858,4.2255,0
0.2826,-4.196231E-05,4.239,0,0.2826,-0.0002064546,4.239,0
0.2835,-7.486076E-05,4.2525,0,0.2835,-0.0002648661,4.2525,0
0.2844,1.409934E-05,4.266,0,0.2844,-0.0002675517,4.266,0
0.2853,1.644922E-05,4.2795,0,0.2853,-0.0002225681,4.2795,0
0.2862,-2.047761E-05,4.293,0,0.2862,-0.0001232013,4.293,0
0.2871,-1.577783E-05,4.3065,0,0.2871,-5.673304E-05,4.3065,0
0.288,-9.365987E-05,4.32,0,0.288,7.418937E-05,4.32,0
0.2889,-0.0001174945,4.3335,0,0.2889,0.0003870603,4.3335,0
0.2898,-8.291753E-05,4.347,0,0.2898,0.0003756466,4.347,0
0.2907,3.860533E-05,4.3605,0,0.2907,0.0001930266,4.3605,0
0.2916,0.0001134661,4.374,0,0.2916,9.500267E-05,4.374,0
0.2925,-2.584878E-05,4.3875,0,0.2925,6.64683E-05,4.3875,0
0.2934,-8.090334E-05,4.401,0,0.2934,4.061952E-05,4.401,0
0.2943,-7.418937E-05,4.4145,0,0.2943,5.706874E-06,4.4145,0
0.2952,-4.095522E-05,4.428,0,0.2952,2.349889E-06,4.428,0
0.2961,-7.284657E-05,4.4415,0,0.2961,2.920577E-05,4.4415,0
0.297,-6.478981E-05,4.455,0,0.297,2.719158E-05,4.455,0
0.2979,-3.390555E-05,4.4685,0,0.2979,4.53193E-05,4.4685,0
0.2988,5.270466E-05,4.482,0,0.2988,4.666209E-05,4.482,0
0.2997,6.378271E-06,4.4955,0,0.2997,-5.975433E-05,4.4955,0
0.3006,2.349889E-05,4.509,0,0.3006,-2.24918E-05,4.509,0
0.3015,0.0001393149,4.5225,0,0.3015,-1.577783E-05,4.5225,0
0.3024,0.0001339437,4.536,0,0.3024,-3.659113E-05,4.536,0
0.3033,3.457694E-05,4.5495,0,0.3033,-1.846342E-05,4.5495,0
0.3042,2.383459E-05,4.563,0,0.3042,-7.721065E-06,4.563,0
0.3051,6.143282E-05,4.5765,0,0.3051,9.735256E-06,4.5765,0
0.306,2.24918E-05,4.59,0,0.306,6.411841E-05,4.59,0
0.3069,4.733349E-05,4.6035,0,0.3069,5.035477E-05,4.6035,0
0.3078,-8.392462E-06,4.617,0,0.3078,2.014191E-06,4.617,0
0.3087,-0.0001050736,4.6305,0,0.3087,-1.007095E-06,4.6305,0
0.3096,-9.970245E-05,4.644,0,0.3096,-2.349889E-06,4.644,0
0.3105,-2.652018E-05,4.6575,0,0.3105,-1.376364E-05,4.6575,0
0.3114,-2.047761E-05,4.671,0,0.3114,-1.678492E-06,4.671,0
0.3123,3.894102E-05,4.6845,0,0.3123,-2.853437E-05,4.6845,0
0.3132,6.378271E-05,4.698,0,0.3132,-2.18204E-05,4.698,0
0.3141,-6.478981E-05,4.7115,0,0.3141,-5.404745E-05,4.7115,0
0.315,-0.0001285725,4.725,0,0.315,-0.0001047379,4.725,0
0.3159,-0.000126894,4.7385,0,0.3159,-9.433127E-05,4.7385,0
0.3168,-0.0001628138,4.752,0,0.3168,-3.591974E-05,4.752,0
0.3177,-0.0001117876,4.7655,0,0.3177,-7.989624E-05,4.7655,0
0.3186,-7.251087E-05,4.779,0,0.3186,-0.0002084688,4.779,0
0.3195,-5.404745E-05,4.7925,0,0.3195,-0.0001560998,4.7925,0
0.3204,2.014191E-06,4.806,0,0.3204,-0.0001013809,4.806,0
0.3213,3.356985E-07,4.8195,0,0.3213,-0.000133608,4.8195,0
0.3222,-7.150377E-05,4.833,0,0.3222,-1.611353E-05,4.833,0
0.3231,-0.0001282368,4.8465,0,0.3231,7.653925E-05,4.8465,0
0.324,-0.000109102,4.86,0,0.324,0.0001339437,4.86,0
0.3249,-9.063859E-05,4.8735,0,0.3249,0.0001527428,4.8735,0
0.3258,-2.18204E-05,4.887,0,0.3258,0.000203769,4.887,0
0.3267,-2.047761E-05,4.9005,0,0.3267,0.0001708705,4.9005,0
0.3276,1.174945E-05,4.914,0,0.3276,0.0001527428,4.914,0
0.3285,6.411841E-05,4.9275,0,0.3285,0.0002000763,4.9275,0
0.3294,6.009003E-05,4.941,0,0.3294,0.0001765774,4.941,0
0.3303,-1.913481E-05,4.9545,0,0.3303,9.030289E-05,4.9545,0
0.3312,2.618448E-05,4.968,0,0.3312,5.706874E-05,4.968,0
0.3321,9.399557E-05,4.9815,0,0.3321,8.258183E-05,4.9815,0
0.333,7.721065E-06,4.995,0,0.333,0.0001279011,4.995,0
0.3339,-1.409934E-05,5.0085,0,0.3339,-0.000169192,5.0085,0
0.3348,-6.61326E-05,5.022,0,0.3348,-0.0003457694,5.022,0
0.3357,-0.0002064546,5.0355,0,0.3357,-0.0004004883,5.0355,0
0.3366,-0.0001836271,5.049,0,0.3366,-0.0004508431,5.049,0
0.3375,-8.761731E-05,5.0625,0,0.3375,-0.0003880674,5.0625,0
0.3384,-3.457694E-05,5.076,0,0.3384,-0.0004434577,5.076,0
0.3393,2.383459E-05,5.0895,0,0.3393,-0.0003424124,5.0895,0
0.3402,5.673304E-05,5.103,0,0.3402,5.874724E-05,5.103,0
0.3411,8.358892E-05,5.1165,0,0.3411,0.0002507668,5.1165,0
0.342,7.452507E-05,5.13,0,0.342,0.0003360342,5.13,0
0.3429,1.611353E-05,5.1435,0,0.3429,0.0002860151,5.1435,0
0.3438,-5.035477E-05,5.157,0,0.3438,0.0002665446,5.157,0
0.3447,-1.678492E-06,5.1705,0,0.3447,0.0002158541,5.1705,0
0.3456,6.848249E-05,5.184,0,0.3456,7.754635E-05,5.184,0
0.3465,-6.54612E-05,5.1975,0,0.3465,-1.678492E-05,5.1975,0
0.3474,-9.164568E-05,5.211,0,0.3474,7.687495E-05,5.211,0
0.3483,-7.217517E-05,5.2245,0,0.3483,6.009003E-05,5.2245,0
0.3492,-0.0001967193,5.238,0,0.3492,-9.063859E-06,5.238,0
0.3501,-0.0001738918,5.2515,0,0.3501,-4.46479E-05,5.2515,0
0.351,-0.0001171588,5.265,0,0.351,-0.0001299153,5.265,0
0.3519,-0.0001054093,5.2785,0,0.3519,-0.0001426719,5.2785,0
0.3528,2.484169E-05,5.292,0,0.3528,-0.0002212253,5.292,0
0.3537,0.0003256275,5.3055,0,0.3537,-0.0001705348,5.3055,0
0.3546,0.000383032,5.319,0,0.3546,-0.0001386435,5.319,0
0.3555,0.0002034333,5.3325,0,0.3555,-0.0001232013,5.3325,0
0.3564,0.0002450599,5.346,0,0.3564,5.505455E-05,5.346,0
0.3573,0.0001218585,5.3595,0,0.3573,0.000126894,5.3595,0
0.3582,-5.471885E-05,5.373,0,0.3582,-1.443504E-05,5.373,0
0.3591,-1.879912E-05,5.3865,0,0.3591,-9.869535E-05,5.3865,0
0.36,-6.243992E-05,5.4,0,0.36,6.915389E-05,5.4,0
0.3609,-0.0001017166,5.4135,0,0.3609,0.0001816129,5.4135,0
0.3618,-0.0001134661,5.427,0,0.3618,6.64683E-05,5.427,0
0.3627,2.014191E-05,5.4405,0,0.3627,2.450599E-05,5.4405,0
0.3636,-6.51255E-05,5.454,0,0.3636,-1.879912E-05,5.454,0
0.3645,-4.263371E-05,5.4675,0,0.3645,-9.970245E-05,5.4675,0
0.3654,-0.0001198444,5.481,0,0.3654,-0.0001567712,5.481,0
0.3663,-0.0001077592,5.4945,0,0.3663,-0.0002440528,5.4945,0
0.3672,-9.567407E-05,5.508,0,0.3672,-0.0003004501,5.508,0
0.3681,5.539025E-05,5.5215,0,0.3681,-0.0003837034,5.5215,0
0.369,0.0002547952,5.535,0,0.369,-0.000492134,5.535,0
0.3699,0.000115816,5.5485,0,0.3699,-0.0005263752,5.5485,0
0.3708,-9.701686E-05,5.562,0,0.3708,-0.000408545,5.562,0
0.3717,-0.0001148089,5.5755,0,0.3717,-5.236896E-05,5.5755,0
0.3726,-3.793393E-05,5.589,0,0.3726,0.0005602808,5.589,0
0.3735,4.36408E-06,5.6025,0,0.3735,0.0007126878,5.6025,0
0.3744,-7.049668E-06,5.616,0,0.3744,0.0005307393,5.616,0
0.3753,-8.69459E-05,5.6295,0,0.3753,0.0002977645,5.6295,0
0.3762,-6.814679E-05,5.643,0,0.3762,0.000164828,5.643,0
0.3771,-9.164568E-05,5.6565,0,0.3771,4.49836E-05,5.6565,0
0.378,-8.761731E-05,5.67,0,0.378,-8.258183E-05,5.67,0
0.3789,-5.001907E-05,5.6835,0,0.3789,-9.164568E-05,5.6835,0
0.3798,5.874724E-05,5.697,0,0.3798,-0.0001433432,5.697,0
0.3807,0.0001440146,5.7105,0,0.3807,-5.001907E-05,5.7105,0
0.3816,1.107805E-05,5.724,0,0.3816,8.291753E-05,5.724,0
0.3825,-0.0001171588,5.7375,0,0.3825,2.28275E-05,5.7375,0
0.3834,-4.867628E-05,5.751,0,0.3834,-1.812772E-05,5.751,0
0.3843,-3.692683E-06,5.7645,0,0.3843,-9.063859E-06,5.7645,0
0.3852,9.063859E-05,5.778,0,0.3852,-5.404745E-05,5.778,0
0.3861,0.0002034333,5.7915,0,0.3861,-0.0001107805,5.7915,0
0.387,0.0001681849,5.805,0,0.387,-8.661021E-05,5.805,0
0.3879,0.0001185016,5.8185,0,0.3879,-0.0001252155,5.8185,0
0.3888,8.96315E-05,5.832,0,0.3888,-8.392462E-05,5.832,0
0.3897,-2.047761E-05,5.8455,0,0.3897,-4.599069E-05,5.8455,0
0.3906,-4.565499E-05,5.859,0,0.3906,-0.0001957122,5.859,0
0.3915,0.0001114519,5.8725,0,0.3915,-0.0003185779,5.8725,0
0.3924,4.061952E-05,5.886,0,0.3924,-0.0004491646,5.886,0
0.3933,-9.802396E-05,5.8995,0,0.3933,-0.0006113069,5.8995,0
0.3942,-2.18204E-05,5.913,0,0.3942,-0.0003279774,5.913,0
0.3951,6.009003E-05,5.9265,0,0.3951,-3.927672E-05,5.9265,0
0.396,1.913481E-05,5.94,0,0.396,0.0004656138,5.94,0
0.3969,-4.061952E-05,5.9535,0,0.3969,0.0004938125,5.9535,0
0.3978,-9.365987E-05,5.967,0,0.3978,0.0003726253,5.967,0
0.3987,-7.922484E-05,5.9805,0,0.3987,0.0002960861,5.9805,0
0.3996,-3.793393E-05,5.994,0,0.3996,0.0002024262,5.994,0
0.4005,-0.0001460288,6.0075,0,0.4005,0.0002051118,6.0075,0
0.4014,-0.0001487144,6.021,0,0.4014,0.0001245441,6.021,0
0.4023,-0.0001463645,6.0345,0,0.4023,-7.385367E-06,6.0345,0
0.4032,-0.0001413291,6.048,0,0.4032,-2.652018E-05,6.048,0
0.4041,-7.687495E-05,6.0615,0,0.4041,-6.814679E-05,6.0615,0
0.405,-6.277562E-05,6.075,0,0.405,-9.365987E-05,6.075,0
0.4059,-1.779202E-05,6.0885,0,0.4059,-0.0001319295,6.0885,0
0.4068,2.786297E-05,6.102,0,0.4068,-0.000154757,6.102,0
0.4077,-8.392462E-06,6.1155,0,0.4077,-0.0001111162,6.1155,0
0.4086,9.399558E-06,6.129,0,0.4086,-4.36408E-06,6.129,0
0.4095,9.869535E-05,6.1425,0,0.4095,5.404745E-05,6.1425,0
0.4104,8.090334E-05,6.156,0,0.4104,-2.349889E-05,6.156,0
0.4113,5.706874E-06,6.1695,0,0.4113,-1.779202E-05,6.1695,0
0.4122,3.524834E-05,6.183,0,0.4122,3.927672E-05,6.183,0
0.4131,0.0001362936,6.1965,0,0.4131,8.023193E-05,6.1965,0
0.414,3.356985E-05,6.21,0,0.414,0.0002091402,6.21,0
0.4149,-1.141375E-05,6.2235,0,0.4149,0.0002165255,6.2235,0
0.4158,1.846342E-05,6.237,0,0.4158,0.0001312581,6.237,0
0.4167,1.040665E-05,6.2505,0,0.4167,4.599069E-05,6.2505,0
0.4176,-4.632639E-05,6.264,0,0.4176,-9.936675E-05,6.264,0
0.4185,2.349889E-05,6.2775,0,0.4185,-0.0001084306,6.2775,0
0.4194,-4.632639E-05,6.291,0,0.4194,-4.733349E-05,6.291,0
0.4203,-3.256275E-05,6.3045,0,0.4203,2.047761E-05,6.3045,0
0.4212,-5.807584E-05,6.318,0,0.4212,1.913481E-05,6.318,0
0.4221,-7.821774E-05,6.3315,0,0.4221,6.344701E-05,6.3315,0
0.423,4.934768E-05,6.345,0,0.423,9.164568E-05,6.345,0
0.4239,0.0001963836,6.3585,0,0.4239,-5.371176E-05,6.3585,0
0.4248,0.0002104829,6.372,0,0.4248,-0.0001728847,6.372,0
0.4257,0.0001889983,6.3855,0,0.4257,-0.0003320058,6.3855,0
0.4266,0.0001305867,6.399,0,0.4266,-0.0003588617,6.399,0
0.4275,5.807584E-05,6.4125,0,0.4275,-8.426032E-05,6.4125,0
0.4284,6.009003E-05,6.426,0,0.4284,0.0001601282,6.426,0
0.4293,0.0001554284,6.4395,0,0.4293,0.0002245823,6.4395,0
0.4302,0.0001487144,6.453,0,0.4302,0.0006348058,6.453,0
0.4311,-3.860533E-05,6.4665,0,0.4311,0.0004823987,6.4665,0
0.432,-0.0001822843,6.48,0,0.432,7.385367E-06,6.48,0
0.4329,-0.0003608759,6.4935,0,0.4329,-0.0002645304,6.4935,0
0.4338,-0.0003064927,6.507,0,0.4338,-0.0003652399,6.507,0
0.4347,-0.0002413672,6.5205,0,0.4347,-0.0002923934,6.5205,0
0.4356,-0.0002141756,6.534,0,0.4356,-0.000175906,6.534,0
0.4365,-0.0001416648,6.5475,0,0.4365,-0.0001215228,6.5475,0
0.4374,1.577783E-05,6.561,0,0.4374,-0.0001242084,6.561,0
0.4383,0.0002923934,6.5745,0,0.4383,-0.0001030594,6.5745,0
0.4392,0.0003138781,6.588,0,0.4392,-6.6804E-05,6.588,0
0.4401,0.0002198825,6.6015,0,0.4401,-4.43122E-05,6.6015,0
0.441,6.948959E-05,6.615,0,0.441,-3.927672E-05,6.615,0
0.4419,2.450599E-05,6.6285,0,0.4419,-0.0001299153,6.6285,0
0.4428,2.987716E-05,6.642,0,0.4428,-0.0001896696,6.642,0
0.4437,7.150377E-05,6.6555,0,0.4437,-0.0001064164,6.6555,0
0.4446,-2.685588E-06,6.669,0,0.4446,-0.000140322,6.669,0
0.4455,-3.021286E-05,6.6825,0,0.4455,-0.0001604639,6.6825,0
0.4464,-3.323415E-05,6.696,0,0.4464,-9.399557E-05,6.696,0
0.4473,6.411841E-05,6.7095,0,0.4473,-1.678492E-05,6.7095,0
0.4482,0.0001138018,6.723,0,0.4482,8.392462E-05,6.723,0
0.4491,-8.69459E-05,6.7365,0,0.4491,4.129091E-05,6.7365,0
0.45,-5.606165E-05,6.75,0,0.45,-1.309224E-05,6.75,0
0.4509,-1.007095E-05,6.7635,0,0.4509,9.063859E-06,6.7635,0
0.4518,-0.0001252155,6.777,0,0.4518,6.74754E-05,6.777,0
0.4527,-0.0001456931,6.7905,0,0.4527,1.510643E-05,6.7905,0
0.4536,-7.418937E-05,6.804,0,0.4536,-1.712062E-05,6.804,0
0.4545,-0.0001060807,6.8175,0,0.4545,0.0001131304,6.8175,0
0.4554,2.484169E-05,6.831,0,0.4554,0.0001040665,6.831,0
0.4563,0.0001104448,6.8445,0,0.4563,3.323415E-05,6.8445,0
0.4572,8.392462E-06,6.858,0,0.4572,-1.980621E-05,6.858,0
0.4581,-2.18204E-05,6.8715,0,0.4581,-8.258183E-05,6.8715,0
0.459,1.342794E-05,6.885,0,0.459,-5.673304E-05,6.885,0
0.4599,1.644922E-05,6.8985,0,0.4599,1.174945E-05,6.8985,0
0.4608,2.517739E-05,6.912,0,0.4608,-1.510643E-05,6.912,0
0.4617,3.356985E-06,6.9255,0,0.4617,-8.392462E-06,6.9255,0
0.4626,-3.793393E-05,6.939,0,0.4626,1.510643E-05,6.939,0
0.4635,-6.814679E-05,6.9525,0,0.4635,-4.36408E-05,6.9525,0
0.4644,-2.853437E-05,6.966,0,0.4644,-7.653925E-05,6.966,0
0.4653,-5.304036E-05,6.9795,0,0.4653,-3.021286E-05,6.9795,0
0.4662,-0.0001121233,6.993,0,0.4662,-2.786297E-05,6.993,0
0.4671,-7.888914E-05,7.0065,0,0.4671,-5.404745E-05,7.0065,0
0.468,-5.941863E-05,7.02,0,0.468,5.069047E-05,7.02,0
0.4689,-6.378271E-06,7.0335,0,0.4689,0.0001003738,7.0335,0
0.4698,4.666209E-05,7.047,0,0.4698,-0.0001329366,7.047,0
0.4707,2.786297E-05,7.0605,0,0.4707,-0.0002598306,7.0605,0
0.4716,2.047761E-05,7.074,0,0.4716,-0.0002500954,7.074,0
0.4725,-2.21561E-05,7.0875,0,0.4725,-0.0004743419,7.0875,0
0.4734,-5.740444E-05,7.101,0,0.4734,-0.0002997787,7.101,0
0.4743,-7.855344E-05,7.1145,0,0.4743,8.560311E-05,7.1145,0
0.4752,-0.0001131304,7.128,0,0.4752,0.0004065309,7.128,0
0.4761,-0.0001174945,7.1415,0,0.4761,0.0004884413,7.1415,0
0.477,-7.922484E-05,7.155,0,0.477,0.0002380102,7.155,0
0.4779,-5.404745E-05,7.1685,0,0.4779,-9.768826E-05,7.1685,0
0.4788,-3.121996E-05,7.182,0,0.4788,-0.000112459,7.182,0
0.4797,5.304036E-05,7.1955,0,0.4797,-0.0001171588,7.1955,0
0.4806,6.210422E-05,7.209,0,0.4806,-1.980621E-05,7.209,0
0.4815,1.309224E-05,7.2225,0,0.4815,0.0002064546,7.2225,0
0.4824,0.0001409934,7.236,0,0.4824,0.0002903792,7.236,0
0.4833,0.0001920195,7.2495,0,0.4833,0.0002380102,7.2495,0
0.4842,0.0003017929,7.263,0,0.4842,6.176852E-05,7.263,0
0.4851,0.0002178683,7.2765,0,0.4851,-5.035477E-06,7.2765,0
0.486,0.0001389792,7.29,0,0.486,4.800488E-05,7.29,0
0.4869,5.874724E-05,7.3035,0,0.4869,9.164568E-05,7.3035,0
0.4878,-1.007095E-06,7.317,0,0.4878,4.800488E-05,7.317,0
0.4887,-9.030289E-05,7.3305,0,0.4887,-2.618448E-05,7.3305,0
0.4896,-0.0001064164,7.344,0,0.4896,-4.263371E-05,7.344,0
0.4905,-1.342794E-06,7.3575,0,0.4905,-0.0001111162,7.3575,0
0.4914,6.74754E-05,7.371,0,0.4914,-9.903105E-05,7.371,0
0.4923,-0.0001426719,7.3845,0,0.4923,-0.0001164874,7.3845,0
0.4932,-0.0001842985,7.398,0,0.4932,-0.0002151827,7.398,0
0.4941,-3.524834E-05,7.4115,0,0.4941,-0.0002769512,7.4115,0
0.495,-0.0001567712,7.425,0,0.495,-0.0002712444,7.425,0
0.4959,-0.0001131304,7.4385,0,0.4959,-0.0002581521,7.4385,0
0.4968,-3.189136E-05,7.452,0,0.4968,-0.0002292821,7.452,0
0.4977,-8.123904E-05,7.4655,0,0.4977,-0.0001906767,7.4655,0
0.4986,-4.33051E-05,7.479,0,0.4986,5.471885E-05,7.479,0
0.4995,7.586786E-05,7.4925,0,0.4995,0.000218204,7.4925,0
0.5004,1.309224E-05,7.506,0,0.5004,0.0001198444,7.506,0
0.5013,-4.901198E-05,7.5195,0,0.5013,1.040665E-05,7.5195,0
0.5022,2.584878E-05,7.533,0,0.5022,-1.947051E-05,7.533,0
0.5031,3.726253E-05,7.5465,0,0.5031,-4.867628E-05,7.5465,0
0.504,-3.759823E-05,7.56,0,0.504,-0.0001634852,7.56,0
0.5049,1.040665E-05,7.5735,0,0.5049,-5.471885E-05,7.5735,0
0.5058,-6.478981E-05,7.587,0,0.5058,-3.121996E-05,7.587,0
0.5067,-9.433127E-05,7.6005,0,0.5067,-0.000200412,7.6005,0
0.5076,-0.0001366293,7.614,0,0.5076,-0.0003088426,7.614,0
0.5085,-0.0003363699,7.6275,0,0.5085,-0.0002903792,7.6275,0
0.5094,-0.0002098116,7.641,0,0.5094,-0.0003709468,7.641,0
0.5103,-2.887007E-05,7.6545,0,0.5103,-0.0002326391,7.6545,0
0.5112,0.0001205158,7.668,0,0.5112,0.0002447242,7.668,0
0.5121,0.0002541238,7.6815,0,0.5121,0.0005015335,7.6815,0
0.513,0.0003041428,7.695,0,0.513,0.0003971313,7.695,0
0.5139,0.000164828,7.7085,0,0.5139,0.0002897078,7.7085,0
0.5148,9.466698E-05,7.722,0,0.5148,0.000278294,7.722,0
0.5157,6.076142E-05,7.7355,0,0.5157,0.0003588617,7.7355,0
0.5166,6.78111E-05,7.749,0,0.5166,0.00033402,7.749,0
0.5175,5.203327E-05,7.7625,0,0.5175,0.0001285725,7.7625,0
0.5184,-3.726253E-05,7.776,0,0.5184,1.040665E-05,7.776,0
0.5193,-8.627451E-05,7.7895,0,0.5193,2.1149E-05,7.7895,0
0.5202,-6.478981E-05,7.803,0,0.5202,-2.081331E-05,7.803,0
0.5211,4.43122E-05,7.8165,0,0.5211,-0.0001161517,7.8165,0
0.522,-3.390555E-05,7.83,0,0.522,-6.042573E-05,7.83,0
0.5229,-8.358892E-05,7.8435,0,0.5229,-7.150377E-05,7.8435,0
0.5238,-2.752728E-05,7.857,0,0.5238,-0.0001440146,7.857,0
0.5247,2.887007E-05,7.8705,0,0.5247,-0.0001456931,7.8705,0
0.5256,-8.392462E-06,7.884,0,0.5256,-0.0001050736,7.884,0
0.5265,-4.36408E-06,7.8975,0,0.5265,-9.365987E-05,7.8975,0
0.5274,-6.378271E-05,7.911,0,0.5274,-0.0001000381,7.911,0
0.5283,-5.471885E-05,7.9245,0,0.5283,-3.121996E-05,7.9245,0
0.5292,-8.761731E-05,7.938,0,0.5292,-2.047761E-05,7.938,0
0.5301,-0.0001628138,7.9515,0,0.5301,-0.0001013809,7.9515,0
0.531,-6.277562E-05,7.965,0,0.531,-0.0001493858,7.965,0
0.5319,-2.484169E-05,7.9785,0,0.5319,-0.0002104829,7.9785,0
0.5328,-0.0001319295,7.992,0,0.5328,-0.0001373007,7.992,0
0.5337,-2.1149E-05,8.0055,0,0.5337,-0.0001010452,8.0055,0
0.5346,9.634547E-05,8.019,0,0.5346,-0.0001634852,8.019,0
0.5355,-5.169757E-05,8.0325,0,0.5355,-2.786297E-05,8.0325,0
0.5364,-1.376364E-05,8.046,0,0.5364,8.996719E-05,8.046,0
0.5373,7.989624E-05,8.0595,0,0.5373,0.0001044022,8.0595,0
0.5382,-9.466698E-05,8.073,0,0.5382,-2.853437E-05,8.073,0
0.5391,-0.0001628138,8.0865,0,0.5391,-0.0001346151,8.0865,0
0.54,-1.376364E-05,8.1,0,0.54,3.558404E-05,8.1,0
0.5409,4.733349E-05,8.1135,0,0.5409,0.0001252155,8.1135,0
0.5418,0.0001084306,8.127,0,0.5418,0.0002752728,8.127,0
0.5427,7.956054E-05,8.1405,0,0.5427,0.0004928054,8.1405,0
0.5436,4.599069E-05,8.154,0,0.5436,0.0003743038,8.154,0
0.5445,4.565499E-05,8.1675,0,0.5445,0.0001262226,8.1675,0
0.5454,6.378271E-06,8.181,0,0.5454,4.263371E-05,8.181,0
0.5463,-6.210422E-05,8.1945,0,0.5463,3.289845E-05,8.1945,0
0.5472,-4.196231E-05,8.208,0,0.5472,1.376364E-05,8.208,0
0.5481,5.941863E-05,8.2215,0,0.5481,-3.793393E-05,8.2215,0
0.549,9.735256E-06,8.235,0,0.549,-5.203327E-05,8.235,0
0.5499,7.721065E-06,8.2485,0,0.5499,-5.371176E-05,8.2485,0
0.5508,6.61326E-05,8.262,0,0.5508,-6.74754E-05,8.262,0
0.5517,1.544213E-05,8.2755,0,0.5517,-3.625543E-05,8.2755,0
0.5526,-4.028382E-06,8.289,0,0.5526,1.376364E-05,8.289,0
0.5535,3.356985E-07,8.3025,0,0.5535,-4.061952E-05,8.3025,0
0.5544,-7.721065E-06,8.316,0,0.5544,-9.701686E-05,8.316,0
0.5553,3.356985E-06,8.3295,0,0.5553,-0.000112459,8.3295,0
0.5562,-1.141375E-05,8.343,0,0.5562,-0.0001188373,8.343,0
0.5571,-6.109713E-05,8.3565,0,0.5571,-0.0002923934,8.3565,0
0.558,1.980621E-05,8.37,0,0.558,-0.0003565118,8.37,0
0.5589,-3.659113E-05,8.3835,0,0.5589,-0.0004800488,8.3835,0
0.5598,-0.0002333104,8.397,0,0.5598,-0.0007167163,8.397,0
0.5607,-0.0001654994,8.4105,0,0.5607,-0.0005273823,8.4105,0
0.5616,2.1149E-05,8.424,0,0.5616,0.0001285725,8.424,0
0.5625,0.0001007095,8.4375,0,0.5625,0.0004045167,8.4375,0
0.5634,4.263371E-05,8.451,0,0.5634,0.0002628519,8.451,0
0.5643,5.035477E-06,8.4645,0,0.5643,0.0003578546,8.4645,0
0.5652,-2.081331E-05,8.478,0,0.5652,0.0002756084,8.478,0
0.5661,-1.309224E-05,8.4915,0,0.5661,1.242084E-05,8.4915,0
0.567,-3.424125E-05,8.505,0,0.567,-5.841154E-05,8.505,0
0.5679,-5.941863E-05,8.5185,0,0.5679,-0.0001624781,8.5185,0
0.5688,6.243992E-05,8.532,0,0.5688,-0.0001785916,8.532,0
0.5697,0.0001107805,8.5455,0,0.5697,-0.0001631495,8.5455,0
0.5706,8.392462E-05,8.559,0,0.5706,0.0001111162,8.559,0
0.5715,8.996719E-05,8.5725,0,0.5715,0.0002893721,8.5725,0
0.5724,9.500267E-05,8.586,0,0.5724,0.0001926909,8.586,0
0.5733,1.040665E-05,8.5995,0,0.5733,0.000197055,8.5995,0
0.5742,-8.728161E-06,8.613,0,0.5742,0.0001171588,8.613,0
0.5751,-2.1149E-05,8.6265,0,0.5751,-6.076142E-05,8.6265,0
0.576,-0.0001658351,8.64,0,0.576,-0.000102388,8.64,0
0.5769,-0.0001272297,8.6535,0,0.5769,-0.0002077974,8.6535,0
0.5778,-3.793393E-05,8.667,0,0.5778,-0.0003528191,8.667,0
0.5787,-0.0001003738,8.6805,0,0.5787,-0.0003105211,8.6805,0
0.5796,-0.0001587854,8.694,0,0.5796,-0.0002467384,8.694,0
0.5805,-0.0001252155,8.7075,0,0.5805,-8.89601E-05,8.7075,0
0.5814,-2.786297E-05,8.721,0,0.5814,-1.342794E-05,8.721,0
0.5823,6.076142E-05,8.7345,0,0.5823,7.452507E-05,8.7345,0
0.5832,4.39765E-05,8.748,0,0.5832,0.0003132067,8.748,0
0.5841,-9.164568E-05,8.7615,0,0.5841,-1.141375E-05,8.7615,0
0.585,-0.0001285725,8.775,0,0.585,-0.0001440146,8.775,0
0.5859,-2.517739E-05,8.7885,0,0.5859,-3.726253E-05,8.7885,0
0.5868,2.349889E-05,8.802,0,0.5868,4.733349E-05,8.802,0
0.5877,-8.560311E-05,8.8155,0,0.5877,6.478981E-05,8.8155,0
0.5886,-8.761731E-05,8.829,0,0.5886,-1.678492E-05,8.829,0
0.5895,-9.365987E-05,8.8425,0,0.5895,-0.0001101091,8.8425,0
0.5904,-1.913481E-05,8.856,0,0.5904,-0.0001510643,8.856,0
0.5913,0.0001171588,8.8695,0,0.5913,-0.0003276417,8.8695,0
0.5922,0.000158114,8.883,0,0.5922,-0.0004129091,8.883,0
0.5931,0.0001044022,8.8965,0,0.5931,-0.0003555047,8.8965,0
0.594,0.0001685206,8.91,0,0.594,-0.0005797513,8.91,0
0.5949,0.0001295796,8.9235,0,0.5949,-0.00042533,8.9235,0
0.5958,0.0001319295,8.937,0,0.5958,0.0002279393,8.937,0
0.5967,9.030289E-05,8.9505,0,0.5967,0.0009127642,8.9505,0
0.5976,2.987716E-05,8.964,0,0.5976,0.0008825513,8.964,0
0.5985,6.54612E-05,8.9775,0,0.5985,0.0006495765,8.9775,0
0.5994,6.61326E-05,8.991,0,0.5994,0.0005085832,8.991,0
0.6003,-1.644922E-05,9.0045,0,0.6003,0.0003863889,9.0045,0
0.6012,4.028382E-06,9.018,0,0.6012,0.000190341,9.018,0
0.6021,3.726253E-05,9.0315,0,0.6021,3.054856E-05,9.0315,0
0.603,1.678492E-06,9.045,0,0.603,-2.1149E-05,9.045,0
0.6039,7.821774E-05,9.0585,0,0.6039,-6.009003E-05,9.0585,0
0.6048,0.0001963836,9.072001,0,0.6048,-0.0001084306,9.072001,0
0.6057,0.000123537,9.0855,0,0.6057,-0.0001151446,9.0855,0
0.6066,9.466698E-05,9.099,0,0.6066,-8.224613E-05,9.099,0
0.6075,0.0001265583,9.1125,0,0.6075,-9.466698E-05,9.1125,0
0.6084,6.076142E-05,9.126,0,0.6084,-0.0001822843,9.126,0
0.6093,3.591974E-05,9.1395,0,0.6093,-0.0002188754,9.1395,0
0.6102,2.517739E-05,9.153,0,0.6102,-0.0002480812,9.153,0
0.6111,-1.040665E-05,9.1665,0,0.6111,-0.0002124971,9.1665,0
0.612,-6.076142E-05,9.18,0,0.612,-0.0001557641,9.18,0
0.6129,-2.517739E-05,9.1935,0,0.6129,-9.063859E-05,9.1935,0
0.6138,-3.793393E-05,9.207,0,0.6138,-5.740444E-05,9.207,0
0.6147,-5.270466E-05,9.2205,0,0.6147,-8.392462E-05,9.2205,0
0.6156,-2.450599E-05,9.234,0,0.6156,-0.0001373007,9.234,0
0.6165,-7.385367E-06,9.2475,0,0.6165,-0.0001030594,9.2475,0
0.6174,2.517739E-05,9.261,0,0.6174,-0.0001033951,9.261,0
0.6183,5.941863E-05,9.2745,0,0.6183,-0.0001527428,9.2745,0
0.6192,6.478981E-05,9.288,0,0.6192,-0.0001067521,9.288,0
0.6201,-1.947051E-05,9.3015,0,0.6201,-1.040665E-05,9.3015,0
0.621,-2.752728E-05,9.315,0,0.621,2.349889E-06,9.315,0
0.6219,-0.0001554284,9.3285,0,0.6219,-4.834058E-05,9.3285,0
0.6228,-0.0002259251,9.342,0,0.6228,-2.517739E-05,9.342,0
0.6237,-0.0002437171,9.3555,0,0.6237,8.560311E-05,9.3555,0
0.6246,-0.0002635233,9.369,0,0.6246,3.323415E-05,9.369,0
0.6255,-0.0002286107,9.3825,0,0.6255,-0.0001295796,9.3825,0
0.6264,-0.0002635233,9.396,0,0.6264,-0.0005270466,9.396,0
0.6273,-0.0002930648,9.4095,0,0.6273,-0.0006764324,9.4095,0
0.6282,-0.0002111543,9.423,0,0.6282,-0.0006656901,9.423,0
0.6291,-0.0001567712,9.4365,0,0.6291,-0.0005116045,9.4365,0
0.63,-0.0001896696,9.45,0,0.63,0.0001876554,9.45,0
0.6309,0.000126894,9.4635,0,0.6309,0.0008375677,9.4635,0
0.6318,0.0002396887,9.477,0,0.6318,0.0006844892,9.477,0
0.6327,9.768826E-05,9.4905,0,0.6327,0.00051664,9.4905,0
0.6336,9.433127E-05,9.504,0,0.6336,0.0006267491,9.504,0
0.6345,1.678492E-06,9.5175,0,0.6345,0.0004746777,9.5175,0
0.6354,2.014191E-06,9.531,0,0.6354,0.0002947433,9.531,0
0.6363,6.6804E-05,9.5445,0,0.6363,0.0002286107,9.5445,0
0.6372,5.774014E-05,9.558,0,0.6372,0.0001067521,9.558,0
0.6381,-1.678492E-06,9.5715,0,0.6381,1.913481E-05,9.5715,0
0.639,-4.867628E-05,9.585,0,0.639,-5.606165E-05,9.585,0
0.6399,9.399558E-06,9.5985,0,0.6399,-0.0001164874,9.5985,0
0.6408,-9.567407E-05,9.612,0,0.6408,-0.0001460288,9.612,0
0.6417,-8.023193E-05,9.6255,0,0.6417,-0.0002913863,9.6255,0
0.6426,6.042573E-06,9.639,0,0.6426,-0.0003944457,9.639,0
0.6435,-1.376364E-05,9.6525,0,0.6435,-0.000316228,9.6525,0
0.6444,9.097429E-05,9.666,0,0.6444,-0.0003078355,9.666,0
0.6453,0.0001386435,9.6795,0,0.6453,-0.0002735943,9.6795,0
0.6462,5.035477E-06,9.693,0,0.6462,3.726253E-05,9.693,0
0.6471,-9.097429E-05,9.7065,0,0.6471,0.0003927672,9.7065,0
0.648,-9.970245E-05,9.72,0,0.648,0.0004145876,9.72,0
0.6489,-0.0002312963,9.7335,0,0.6489,4.263371E-05,9.7335,0
0.6498,-0.0002084688,9.747,0,0.6498,1.342794E-06,9.747,0
0.6507,-0.0001373007,9.7605,0,0.6507,3.323415E-05,9.7605,0
0.6516,-1.947051E-05,9.774,0,0.6516,-4.36408E-06,9.774,0
0.6525,-2.987716E-05,9.7875,0,0.6525,-9.735256E-05,9.7875,0
0.6534,-3.256275E-05,9.801,0,0.6534,-0.0002893721,9.801,0
0.6543,6.344701E-05,9.8145,0,0.6543,-0.0001493858,9.8145,0
0.6552,0.0001806058,9.828,0,0.6552,-0.0001470359,9.828,0
0.6561,0.0001738918,9.8415,0,0.6561,-0.0001883268,9.8415,0
0.657,0.0001070878,9.855,0,0.657,-0.0001681849,9.855,0
0.6579,0.0001030594,9.8685,0,0.6579,-0.0001007095,9.8685,0
0.6588,0.000161471,9.882,0,0.6588,1.779202E-05,9.882,0
0.6597,0.0001097734,9.8955,0,0.6597,-2.887007E-05,9.8955,0
0.6606,-3.894102E-05,9.909,0,0.6606,3.726253E-05,9.909,0
0.6615,-3.289845E-05,9.9225,0,0.6615,0.0002104829,9.9225,0
0.6624,-3.927672E-05,9.936,0,0.6624,0.0003011215,9.936,0
0.6633,-1.644922E-05,9.9495,0,0.6633,7.620356E-05,9.9495,0
0.6642,2.349889E-06,9.963,0,0.6642,2.417029E-05,9.963,0
0.6651,0.0001010452,9.976501,0,0.6651,2.987716E-05,9.976501,0
0.666,0.0002480812,9.99,0,0.666,-1.577783E-05,9.99,0
0.6669,0.0001245441,10.0035,0,0.6669,-2.719158E-05,10.0035,0
0.6678,-3.390555E-05,10.017,0,0.6678,-6.042573E-05,10.017,0
0.6687,2.24918E-05,10.0305,0,0.6687,-0.0001319295,10.0305,0
0.6696,3.994812E-05,10.044,0,0.6696,-0.0003155566,10.044,0
0.6705,-4.36408E-06,10.0575,0,0.6705,-0.00033402,10.0575,0
0.6714,5.706874E-06,10.071,0,0.6714,-0.0004884413,10.071,0
0.6723,-1.577783E-05,10.0845,0,0.6723,-0.0004508431,10.0845,0
0.6732,-9.701686E-05,10.098,0,0.6732,-3.558404E-05,10.098,0
0.6741,-4.33051E-05,10.1115,0,0.6741,0.0003081712,10.1115,0
0.675,6.74754E-05,10.125,0,0.675,0.0002715801,10.125,0
0.6759,-4.699779E-06,10.1385,0,0.6759,0.0001070878,10.1385,0
0.6768,-9.063859E-06,10.152,0,0.6768,-0.0001238727,10.152,0
0.6777,-2.316319E-05,10.1655,0,0.6777,-0.0001399863,10.1655,0
0.6786,-4.968337E-05,10.179,0,0.6786,0.0001782559,10.179,0
0.6795,3.356985E-07,10.1925,0,0.6795,0.0006307774,10.1925,0
0.6804,-1.678492E-06,10.206,0,0.6804,0.0004783703,10.206,0
0.6813,-9.365987E-05,10.2195,0,0.6813,0.0001722133,10.2195,0
0.6822,-0.0001141375,10.233,0,0.6822,4.599069E-05,10.233,0
0.6831,-2.014191E-05,10.2465,0,0.6831,-3.256275E-05,10.2465,0
0.684,-4.901198E-05,10.26,0,0.684,5.304036E-05,10.26,0
0.6849,-7.687495E-05,10.2735,0,0.6849,-2.014191E-06,10.2735,0
0.6858,-7.821774E-05,10.287,0,0.6858,-6.814679E-05,10.287,0
0.6867,3.054856E-05,10.3005,0,0.6867,6.915389E-05,10.3005,0
0.6876,9.332418E-05,10.314,0,0.6876,0.0001406577,10.314,0
0.6885,0.0002235752,10.3275,0,0.6885,0.0001842985,10.3275,0
0.6894,0.0001822843,10.341,0,0.6894,2.24918E-05,10.341,0
0.6903,0.000109102,10.3545,0,0.6903,-4.29694E-05,10.3545,0
0.6912,2.752728E-05,10.368,0,0.6912,4.766919E-05,10.368,0
0.6921,-2.484169E-05,10.3815,0,0.6921,-9.903105E-05,10.3815,0
0.693,-8.560311E-05,10.395,0,0.693,-0.0002145113,10.395,0
0.6939,-6.57969E-05,10.4085,0,0.6939,-0.0001940337,10.4085,0
0.6948,1.678492E-06,10.422,0,0.6948,-9.298848E-05,10.422,0
0.6957,0.0001121233,10.4355,0,0.6957,-2.887007E-05,10.4355,0
0.6966,0.0001769131,10.449,0,0.6966,-8.493171E-05,10.449,0
0.6975,9.298848E-05,10.4625,0,0.6975,-0.000109102,10.4625,0
0.6984,6.6804E-05,10.476,0,0.6984,-0.0001195087,10.476,0
0.6993,-3.356985E-06,10.4895,0,0.6993,-0.000186984,10.4895,0
0.7002,1.510643E-05,10.503,0,0.7002,-0.0002269322,10.503,0
0.7011,-8.090334E-05,10.5165,0,0.7011,-0.0002242466,10.5165,0
0.702,-0.0001886625,10.53,0,0.702,-0.0001171588,10.53,0
0.7029,-6.881819E-05,10.5435,0,0.7029,-5.438316E-05,10.5435,0
0.7038,0.0001070878,10.557,0,0.7038,-9.701686E-05,10.557,0
0.7047,2.652018E-05,10.5705,0,0.7047,-8.661021E-05,10.5705,0
0.7056,-0.0001762417,10.584,0,0.7056,-0.0001705348,10.584,0
0.7065,-0.0001829557,10.5975,0,0.7065,-0.0002124971,10.5975,0
0.7074,-0.0001342794,10.611,0,0.7074,-0.0002611734,10.611,0
0.7083,-0.0001292439,10.6245,0,0.7083,-0.0002084688,10.6245,0
0.7092,-5.774014E-05,10.638,0,0.7092,-0.0001185016,10.638,0
0.7101,1.712062E-05,10.6515,0,0.7101,0.0001265583,10.6515,0
0.711,-7.083238E-05,10.665,0,0.711,0.0002762798,10.665,0
0.7119,0.0001587854,10.6785,0,0.7119,0.0002131685,10.6785,0
0.7128,0.000288365,10.692,0,0.7128,0.000102388,10.692,0
0.7137,2.987716E-05,10.7055,0,0.7137,-0.0001305867,10.7055,0
0.7146,-9.768826E-05,10.719,0,0.7146,-0.0003038071,10.719,0
0.7155,-5.203327E-05,10.7325,0,0.7155,-0.0004864271,10.7325,0
0.7164,-1.107805E-05,10.746,0,0.7164,-0.000285008,10.746,0
0.7173,3.457694E-05,10.7595,0,0.7173,2.18204E-05,10.7595,0
0.7182,-3.591974E-05,10.773,0,0.7182,0.000327306,10.773,0
0.7191,-0.0001910124,10.7865,0,0.7191,0.0002719158,10.7865,0
0.72,-0.0001601282,10.8,0,0.72,0.0001020523,10.8,0
0.7209,-7.888914E-05,10.8135,0,0.7209,-7.721065E-05,10.8135,0
0.7218,-5.505455E-05,10.827,0,0.7218,3.021286E-05,10.827,0
0.7227,-6.713969E-06,10.8405,0,0.7227,1.980621E-05,10.8405,0
0.7236,4.934768E-05,10.854,0,0.7236,-3.457694E-05,10.854,0
0.7245,-8.526741E-05,10.8675,0,0.7245,0.0001554284,10.8675,0
0.7254,-0.000126894,10.881,0,0.7254,0.0002937362,10.881,0
0.7263,-8.426032E-05,10.8945,0,0.7263,0.0003454337,10.8945,0
0.7272,-0.0001070878,10.908,0,0.7272,0.0002051118,10.908,0
0.7281,-5.136187E-05,10.9215,0,0.7281,-5.035477E-05,10.9215,0
0.729,0.0001896696,10.935,0,0.729,-0.0001493858,10.935,0
0.7299,0.0002474098,10.9485,0,0.7299,-0.000193698,10.9485,0
0.7308,0.0001185016,10.962,0,0.7308,-0.0001678492,10.962,0
0.7317,6.57969E-05,10.9755,0,0.7317,9.835965E-05,10.9755,0
0.7326,6.042573E-06,10.989,0,0.7326,0.0002668803,10.989,0
0.7335,8.92958E-05,11.0025,0,0.7335,0.0002628519,11.0025,0
0.7344,0.0001064164,11.016,0,0.7344,0.0002695659,11.016,0
0.7353,1.644922E-05,11.0295,0,0.7353,0.0001215228,11.0295,0
0.7362,-9.399558E-06,11.043,0,0.7362,1.174945E-05,11.043,0
0.7371,4.095522E-05,11.0565,0,0.7371,-0.0001245441,11.0565,0
0.738,-5.706874E-06,11.07,0,0.738,-0.0001312581,11.07,0
0.7389,1.242084E-05,11.0835,0,0.7389,-0.0003444266,11.0835,0
0.7398,-5.404745E-05,11.097,0,0.7398,-0.0005639734,11.097,0
0.7407,-0.0001265583,11.1105,0,0.7407,-0.0005972076,11.1105,0
0.7416,-0.0001117876,11.124,0,0.7416,-0.0004595712,11.124,0
0.7425,-0.0001332723,11.1375,0,0.7425,-0.0002014191,11.1375,0
0.7434,-0.0001748989,11.151,0,0.7434,-5.774014E-05,11.151,0
0.7443,-0.0001245441,11.1645,0,0.7443,0.0002017548,11.1645,0
0.7452,-9.231708E-05,11.178,0,0.7452,0.000408545,11.178,0
0.7461,-2.417029E-05,11.1915,0,0.7461,0.0004508431,11.1915,0
0.747,2.081331E-05,11.205,0,0.747,0.0002695659,11.205,0
0.7479,0.000105745,11.2185,0,0.7479,0.0002433814,11.2185,0
0.7488,0.000119173,11.232,0,0.7488,0.0001597925,11.232,0
0.7497,7.452507E-05,11.2455,0,0.7497,-0.0002094759,11.2455,0
0.7506,0.0001849699,11.259,0,0.7506,-0.0003877317,11.259,0
0.7515,0.0001352865,11.2725,0,0.7515,-0.0001067521,11.2725,0
0.7524,8.157473E-05,11.286,0,0.7524,-3.826963E-05,11.286,0
0.7533,6.54612E-05,11.2995,0,0.7533,-5.572595E-05,11.2995,0
0.7542,1.678492E-06,11.313,0,0.7542,8.157473E-05,11.313,0
0.7551,-5.001907E-05,11.3265,0,0.7551,0.0002517739,11.3265,0
0.756,-7.888914E-05,11.34,0,0.756,8.627451E-05,11.34,0
0.7569,-8.191043E-05,11.3535,0,0.7569,-5.471885E-05,11.3535,0
0.7578,-3.323415E-05,11.367,0,0.7578,8.056763E-06,11.367,0
0.7587,-6.6804E-05,11.3805,0,0.7587,-6.378271E-05,11.3805,0
0.7596,-0.000112459,11.394,0,0.7596,-9.936675E-05,11.394,0
0.7605,-0.0001007095,11.4075,0,0.7605,4.229801E-05,11.4075,0
0.7614,-5.337606E-05,11.421,0,0.7614,7.418937E-05,11.421,0
0.7623,2.450599E-05,11.4345,0,0.7623,0.0001473716,11.4345,0
0.7632,3.121996E-05,11.448,0,0.7632,4.39765E-05,11.448,0
0.7641,-5.841154E-05,11.4615,0,0.7641,-0.0001782559,11.4615,0
0.765,-4.46479E-05,11.475,0,0.765,-0.0001769131,11.475,0
0.7659,2.987716E-05,11.4885,0,0.7659,-0.0001238727,11.4885,0
0.7668,4.39765E-05,11.502,0,0.7668,-3.256275E-05,11.502,0
0.7677,-1.846342E-05,11.5155,0,0.7677,-0.000164828,11.5155,0
0.7686,-3.323415E-05,11.529,0,0.7686,-0.0004092164,11.529,0
0.7695,-6.042573E-06,11.5425,0,0.7695,-0.0006227207,11.5425,0
0.7704,6.042573E-06,11.556,0,0.7704,-0.000671397,11.556,0
0.7713,7.284657E-05,11.5695,0,0.7713,-0.0006099641,11.5695,0
0.7722,0.000115816,11.583,0,0.7722,-4.599069E-05,11.583,0
0.7731,0.0002104829,11.5965,0,0.7731,0.0008268254,11.5965,0
0.774,0.0001735561,11.61,0,0.774,0.0007435721,11.61,0
0.7749,0.0001084306,11.6235,0,0.7749,0.0003685969,11.6235,0
0.7758,3.793393E-05,11.637,0,0.7758,0.0001769131,11.637,0
0.7767,7.217517E-05,11.6505,0,0.7767,0.0002262608,11.6505,0
0.7776,3.994812E-05,11.664,0,0.7776,0.0003219348,11.664,0
0.7785,-0.0001228656,11.6775,0,0.7785,0.000330663,11.6775,0
0.7794,-9.298848E-05,11.691,0,0.7794,0.000207126,11.691,0
0.7803,-0.0001232013,11.7045,0,0.7803,3.726253E-05,11.7045,0
0.7812,-0.0001685206,11.718,0,0.7812,-8.392462E-06,11.718,0
0.7821,-0.0001530785,11.7315,0,0.7821,-0.0001101091,11.7315,0
0.783,-0.0001138018,11.745,0,0.783,-0.0001138018,11.745,0
0.7839,-0.0001534142,11.7585,0,0.7839,-9.231708E-05,11.7585,0
0.7848,-8.023193E-05,11.772,0,0.7848,-0.0001201801,11.772,0
0.7857,-7.721065E-05,11.7855,0,0.7857,-0.0001174945,11.7855,0
0.7866,-0.0002554666,11.799,0,0.7866,-0.0001084306,11.799,0
0.7875,-0.0002870222,11.8125,0,0.7875,-7.721065E-05,11.8125,0
0.7884,-0.0002121614,11.826,0,0.7884,-0.0001117876,11.826,0
0.7893,-0.0002675517,11.8395,0,0.7893,-0.000105745,11.8395,0
0.7902,-0.0002091402,11.853,0,0.7902,-0.0001342794,11.853,0
0.7911,1.913481E-05,11.8665,0,0.7911,-0.0001587854,11.8665,0
0.792,0.0001393149,11.88,0,0.792,-6.478981E-05,11.88,0
0.7929,0.0003494621,11.8935,0,0.7929,-6.478981E-05,11.8935,0
0.7938,0.0002655375,11.907,0,0.7938,-0.000102388,11.907,0
0.7947,6.51255E-05,11.9205,0,0.7947,-5.606165E-05,11.9205,0
0.7956,-0.0001245441,11.934,0,0.7956,-6.881819E-05,11.934,0
0.7965,1.309224E-05,11.9475,0,0.7965,-3.021286E-06,11.9475,0
0.7974,9.399557E-05,11.961,0,0.7974,7.989624E-05,11.961,0
0.7983,0.0001571069,11.9745,0,0.7983,-6.311131E-05,11.9745,0
0.7992,5.941863E-05,11.988,0,0.7992,-0.0002957504,11.988,0
0.8001,-0.0001141375,12.0015,0,0.8001,-0.0004901198,12.0015,0
0.801,-0.0001537499,12.015,0,0.801,-0.000594522,12.015,0
0.8019,-0.0001070878,12.0285,0,0.8019,-0.000604593,12.0285,0
0.8028,-6.210422E-05,12.042,0,0.8028,-0.0002756084,12.042,0
0.8037,2.349889E-06,12.0555,0,0.8037,0.0006609903,12.0555,0
0.8046,8.358892E-05,12.069,0,0.8046,0.001318288,12.069,0
0.8055,-1.309224E-05,12.0825,0,0.8055,0.0007959411,12.0825,0
0.8064,5.001907E-05,12.096,0,0.8064,0.0003810178,12.096,0
0.8073,4.53193E-05,12.1095,0,0.8073,0.0001930266,12.1095,0
0.8082,-2.081331E-05,12.123,0,0.8082,7.553216E-05,12.123,0
0.8091,-1.779202E-05,12.1365,0,0.8091,7.956054E-05,12.1365,0
0.81,1.947051E-05,12.15,0,0.81,-2.752728E-05,12.15,0
0.8109,-8.392462E-06,12.1635,0,0.8109,-0.0001712062,12.1635,0
0.8118,1.309224E-05,12.177,0,0.8118,-0.0001527428,12.177,0
0.8127,-8.392462E-05,12.1905,0,0.8127,-0.0001631495,12.1905,0
0.8136,-7.016098E-05,12.204,0,0.8136,-0.0002856794,12.204,0
0.8145,6.042573E-05,12.2175,0,0.8145,-0.0002514381,12.2175,0
0.8154,6.411841E-05,12.231,0,0.8154,-0.0001225299,12.231,0
0.8163,4.733349E-05,12.2445,0,0.8163,1.477073E-05,12.2445,0
0.8172,0.000109102,12.258,0,0.8172,6.61326E-05,12.258,0
0.8181,5.874724E-05,12.2715,0,0.8181,-0.0001205158,12.2715,0
0.819,-0.0001299153,12.285,0,0.819,-0.0003205921,12.285,0
0.8199,-0.0002030976,12.2985,0,0.8199,-0.0005841153,12.2985,0
0.8208,-0.0001352865,12.312,0,0.8208,-0.0006203708,12.312,0
0.8217,-1.309224E-05,12.3255,0,0.8217,-0.0005159685,12.3255,0
0.8226,0.0001406577,12.339,0,0.8226,-0.0002229038,12.339,0
0.8235,0.0002641947,12.3525,0,0.8235,0.0001238727,12.3525,0
0.8244,0.0003356985,12.366,0,0.8244,0.0002786297,12.366,0
0.8253,0.0003172351,12.3795,0,0.8253,0.0002296178,12.3795,0
0.8262,0.0001671778,12.393,0,0.8262,0.0003481193,12.393,0
0.8271,8.560311E-05,12.4065,0,0.8271,0.0004293584,12.4065,0
0.828,4.129091E-05,12.42,0,0.828,0.0002333104,12.42,0
0.8289,4.666209E-05,12.4335,0,0.8289,6.210422E-05,12.4335,0
0.8298,-6.713969E-06,12.447,0,0.8298,-4.061952E-05,12.447,0
0.8307,-4.666209E-05,12.4605,0,0.8307,-0.0001732204,12.4605,0
0.8316,-1.007095E-06,12.474,0,0.8316,-0.0003192493,12.474,0
0.8325,-5.136187E-05,12.4875,0,0.8325,-0.0002699016,12.4875,0
0.8334,-9.231708E-05,12.501,0,0.8334,-0.0001265583,12.501,0
0.8343,-2.316319E-05,12.5145,0,0.8343,0.000185977,12.5145,0
0.8352,6.51255E-05,12.528,0,0.8352,0.0004145876,12.528,0
0.8361,4.599069E-05,12.5415,0,0.8361,0.0004823987,12.5415,0
0.837,0,12.555,0,0.837,0.0003333486,12.555,0
0.8379,-8.325322E-05,12.5685,0,0.8379,9.164568E-05,12.5685,0
0.8388,-9.298848E-05,12.582,0,0.8388,-4.36408E-05,12.582,0
0.8397,-8.89601E-05,12.5955,0,0.8397,3.961242E-05,12.5955,0
0.8406,-0.0001188373,12.609,0,0.8406,0.0001064164,12.609,0
0.8415,-3.591974E-05,12.6225,0,0.8415,0.0001896696,12.6225,0
0.8424,-7.721065E-06,12.636,0,0.8424,0.0002715801,12.636,0
0.8433,-9.735256E-05,12.6495,0,0.8433,0.000285008,12.6495,0
0.8442,-0.0001748989,12.663,0,0.8442,0.0001560998,12.663,0
0.8451,-0.0002682231,12.6765,0,0.8451,-1.577783E-05,12.6765,0
0.846,-0.0004239872,12.69,0,0.846,-0.0003685969,12.69,0
0.8469,-0.0003931029,12.7035,0,0.8469,-0.0009322347,12.7035,0
0.8478,-0.0003843748,12.717,0,0.8478,-0.001344808,12.717,0
0.8487,-0.0001238727,12.7305,0,0.8487,-0.001043687,12.7305,0
0.8496,0.0002145113,12.744,0,0.8496,-0.0006485695,12.744,0
0.8505,0.0004682994,12.7575,0,0.8505,-2.987716E-05,12.7575,0
0.8514,0.0005871367,12.771,0,0.8514,0.0008724803,12.771,0
0.8523,0.0004531929,12.7845,0,0.8523,0.001564691,12.7845,0
0.8532,0.0001836271,12.798,0,0.8532,0.001181323,12.798,0
0.8541,9.634547E-05,12.8115,0,0.8541,0.0006052644,12.8115,0
0.855,8.056764E-05,12.825,0,0.855,0.0002272679,12.825,0
0.8559,-4.36408E-06,12.8385,0,0.8559,4.968337E-05,12.8385,0
0.8568,-6.948959E-05,12.852,0,0.8568,-5.337606E-05,12.852,0
0.8577,-2.685588E-06,12.8655,0,0.8577,-0.0001409934,12.8655,0
0.8586,4.49836E-05,12.879,0,0.8586,-0.0002259251,12.879,0
0.8595001,-0.0001185016,12.8925,0,0.8595001,-0.0002601663,12.8925,0
0.8604,-0.0001245441,12.906,0,0.8604,-0.0002437171,12.906,0
0.8613,-7.083238E-05,12.9195,0,0.8613,-0.000249424,12.9195,0
0.8622,-7.116808E-05,12.933,0,0.8622,-0.0002625162,12.933,0
0.8631,-7.452507E-05,12.9465,0,0.8631,-0.0002457313,12.9465,0
0.864,-3.692683E-06,12.96,0,0.864,-0.0002265965,12.96,0
0.8649,4.263371E-05,12.9735,0,0.8649,-0.0001879911,12.9735,0
0.8658,6.64683E-05,12.987,0,0.8658,-0.0002440528,12.987,0
0.8667,-3.021286E-06,13.0005,0,0.8667,-0.0001631495,13.0005,0
0.8676,-0.0001631495,13.014,0,0.8676,-0.00024271,13.014,0
0.8685,-0.0001853056,13.0275,0,0.8685,-0.0002484169,13.0275,0
0.8694,-0.0001842985,13.041,0,0.8694,-7.150377E-05,13.041,0
0.8703,-0.0002662089,13.0545,0,0.8703,-3.793393E-05,13.0545,0
0.8712,-0.000154757,13.068,0,0.8712,-6.277562E-05,13.068,0
0.8721,0.0001228656,13.0815,0,0.8721,-0.0001883268,13.0815,0
0.873,2.920577E-05,13.095,0,0.873,-0.0001185016,13.095,0
0.8739,-6.378271E-06,13.1085,0,0.8739,-8.426032E-05,13.1085,0
0.8748,5.035477E-05,13.122,0,0.8748,-0.0001312581,13.122,0
0.8757,0.0001373007,13.1355,0,0.8757,-6.243992E-05,13.1355,0
0.8766,0.0001661708,13.149,0,0.8766,-2.786297E-05,13.149,0
0.8775,0.0001413291,13.1625,0,0.8775,-6.411841E-05,13.1625,0
0.8784,0.0001258869,13.176,0,0.8784,-4.800488E-05,13.176,0
0.8793,8.056764E-05,13.1895,0,0.8793,-0.0001070878,13.1895,0
0.8802,4.33051E-05,13.203,0,0.8802,-0.0002581521,13.203,0
0.8811,-7.888914E-05,13.2165,0,0.8811,-0.0005441672,13.2165,0
0.882,-0.000274937,13.23,0,0.882,-0.0007694209,13.23,0
0.8829,-0.000295079,13.2435,0,0.8829,-0.0005079118,13.2435,0
0.8838,-0.0001701991,13.257,0,0.8838,6.009003E-05,13.257,0
0.8847,0.0001097734,13.2705,0,0.8847,0.0007086595,13.2705,0
0.8856,0.0003125353,13.284,0,0.8856,0.0009329061,13.284,0
0.8865,0.000190341,13.2975,0,0.8865,0.0006710613,13.2975,0
0.8874,9.500267E-05,13.311,0,0.8874,0.000358526,13.311,0
0.8883,7.989624E-05,13.3245,0,0.8883,0.0002245823,13.3245,0
0.8892,0.0001114519,13.338,0,0.8892,0.000278294,13.338,0
0.8901,9.903105E-05,13.3515,0,0.8901,0.0002299535,13.3515,0
0.891,8.325322E-05,13.365,0,0.891,0.0001020523,13.365,0
0.8919,7.116808E-05,13.3785,0,0.8919,9.835965E-05,13.3785,0
0.8928,4.800488E-05,13.392,0,0.8928,1.577783E-05,13.392,0
0.8937,-3.793393E-05,13.4055,0,0.8937,-5.337606E-05,13.4055,0
0.8946,-9.500267E-05,13.419,0,0.8946,2.987716E-05,13.419,0
0.8955,-6.378271E-06,13.4325,0,0.8955,0.0001567712,13.4325,0
0.8964,2.517739E-05,13.446,0,0.8964,8.123904E-05,13.446,0
0.8973,-0.0001178302,13.4595,0,0.8973,2.383459E-05,13.4595,0
0.8982,-8.426032E-05,13.473,0,0.8982,-1.779202E-05,13.473,0
0.8991,-3.457694E-05,13.4865,0,0.8991,-6.378271E-06,13.4865,0
0.9,-9.500267E-05,13.5,0,0.9,-6.814679E-05,13.5,0
0.9009,-0.0001050736,13.5135,0,0.9009,-0.000158114,13.5135,0
0.9018,-6.009003E-05,13.527,0,0.9018,-0.0003736324,13.527,0
0.9027,-5.337606E-05,13.5405,0,0.9027,-0.0005340963,13.5405,0
0.9036,-0.0001373007,13.554,0,0.9036,-0.0003823606,13.554,0
0.9045,-0.0001030594,13.5675,0,0.9045,-0.0003014572,13.5675,0
0.9054,-6.143282E-05,13.581,0,0.9054,-0.0003544976,13.581,0
0.9063,-2.652018E-05,13.5945,0,0.9063,-0.0003461051,13.5945,0
0.9072,-3.692683E-06,13.608,0,0.9072,-9.567407E-05,13.608,0
0.9081,4.53193E-05,13.6215,0,0.9081,0.0003622186,13.6215,0
0.909,0.0001151446,13.635,0,0.909,0.0005273823,13.635,0
0.9099,0.000102388,13.6485,0,0.9099,0.0004763562,13.6485,0
0.9108,-2.719158E-05,13.662,0,0.9108,0.0003474479,13.662,0
0.9117,-7.116808E-05,13.6755,0,0.9117,0.0001564355,13.6755,0
0.9126,2.014191E-06,13.689,0,0.9126,6.042573E-06,13.689,0
0.9135,-6.411841E-05,13.7025,0,0.9135,4.599069E-05,13.7025,0
0.9144,-1.947051E-05,13.716,0,0.9144,7.486076E-05,13.716,0
0.9153,-1.443504E-05,13.7295,0,0.9153,5.069047E-05,13.7295,0
0.9162,-9.097429E-05,13.743,0,0.9162,-5.706874E-06,13.743,0
0.9171,-8.89601E-05,13.7565,0,0.9171,1.644922E-05,13.7565,0
0.918,-2.1149E-05,13.77,0,0.918,-9.399558E-06,13.77,0
0.9189,-1.309224E-05,13.7835,0,0.9189,-8.157473E-05,13.7835,0
0.9198,-4.061952E-05,13.797,0,0.9198,-6.478981E-05,13.797,0
0.9207,-6.61326E-05,13.8105,0,0.9207,8.426032E-05,13.8105,0
0.9216,-3.625543E-05,13.824,0,0.9216,0.000186984,13.824,0
0.9225,4.129091E-05,13.8375,0,0.9225,-1.007095E-06,13.8375,0
0.9234,6.6804E-05,13.851,0,0.9234,-0.0001312581,13.851,0
0.9243,1.980621E-05,13.8645,0,0.9243,-0.0001326009,13.8645,0
0.9252,3.659113E-05,13.878,0,0.9252,-7.418937E-05,13.878,0
0.9261,3.692683E-06,13.8915,0,0.9261,-3.692683E-05,13.8915,0
0.927,-6.243992E-05,13.905,0,0.927,-5.404745E-05,13.905,0
0.9279,-2.652018E-05,13.9185,0,0.9279,-0.0001117876,13.9185,0
0.9288,-6.478981E-05,13.932,0,0.9288,-0.0001332723,13.932,0
0.9297,-5.404745E-05,13.9455,0,0.9297,-0.0001470359,13.9455,0
0.9306,-4.43122E-05,13.959,0,0.9306,-0.0001238727,13.959,0
0.9315,-7.016098E-05,13.9725,0,0.9315,-0.0002088045,13.9725,0
0.9324,-8.560311E-05,13.986,0,0.9324,-0.0002443885,13.986,0
0.9333,1.644922E-05,13.9995,0,0.9333,-0.0002594949,13.9995,0
0.9342,0.0001050736,14.013,0,0.9342,-0.0002695659,14.013,0
0.9351,6.74754E-05,14.0265,0,0.9351,-0.0002299535,14.0265,0
0.936,1.309224E-05,14.04,0,0.936,-0.0002252537,14.04,0
0.9369,-4.162661E-05,14.0535,0,0.9369,-0.0001923552,14.0535,0
0.9378,-0.0001534142,14.067,0,0.9378,-0.0001379721,14.067,0
0.9387,-8.69459E-05,14.0805,0,0.9387,-4.061952E-05,14.0805,0
0.9396001,-4.867628E-05,14.094,0,0.9396001,-1.577783E-05,14.094,0
0.9405,-0.000203769,14.1075,0,0.9405,0.0001701991,14.1075,0
0.9414001,-0.0001775845,14.121,0,0.9414001,0.0003165637,14.121,0
0.9423,-3.256275E-05,14.1345,0,0.9423,0.0002235752,14.1345,0
0.9432001,-6.009003E-05,14.148,0,0.9432001,0.0002709087,14.148,0
0.9441,1.040665E-05,14.1615,0,0.9441,0.000379675,14.1615,0
0.9450001,0.0001795987,14.175,0,0.9450001,0.0001977264,14.175,0
0.9459,0.0002534524,14.1885,0,0.9459,0.0001047379,14.1885,0
0.9468,0.0003957885,14.202,0,0.9468,5.539025E-05,14.202,0
0.9477,0.0003111925,14.2155,0,0.9477,2.786297E-05,14.2155,0
0.9486,0.0001587854,14.229,0,0.9486,-4.061952E-05,14.229,0
0.9495,0.0001174945,14.2425,0,0.9495,-0.0001399863,14.2425,0
0.9504,0.0001211871,14.256,0,0.9504,-0.0001789273,14.256,0
0.9513,0.0002521096,14.2695,0,0.9513,-6.915389E-05,14.2695,0
0.9522,0.000411902,14.283,0,0.9522,-1.644922E-05,14.283,0
0.9531,0.0004857557,14.2965,0,0.9531,-6.277562E-05,14.2965,0
0.954,0.0002259251,14.31,0,0.954,-0.0001534142,14.31,0
0.9549,-2.517739E-05,14.3235,0,0.9549,-0.0002430457,14.3235,0
0.9558,-0.0001433432,14.337,0,0.9558,-0.0002376745,14.337,0
0.9567,-0.0001822843,14.3505,0,0.9567,-3.323415E-05,14.3505,0
0.9576,-0.00024271,14.364,0,0.9576,6.143282E-05,14.364,0
0.9585,-0.0002752728,14.3775,0,0.9585,-8.89601E-05,14.3775,0
0.9594,-0.0001883268,14.391,0,0.9594,-0.0003034714,14.391,0
0.9603,9.063859E-06,14.4045,0,0.9603,-0.0003353628,14.4045,0
0.9612,6.378271E-06,14.418,0,0.9612,-0.0002000763,14.418,0
0.9621,-0.0001312581,14.4315,0,0.9621,6.210422E-05,14.4315,0
0.963,-0.0001560998,14.445,0,0.963,0.0003434196,14.445,0
0.9639,-4.229801E-05,14.4585,0,0.9639,0.0004635996,14.4585,0
0.9648,1.544213E-05,14.472,0,0.9648,0.0004280156,14.472,0
0.9657,6.042573E-06,14.4855,0,0.9657,0.0003632258,14.4855,0
0.9666,-2.920577E-05,14.499,0,0.9666,0.0002171969,14.499,0
0.9675,-9.802396E-05,14.5125,0,0.9675,0.0001218585,14.5125,0
0.9684,-4.29694E-05,14.526,0,0.9684,7.452507E-05,14.526,0
0.9693,-3.894102E-05,14.5395,0,0.9693,8.69459E-05,14.5395,0
0.9702,-1.208515E-05,14.553,0,0.9702,8.090334E-05,14.553,0
0.9711,-8.157473E-05,14.5665,0,0.9711,5.136187E-05,14.5665,0
0.972,-3.927672E-05,14.58,0,0.972,-1.577783E-05,14.58,0
0.9729,-3.390555E-05,14.5935,0,0.9729,-5.539025E-05,14.5935,0
0.9738,-3.121996E-05,14.607,0,0.9738,-0.0001198444,14.607,0
0.9747,-5.337606E-05,14.6205,0,0.9747,-0.0001198444,14.6205,0
0.9756,-8.627451E-05,14.634,0,0.9756,-0.0001094377,14.634,0
0.9765,-7.418937E-05,14.6475,0,0.9765,-0.0001339437,14.6475,0
0.9774,-5.404745E-05,14.661,0,0.9774,-0.0001326009,14.661,0
0.9783,-0.0001010452,14.6745,0,0.9783,-7.989624E-05,14.6745,0
0.9792,-8.258183E-05,14.688,0,0.9792,-0.0001373007,14.688,0
0.9801,2.920577E-05,14.7015,0,0.9801,-0.0002544594,14.7015,0
0.981,-8.493171E-05,14.715,0,0.981,-0.0001980621,14.715,0
0.9819,-0.0001044022,14.7285,0,0.9819,-0.0002118257,14.7285,0
0.9828,-3.356985E-05,14.742,0,0.9828,-0.0001728847,14.742,0
0.9837,2.383459E-05,14.7555,0,0.9837,-5.001907E-05,14.7555,0
0.9846,-6.411841E-05,14.769,0,0.9846,6.848249E-05,14.769,0
0.9855,-6.61326E-05,14.7825,0,0.9855,0.0001003738,14.7825,0
0.9864,-3.054856E-05,14.796,0,0.9864,0.0001205158,14.796,0
0.9873,-4.33051E-05,14.8095,0,0.9873,6.78111E-05,14.8095,0
0.9882,-6.64683E-05,14.823,0,0.9882,0.0001232013,14.823,0
0.9891,-7.183947E-05,14.8365,0,0.9891,0.0001470359,14.8365,0
0.99,-0.0001305867,14.85,0,0.99,-1.443504E-05,14.85,0
0.9909,-0.0001211871,14.8635,0,0.9909,-3.994812E-05,14.8635,0
0.9918,-7.150377E-05,14.877,0,0.9918,-1.107805E-05,14.877,0
0.9927,-7.586786E-05,14.8905,0,0.9927,-6.814679E-05,14.8905,0
0.9936,-4.33051E-05,14.904,0,0.9936,-0.0001242084,14.904,0
0.9945,-0.0001094377,14.9175,0,0.9945,-0.0001319295,14.9175,0
0.9954,-5.539025E-05,14.931,0,0.9954,-0.0001594568,14.931,0
0.9963,-5.035477E-05,14.9445,0,0.9963,-0.0001567712,14.9445,0
0.9972,3.692683E-06,14.958,0,0.9972,-0.000148043,14.958,0
0.9981,2.081331E-05,14.9715,0,0.9981,-0.0001117876,14.9715,0
0.999,-2.618448E-05,14.985,0,0.999,-0.0001151446,14.985,0
0.9999,-9.097429E-05,14.9985,0,0.9999,-0.0001624781,14.9985,0
1.0008,-0.0001312581,15.012,0,1.0008,-0.0002930648,15.012,0
1.0017,-0.0001829557,15.0255,0,1.0017,-0.0004098878,15.0255,0
1.0026,-0.0002272679,15.039,0,1.0026,-0.000594522,15.039,0
1.0035,-0.0002554666,15.0525,0,1.0035,-0.0007902342,15.0525,0
1.0044,-0.000158114,15.066,0,1.0044,-0.0003931029,15.066,0
1.0053,5.539025E-05,15.0795,0,1.0053,2.1149E-05,15.0795,0
1.0062,0.0004048524,15.093,0,1.0062,0.0003904173,15.093,0
1.0071,0.0007006027,15.1065,0,1.0071,0.0007194019,15.1065,0
1.008,0.0004964981,15.12,0,1.008,0.001014816,15.12,0
1.0089,0.000281651,15.1335,0,1.0089,0.0007442436,15.1335,0
1.0098,0.0001957122,15.147,0,1.0098,0.0004723278,15.147,0
1.0107,0.0001285725,15.1605,0,1.0107,0.0003743038,15.1605,0
1.0116,4.162661E-05,15.174,0,1.0116,0.0002339818,15.174,0
1.0125,7.083238E-05,15.1875,0,1.0125,0.0001171588,15.1875,0
1.0134,6.54612E-05,15.201,0,1.0134,8.392462E-05,15.201,0
1.0143,0.0001097734,15.2145,0,1.0143,7.721065E-06,15.2145,0
1.0152,7.553216E-05,15.228,0,1.0152,-1.812772E-05,15.228,0
1.0161,-5.572595E-05,15.2415,0,1.0161,-2.719158E-05,15.2415,0
1.017,2.014191E-05,15.255,0,1.017,-7.083238E-05,15.255,0
1.0179,1.980621E-05,15.2685,0,1.0179,-0.0001144732,15.2685,0
1.0188,-4.196231E-05,15.282,0,1.0188,-9.903105E-05,15.282,0
1.0197,-1.712062E-05,15.2955,0,1.0197,-0.0001373007,15.2955,0
1.0206,6.51255E-05,15.309,0,1.0206,-0.0001963836,15.309,0
1.0215,1.980621E-05,15.3225,0,1.0215,-0.0001497215,15.3225,0
1.0224,4.867628E-05,15.336,0,1.0224,-0.0001963836,15.336,0
1.0233,6.814679E-05,15.3495,0,1.0233,-0.000235996,15.3495,0
1.0242,3.692683E-05,15.363,0,1.0242,-0.0001980621,15.363,0
1.0251,-6.143282E-05,15.3765,0,1.0251,-0.0001383078,15.3765,0
1.026,-4.129091E-05,15.39,0,1.026,-7.083238E-05,15.39,0
1.0269,-3.189136E-05,15.4035,0,1.0269,-2.316319E-05,15.4035,0
1.0278,-5.941863E-05,15.417,0,1.0278,-8.056763E-06,15.417,0
1.0287,-0.0001010452,15.4305,0,1.0287,2.853437E-05,15.4305,0
1.0296,-0.0001537499,15.444,0,1.0296,-1.141375E-05,15.444,0
1.0305,-9.567407E-05,15.4575,0,1.0305,-0.0001007095,15.4575,0
1.0314,-0.000109102,15.471,0,1.0314,-0.0001376364,15.471,0
1.0323,-0.0001084306,15.4845,0,1.0323,-7.318227E-05,15.4845,0
1.0332,-2.987716E-05,15.498,0,1.0332,-5.102617E-05,15.498,0
1.0341,-4.49836E-05,15.5115,0,1.0341,-5.740444E-05,15.5115,0
1.035,-9.835965E-05,15.525,0,1.035,2.987716E-05,15.525,0
1.0359,-5.203327E-05,15.5385,0,1.0359,5.807584E-05,15.5385,0
1.0368,-6.042573E-05,15.552,0,1.0368,1.409934E-05,15.552,0
1.0377,-4.733349E-05,15.5655,0,1.0377,2.551309E-05,15.5655,0
1.0386,-5.572595E-05,15.579,0,1.0386,5.035477E-05,15.579,0
1.0395,-7.083238E-05,15.5925,0,1.0395,1.577783E-05,15.5925,0
1.0404,-0.0001245441,15.606,0,1.0404,-1.376364E-05,15.606,0
1.0413,-6.344701E-05,15.6195,0,1.0413,-5.069047E-05,15.6195,0
1.0422,-3.189136E-05,15.633,0,1.0422,-5.001907E-05,15.633,0
1.0431,-5.069047E-05,15.6465,0,1.0431,-5.841154E-05,15.6465,0
1.044,1.007095E-06,15.66,0,1.044,-4.766919E-05,15.66,0
1.0449,4.867628E-05,15.6735,0,1.0449,-4.699779E-05,15.6735,0
1.0458,-4.934768E-05,15.687,0,1.0458,1.376364E-05,15.687,0
1.0467,-6.076142E-05,15.7005,0,1.0467,2.584878E-05,15.7005,0
1.0476,1.745632E-05,15.714,0,1.0476,-1.577783E-05,15.714,0
1.0485,-6.143282E-05,15.7275,0,1.0485,-1.040665E-05,15.7275,0
1.0494,1.242084E-05,15.741,0,1.0494,-5.706874E-06,15.741,0
1.0503,0.0001117876,15.7545,0,1.0503,-4.196231E-05,15.7545,0
1.0512,6.61326E-05,15.768,0,1.0512,-2.417029E-05,15.768,0
1.0521,5.539025E-05,15.7815,0,1.0521,-2.450599E-05,15.7815,0
1.053,0.0001460288,15.795,0,1.053,-5.706874E-05,15.795,0
1.0539,0.0001285725,15.8085,0,1.0539,-3.524834E-05,15.8085,0
1.0548,0.000115816,15.822,0,1.0548,-4.49836E-05,15.822,0
1.0557,7.754635E-05,15.8355,0,1.0557,-1.678492E-06,15.8355,0
1.0566,5.908293E-05,15.849,0,1.0566,3.659113E-05,15.849,0
1.0575,5.337606E-05,15.8625,0,1.0575,3.793393E-05,15.8625,0
1.0584,4.699779E-05,15.876,0,1.0584,2.417029E-05,15.876,0
1.0593,-2.383459E-05,15.8895,0,1.0593,4.49836E-05,15.8895,0
1.0602,-2.349889E-05,15.903,0,1.0602,3.323415E-05,15.903,0
1.0611,7.217517E-05,15.9165,0,1.0611,-9.735256E-06,15.9165,0
1.062,7.049668E-06,15.93,0,1.062,-1.242084E-05,15.93,0
1.0629,-4.061952E-05,15.9435,0,1.0629,-6.713969E-07,15.9435,0
1.0638,5.975433E-05,15.957,0,1.0638,-5.841154E-05,15.957,0
1.0647,5.639734E-05,15.9705,0,1.0647,-9.097429E-05,15.9705,0
1.0656,-6.042573E-06,15.984,0,1.0656,-3.088426E-05,15.984,0
1.0665,-1.980621E-05,15.9975,0,1.0665,2.786297E-05,15.9975,0
1.0674,-7.385367E-06,16.011,0,1.0674,5.606165E-05,16.011,0
1.0683,1.174945E-05,16.0245,0,1.0683,2.047761E-05,16.0245,0
1.0692,-8.358892E-05,16.038,0,1.0692,-9.063859E-06,16.038,0
1.0701,-0.0001252155,16.0515,0,1.0701,-3.692683E-05,16.0515,0
1.071,-6.411841E-05,16.065,0,1.071,-0.0001054093,16.065,0
1.0719,-9.164568E-05,16.0785,0,1.0719,-0.0001101091,16.0785,0
1.0728,-0.000115816,16.092,0,1.0728,-3.927672E-05,16.092,0
1.0737,-4.061952E-05,16.1055,0,1.0737,5.471885E-05,16.1055,0
1.0746,-3.692683E-06,16.119,0,1.0746,9.030289E-05,16.119,0
1.0755,-4.934768E-05,16.1325,0,1.0755,5.337606E-05,16.1325,0
1.0764,-7.385367E-06,16.146,0,1.0764,-4.229801E-05,16.146,0
1.0773,8.728161E-06,16.1595,0,1.0773,-0.0001262226,16.1595,0
1.0782,-3.625543E-05,16.173,0,1.0782,-0.0001151446,16.173,0
1.0791,-7.016098E-05,16.1865,0,1.0791,-9.030289E-05,16.1865,0
1.08,-2.047761E-05,16.2,0,1.08,-0.0001248798,16.2,0
1.0809,-3.994812E-05,16.2135,0,1.0809,-0.0001544213,16.2135,0
1.0818,3.189136E-05,16.227,0,1.0818,-0.0001339437,16.227,0
1.0827,5.606165E-05,16.2405,0,1.0827,-5.908293E-05,16.2405,0
1.0836,2.24918E-05,16.254,0,1.0836,6.344701E-05,16.254,0
1.0845,5.874724E-05,16.2675,0,1.0845,0.0001044022,16.2675,0
1.0854,7.116808E-05,16.281,0,1.0854,0.000115816,16.281,0
1.0863,-7.049668E-06,16.2945,0,1.0863,0.0001097734,16.2945,0
1.0872,-1.678492E-05,16.308,0,1.0872,3.826963E-05,16.308,0
1.0881,3.054856E-05,16.3215,0,1.0881,-1.007095E-05,16.3215,0
1.089,-7.083238E-05,16.335,0,1.089,1.812772E-05,16.335,0
1.0899,-7.888914E-05,16.3485,0,1.0899,1.644922E-05,16.3485,0
1.0908,-5.606165E-05,16.362,0,1.0908,-4.129091E-05,16.362,0
1.0917,-6.411841E-05,16.3755,0,1.0917,-2.383459E-05,16.3755,0
1.0926,-0.000126894,16.389,0,1.0926,5.035477E-06,16.389,0
1.0935,-0.0001064164,16.4025,0,1.0935,-1.141375E-05,16.4025,0
1.0944,-8.72816E-05,16.416,0,1.0944,-2.819867E-05,16.416,0
1.0953,-5.169757E-05,16.4295,0,1.0953,-4.599069E-05,16.4295,0
1.0962,-5.438316E-05,16.443,0,1.0962,-3.659113E-05,16.443,0
1.0971,-6.61326E-05,16.4565,0,1.0971,-3.491264E-05,16.4565,0
1.098,-8.426032E-05,16.47,0,1.098,-4.33051E-05,16.47,0
1.0989,-4.867628E-05,16.4835,0,1.0989,-2.24918E-05,16.4835,0
1.0998,-3.659113E-05,16.497,0,1.0998,3.054856E-05,16.497,0
1.1007,-3.558404E-05,16.5105,0,1.1007,1.678492E-05,16.5105,0
1.1016,3.356985E-07,16.524,0,1.1016,-1.913481E-05,16.524,0
1.1025,-4.800488E-05,16.5375,0,1.1025,1.309224E-05,16.5375,0
1.1034,8.392462E-06,16.551,0,1.1034,-1.678492E-06,16.551,0
1.1043,5.035477E-06,16.5645,0,1.1043,-3.659113E-05,16.5645,0
1.1052,-2.417029E-05,16.578,0,1.1052,-1.510643E-05,16.578,0
1.1061,-1.141375E-05,16.5915,0,1.1061,-1.779202E-05,16.5915,0
1.107,-2.450599E-05,16.605,0,1.107,-5.841154E-05,16.605,0
1.1079,-1.745632E-05,16.6185,0,1.1079,-9.500267E-05,16.6185,0
1.1088,7.284657E-05,16.632,0,1.1088,-0.0001070878,16.632,0
1.1097,1.309224E-05,16.6455,0,1.1097,-6.78111E-05,16.6455,0
1.1106,-7.318227E-05,16.659,0,1.1106,-4.766919E-05,16.659,0
1.1115,-5.706874E-06,16.6725,0,1.1115,-2.853437E-05,16.6725,0
1.1124,6.411841E-05,16.686,0,1.1124,1.174945E-05,16.686,0
1.1133,4.934768E-05,16.6995,0,1.1133,5.136187E-05,16.6995,0
1.1142,6.109713E-05,16.713,0,1.1142,-3.021286E-06,16.713,0
1.1151,0.0001218585,16.7265,0,1.1151,-4.766919E-05,16.7265,0
1.116,1.208515E-05,16.74,0,1.116,-9.399558E-06,16.74,0
1.1169,6.57969E-05,16.7535,0,1.1169,-1.980621E-05,16.7535,0
1.1178,0.0001198444,16.767,0,1.1178,-2.819867E-05,16.767,0
1.1187,4.800488E-05,16.7805,0,1.1187,1.611353E-05,16.7805,0
1.1196,2.752728E-05,16.794,0,1.1196,6.54612E-05,16.794,0
1.1205,5.304036E-05,16.8075,0,1.1205,2.014191E-05,16.8075,0
1.1214,3.189136E-05,16.821,0,1.1214,-3.256275E-05,16.821,0
1.1223,3.457694E-05,16.8345,0,1.1223,-6.042573E-05,16.8345,0
1.1232,1.980621E-05,16.848,0,1.1232,-4.766919E-05,16.848,0
1.1241,-9.063859E-06,16.8615,0,1.1241,-3.793393E-05,16.8615,0
1.125,1.544213E-05,16.875,0,1.125,-6.042573E-05,16.875,0
1.1259,3.021286E-05,16.8885,0,1.1259,-5.270466E-05,16.8885,0
1.1268,3.356985E-05,16.902,0,1.1268,1.342794E-06,16.902,0
1.1277,1.577783E-05,16.9155,0,1.1277,-7.721065E-06,16.9155,0
1.1286,6.109713E-05,16.929,0,1.1286,-3.424125E-05,16.929,0
1.1295,1.712062E-05,16.9425,0,1.1295,3.289845E-05,16.9425,0
1.1304,-3.088426E-05,16.956,0,1.1304,5.270466E-05,16.956,0
1.1313,1.007095E-06,16.9695,0,1.1313,2.1149E-05,16.9695,0
1.1322,-2.987716E-05,16.983,0,1.1322,3.356985E-07,16.983,0
1.1331,-7.217517E-05,16.9965,0,1.1331,5.706874E-06,16.9965,0
1.134,-2.316319E-05,17.01,0,1.134,-4.36408E-06,17.01,0
1.1349,-2.752728E-05,17.0235,0,1.1349,3.356985E-07,17.0235,0
1.1358,-4.129091E-05,17.037,0,1.1358,-1.879912E-05,17.037,0
1.1367,-3.189136E-05,17.0505,0,1.1367,-1.107805E-05,17.0505,0
1.1376,-4.43122E-05,17.064,0,1.1376,-2.1149E-05,17.064,0
1.1385,-5.539025E-05,17.0775,0,1.1385,-7.821774E-05,17.0775,0
1.1394,-1.174945E-05,17.091,0,1.1394,-7.183947E-05,17.091,0
1.1403,-6.378271E-06,17.1045,0,1.1403,-4.061952E-05,17.1045,0
1.1412,-1.409934E-05,17.118,0,1.1412,-7.150377E-05,17.118,0
1.1421,-3.524834E-05,17.1315,0,1.1421,-0.0001074235,17.1315,0
1.143,-8.86244E-05,17.145,0,1.143,-7.620356E-05,17.145,0
1.1439,-5.136187E-05,17.1585,0,1.1439,-6.378271E-05,17.1585,0
1.1448,-2.517739E-05,17.172,0,1.1448,-7.855344E-05,17.172,0
1.1457,4.934768E-05,17.1855,0,1.1457,-4.666209E-05,17.1855,0
1.1466,0.0001080949,17.199,0,1.1466,3.356985E-07,17.199,0
1.1475,0.0002218967,17.2125,0,1.1475,0,17.2125,0
1.1484,0.0002541238,17.226,0,1.1484,2.887007E-05,17.226,0
1.1493,0.0002447242,17.2395,0,1.1493,2.450599E-05,17.2395,0
1.1502,0.0001070878,17.253,0,1.1502,4.061952E-05,17.253,0
1.1511,-0.0001514,17.2665,0,1.1511,6.814679E-05,17.2665,0
1.152,-0.0002111543,17.28,0,1.152,6.009003E-05,17.28,0
1.1529,-0.0002903792,17.2935,0,1.1529,9.063859E-06,17.2935,0
1.1538,-0.0003877317,17.307,0,1.1538,1.443504E-05,17.307,0
1.1547,-0.0003172351,17.3205,0,1.1547,-7.049668E-06,17.3205,0
1.1556,-0.000274937,17.334,0,1.1556,-2.853437E-05,17.334,0
1.1565,-0.0003004501,17.3475,0,1.1565,-1.980621E-05,17.3475,0
1.1574,-0.0001953765,17.361,0,1.1574,-4.36408E-05,17.361,0
1.1583,-0.0001178302,17.3745,0,1.1583,-9.500267E-05,17.3745,0
1.1592,-0.0001215228,17.388,0,1.1592,-0.0001077592,17.388,0
1.1601,-4.867628E-05,17.4015,0,1.1601,-8.258183E-05,17.4015,0
1.161,3.726253E-05,17.415,0,1.161,-6.378271E-05,17.415,0
1.1619,0.0001329366,17.4285,0,1.1619,-3.424125E-05,17.4285,0
1.1628,0.0001607996,17.442,0,1.1628,-5.337606E-05,17.442,0
1.1637,0.0001846342,17.4555,0,1.1637,-1.611353E-05,17.4555,0
1.1646,0.0001886625,17.469,0,1.1646,-7.049668E-06,17.469,0
1.1655,0.0001863127,17.4825,0,1.1655,7.049668E-06,17.4825,0
1.1664,0.0001876554,17.496,0,1.1664,1.275654E-05,17.496,0
1.1673,9.097429E-05,17.5095,0,1.1673,3.994812E-05,17.5095,0
1.1682,3.692683E-05,17.523,0,1.1682,-7.385367E-06,17.523,0
1.1691,9.365987E-05,17.5365,0,1.1691,-4.733349E-05,17.5365,0
1.17,5.606165E-05,17.55,0,1.17,4.36408E-06,17.55,0
1.1709,-1.947051E-05,17.5635,0,1.1709,2.417029E-05,17.5635,0
1.1718,5.740444E-05,17.577,0,1.1718,-1.007095E-06,17.577,0
1.1727,9.735256E-05,17.5905,0,1.1727,2.652018E-05,17.5905,0
1.1736,6.411841E-05,17.604,0,1.1736,2.551309E-05,17.604,0
1.1745,9.903105E-05,17.6175,0,1.1745,5.035477E-06,17.6175,0
1.1754,0.000102388,17.631,0,1.1754,-3.356985E-07,17.631,0
1.1763,0.0001218585,17.6445,0,1.1763,-1.409934E-05,17.6445,0
1.1772,8.560311E-05,17.658,0,1.1772,2.316319E-05,17.658,0
1.1781,1.846342E-05,17.6715,0,1.1781,4.53193E-05,17.6715,0
1.179,6.143282E-05,17.685,0,1.179,2.1149E-05,17.685,0
1.1799,2.349889E-06,17.6985,0,1.1799,-1.477073E-05,17.6985,0
1.1808,-6.042573E-05,17.712,0,1.1808,-9.735256E-06,17.712,0
1.1817,-3.155566E-05,17.7255,0,1.1817,-1.678492E-06,17.7255,0
1.1826,-1.007095E-06,17.739,0,1.1826,-3.121996E-05,17.739,0
1.1835,-3.155566E-05,17.7525,0,1.1835,-1.309224E-05,17.7525,0
1.1844,1.577783E-05,17.766,0,1.1844,6.713969E-06,17.766,0
1.1853,6.915389E-05,17.7795,0,1.1853,-1.947051E-05,17.7795,0
1.1862,5.606165E-05,17.793,0,1.1862,-2.18204E-05,17.793,0
1.1871,1.342794E-05,17.8065,0,1.1871,-2.383459E-05,17.8065,0
1.188,3.457694E-05,17.82,0,1.188,-4.901198E-05,17.82,0
1.1889,5.706874E-06,17.8335,0,1.1889,-6.915389E-05,17.8335,0
1.1898,4.934768E-05,17.847,0,1.1898,-5.673304E-05,17.847,0
1.1907,3.726253E-05,17.8605,0,1.1907,-3.021286E-05,17.8605,0
1.1916,-7.922484E-05,17.874,0,1.1916,-7.049668E-06,17.874,0
1.1925,-2.987716E-05,17.8875,0,1.1925,-4.39765E-05,17.8875,0
1.1934,-1.007095E-06,17.901,0,1.1934,-3.659113E-05,17.901,0
1.1943,-4.061952E-05,17.9145,0,1.1943,1.007095E-06,17.9145,0
1.1952,-8.392462E-06,17.928,0,1.1952,-2.719158E-05,17.928,0
1.1961,2.1149E-05,17.9415,0,1.1961,-7.217517E-05,17.9415,0
1.197,-9.298848E-05,17.955,0,1.197,-3.491264E-05,17.955,0
1.1979,-3.692683E-05,17.9685,0,1.1979,-1.745632E-05,17.9685,0
1.1988,-6.042573E-06,17.982,0,1.1988,-3.323415E-05,17.982,0
1.1997,-7.251087E-05,17.9955,0,1.1997,-6.042573E-06,17.9955,0
1.2006,-0.000115816,18.009,0,1.2006,-4.028382E-06,18.009,0
1.2015,-5.941863E-05,18.0225,0,1.2015,3.021286E-06,18.0225,0
1.2024,-4.53193E-05,18.036,0,1.2024,1.040665E-05,18.036,0
1.2033,-4.33051E-05,18.0495,0,1.2033,-9.735256E-06,18.0495,0
1.2042,-4.162661E-05,18.063,0,1.2042,-1.376364E-05,18.063,0
1.2051,-2.584878E-05,18.0765,0,1.2051,9.063859E-06,18.0765,0
1.206,-6.6804E-05,18.09,0,1.206,-1.107805E-05,18.09,0
1.2069,-4.39765E-05,18.1035,0,1.2069,-2.719158E-05,18.1035,0
1.2078,-3.826963E-05,18.117,0,1.2078,-1.678492E-06,18.117,0
1.2087,-5.807584E-05,18.1305,0,1.2087,-6.713969E-07,18.1305,0
1.2096,2.685588E-06,18.144,0,1.2096,-1.913481E-05,18.144,0
1.2105,-2.584878E-05,18.1575,0,1.2105,4.36408E-06,18.1575,0
1.2114,-5.169757E-05,18.171,0,1.2114,-3.356985E-07,18.171,0
1.2123,-9.735256E-06,18.1845,0,1.2123,-4.599069E-05,18.1845,0
1.2132,-7.553216E-05,18.198,0,1.2132,-5.102617E-05,18.198,0
1.2141,-0.0001080949,18.2115,0,1.2141,-4.061952E-05,18.2115,0
1.215,-0.0001138018,18.225,0,1.215,-6.042573E-05,18.225,0
1.2159,-9.365987E-05,18.2385,0,1.2159,-6.814679E-05,18.2385,0
1.2168,-2.450599E-05,18.252,0,1.2168,-9.668116E-05,18.252,0
1.2177,-4.229801E-05,18.2655,0,1.2177,-8.493171E-05,18.2655,0
1.2186,-2.014191E-05,18.279,0,1.2186,-7.620356E-05,18.279,0
1.2195,-1.510643E-05,18.2925,0,1.2195,-8.69459E-05,18.2925,0
1.2204,2.349889E-06,18.306,0,1.2204,-7.183947E-05,18.306,0
1.2213,-4.229801E-05,18.3195,0,1.2213,-9.735256E-06,18.3195,0
1.2222,1.309224E-05,18.333,0,1.2222,-8.728161E-06,18.333,0
1.2231,8.191043E-05,18.3465,0,1.2231,-4.53193E-05,18.3465,0
1.224,-1.846342E-05,18.36,0,1.224,-1.712062E-05,18.36,0
1.2249,-3.894102E-05,18.3735,0,1.2249,-1.376364E-05,18.3735,0
1.2258,2.28275E-05,18.387,0,1.2258,-2.752728E-05,18.387,0
1.2267,1.040665E-05,18.4005,0,1.2267,8.392462E-06,18.4005,0
1.2276,1.846342E-05,18.414,0,1.2276,3.424125E-05,18.414,0
1.2285,3.860533E-05,18.4275,0,1.2285,-1.678492E-06,18.4275,0
1.2294,2.517739E-05,18.441,0,1.2294,-7.049668E-06,18.441,0
1.2303,5.471885E-05,18.4545,0,1.2303,2.349889E-06,18.4545,0
1.2312,-4.53193E-05,18.468,0,1.2312,3.021286E-06,18.468,0
1.2321,-0.0001265583,18.4815,0,1.2321,1.342794E-06,18.4815,0
1.233,-9.164568E-05,18.495,0,1.233,-1.409934E-05,18.495,0
1.2339,-6.57969E-05,18.5085,0,1.2339,-2.584878E-05,18.5085,0
1.2348,-8.191043E-05,18.522,0,1.2348,6.378271E-06,18.522,0
1.2357,-8.123904E-05,18.5355,0,1.2357,5.706874E-06,18.5355,0
1.2366,-1.309224E-05,18.549,0,1.2366,-3.860533E-05,18.549,0
1.2375,-5.572595E-05,18.5625,0,1.2375,-1.174945E-05,18.5625,0
1.2384,3.088426E-05,18.576,0,1.2384,-1.174945E-05,18.576,0
1.2393,9.768826E-05,18.5895,0,1.2393,-5.404745E-05,18.5895,0
1.2402,2.517739E-05,18.603,0,1.2402,-7.083238E-05,18.603,0
1.2411,-2.21561E-05,18.6165,0,1.2411,-4.46479E-05,18.6165,0
1.242,3.558404E-05,18.63,0,1.242,-5.505455E-05,18.63,0
1.2429,4.800488E-05,18.6435,0,1.2429,-7.150377E-05,18.6435,0
1.2438,5.606165E-05,18.657,0,1.2438,-7.687495E-05,18.657,0
1.2447,6.143282E-05,18.6705,0,1.2447,-3.189136E-05,18.6705,0
1.2456,9.970245E-05,18.684,0,1.2456,-3.390555E-05,18.684,0
1.2465,7.754635E-05,18.6975,0,1.2465,-7.016098E-05,18.6975,0
1.2474,5.102617E-05,18.711,0,1.2474,-3.491264E-05,18.711,0
1.2483,2.853437E-05,18.7245,0,1.2483,3.121996E-05,18.7245,0
1.2492,2.853437E-05,18.738,0,1.2492,2.987716E-05,18.738,0
1.2501,6.009003E-05,18.7515,0,1.2501,7.385367E-06,18.7515,0
1.251,1.577783E-05,18.765,0,1.251,7.284657E-05,18.765,0
1.2519,4.095522E-05,18.7785,0,1.2519,6.277562E-05,18.7785,0
1.2528,8.493171E-05,18.792,0,1.2528,1.980621E-05,18.792,0
1.2537,7.217517E-05,18.8055,0,1.2537,5.740444E-05,18.8055,0
1.2546,-2.450599E-05,18.819,0,1.2546,4.934768E-05,18.819,0
1.2555,7.721065E-06,18.8325,0,1.2555,-9.063859E-06,18.8325,0
1.2564,1.980621E-05,18.846,0,1.2564,-2.417029E-05,18.846,0
1.2573,3.088426E-05,18.8595,0,1.2573,-4.901198E-05,18.8595,0
1.2582,-7.620356E-05,18.873,0,1.2582,-4.666209E-05,18.873,0
1.2591,-0.0001762417,18.8865,0,1.2591,-4.263371E-05,18.8865,0
1.26,-9.298848E-05,18.9,0,1.26,-4.632639E-05,18.9,0
1.2609,-7.754635E-05,18.9135,0,1.2609,-2.987716E-05,18.9135,0
1.2618,-0.000130251,18.927,0,1.2618,4.49836E-05,18.927,0
1.2627,-3.390555E-05,18.9405,0,1.2627,6.6804E-05,18.9405,0
1.2636,-1.342794E-06,18.954,0,1.2636,5.471885E-05,18.954,0
1.2645,-4.33051E-05,18.9675,0,1.2645,6.881819E-05,18.9675,0
1.2654,8.795301E-05,18.981,0,1.2654,6.243992E-05,18.981,0
1.2663,0.0001389792,18.9945,0,1.2663,1.947051E-05,18.9945,0
1.2672,5.807584E-05,19.008,0,1.2672,9.735256E-06,19.008,0
1.2681,-5.706874E-06,19.0215,0,1.2681,2.081331E-05,19.0215,0
1.269,1.342794E-06,19.035,0,1.269,2.014191E-05,19.035,0
1.2699,4.666209E-05,19.0485,0,1.2699,-5.371176E-06,19.0485,0
1.2708,3.457694E-05,19.062,0,1.2708,-3.457694E-05,19.062,0
1.2717,-6.713969E-06,19.0755,0,1.2717,1.275654E-05,19.0755,0
1.2726,-6.311131E-05,19.089,0,1.2726,-4.36408E-06,19.089,0
1.2735,-3.356985E-05,19.1025,0,1.2735,-3.793393E-05,19.1025,0
1.2744,5.035477E-05,19.116,0,1.2744,-4.733349E-05,19.116,0
1.2753,-1.007095E-06,19.1295,0,1.2753,-2.316319E-05,19.1295,0
1.2762,1.007095E-06,19.143,0,1.2762,-3.558404E-05,19.143,0
1.2771,0.0001111162,19.1565,0,1.2771,-8.224613E-05,19.1565,0
1.278,0.000105745,19.17,0,1.278,-3.625543E-05,19.17,0
1.2789,7.754635E-05,19.1835,0,1.2789,-1.208515E-05,19.1835,0
1.2798,0.0001252155,19.197,0,1.2798,-3.894102E-05,19.197,0
1.2807,0.000175906,19.2105,0,1.2807,-1.913481E-05,19.2105,0
1.2816,7.418937E-05,19.224,0,1.2816,8.056763E-06,19.224,0
1.2825,8.291753E-05,19.2375,0,1.2825,-2.719158E-05,19.2375,0
1.2834,9.970245E-05,19.251,0,1.2834,-2.551309E-05,19.251,0
1.2843,5.337606E-05,19.2645,0,1.2843,-2.819867E-05,19.2645,0
1.2852,-1.678492E-06,19.278,0,1.2852,-2.081331E-05,19.278,0
1.2861,-1.007095E-05,19.2915,0,1.2861,-2.887007E-05,19.2915,0
1.287,-2.24918E-05,19.305,0,1.287,-5.270466E-05,19.305,0
1.2879,-4.196231E-05,19.3185,0,1.2879,-7.687495E-05,19.3185,0
1.2888,-5.606165E-05,19.332,0,1.2888,-5.874724E-05,19.332,0
1.2897,-6.344701E-05,19.3455,0,1.2897,-8.358892E-05,19.3455,0
1.2906,-4.061952E-05,19.359,0,1.2906,-0.0001148089,19.359,0
1.2915,-7.553216E-05,19.3725,0,1.2915,-7.553216E-05,19.3725,0
1.2924,-6.210422E-05,19.386,0,1.2924,-8.157473E-05,19.386,0
1.2933,-7.721065E-05,19.3995,0,1.2933,-9.164568E-05,19.3995,0
1.2942,-3.256275E-05,19.413,0,1.2942,-6.74754E-05,19.413,0
1.2951,-9.735256E-05,19.4265,0,1.2951,-3.659113E-05,19.4265,0
1.296,-0.0001080949,19.44,0,1.296,-4.196231E-05,19.44,0
1.2969,-8.761731E-05,19.4535,0,1.2969,-4.229801E-05,19.4535,0
1.2978,-7.217517E-05,19.467,0,1.2978,-4.733349E-05,19.467,0
1.2987,-0.0001765774,19.4805,0,1.2987,-2.484169E-05,19.4805,0
1.2996,-0.0001712062,19.494,0,1.2996,-1.174945E-05,19.494,0
1.3005,-6.881819E-05,19.5075,0,1.3005,-3.424125E-05,19.5075,0
1.3014,-8.89601E-05,19.521,0,1.3014,-4.632639E-05,19.521,0
1.3023,-0.0001255512,19.5345,0,1.3023,-1.846342E-05,19.5345,0
1.3032,-0.0001077592,19.548,0,1.3032,-3.424125E-05,19.548,0
1.3041,-4.061952E-05,19.5615,0,1.3041,-5.807584E-05,19.5615,0
1.305,-0.0001104448,19.575,0,1.305,-1.544213E-05,19.575,0
1.3059,-0.0001104448,19.5885,0,1.3059,4.36408E-06,19.5885,0
1.3068,2.014191E-06,19.602,0,1.3068,-9.735256E-06,19.602,0
1.3077,2.954147E-05,19.6155,0,1.3077,-2.349889E-06,19.6155,0
1.3086,-4.263371E-05,19.629,0,1.3086,1.745632E-05,19.629,0
1.3095,1.007095E-05,19.6425,0,1.3095,5.035477E-06,19.6425,0
1.3104,5.035477E-06,19.656,0,1.3104,2.349889E-06,19.656,0
1.3113,3.994812E-05,19.6695,0,1.3113,-1.376364E-05,19.6695,0
1.3122,4.53193E-05,19.683,0,1.3122,-1.208515E-05,19.683,0
1.3131,-4.36408E-05,19.6965,0,1.3131,-7.049668E-06,19.6965,0
1.314,4.699779E-06,19.71,0,1.314,-3.356985E-05,19.71,0
1.3149,6.51255E-05,19.7235,0,1.3149,-2.920577E-05,19.7235,0
1.3158,-1.007095E-05,19.737,0,1.3158,7.721065E-06,19.737,0
1.3167,-1.644922E-05,19.7505,0,1.3167,6.378271E-06,19.7505,0
1.3176,2.24918E-05,19.764,0,1.3176,-1.947051E-05,19.764,0
1.3185,3.155566E-05,19.7775,0,1.3185,1.040665E-05,19.7775,0
1.3194,2.1149E-05,19.791,0,1.3194,5.270466E-05,19.791,0
1.3203,7.888914E-05,19.8045,0,1.3203,5.069047E-05,19.8045,0
1.3212,0.0001607996,19.818,0,1.3212,5.673304E-05,19.818,0
1.3221,0.0001644923,19.8315,0,1.3221,3.659113E-05,19.8315,0
1.323,0.000203769,19.845,0,1.323,1.678492E-05,19.845,0
1.3239,0.0001947051,19.8585,0,1.3239,-8.392462E-06,19.8585,0
1.3248,0.0001138018,19.872,0,1.3248,-4.263371E-05,19.872,0
1.3257,-2.719158E-05,19.8855,0,1.3257,-2.887007E-05,19.8855,0
1.3266,-9.735256E-05,19.899,0,1.3266,-7.721065E-06,19.899,0
1.3275,-0.0001134661,19.9125,0,1.3275,-4.061952E-05,19.9125,0
1.3284,-0.0001107805,19.926,0,1.3284,-4.867628E-05,19.926,0
1.3293,-0.0001587854,19.9395,0,1.3293,-2.1149E-05,19.9395,0
1.3302,-9.500267E-05,19.953,0,1.3302,-3.390555E-05,19.953,0
1.3311,-7.385367E-05,19.9665,0,1.3311,-5.304036E-05,19.9665,0
1.332,-0.0001238727,19.98,0,1.332,-6.378271E-06,19.98,0
1.3329,-2.987716E-05,19.9935,0,1.3329,4.028382E-06,19.9935,0
1.3338,7.385367E-06,20.007,0,1.3338,-7.049668E-06,20.007,0
1.3347,-0.0001027237,20.0205,0,1.3347,1.141375E-05,20.0205,0
1.3356,-7.922484E-05,20.034,0,1.3356,3.894102E-05,20.034,0
1.3365,-3.021286E-06,20.0475,0,1.3365,1.980621E-05,20.0475,0
1.3374,8.392462E-06,20.061,0,1.3374,2.450599E-05,20.061,0
1.3383,2.1149E-05,20.0745,0,1.3383,3.860533E-05,20.0745,0
1.3392,-6.076142E-05,20.088,0,1.3392,2.652018E-05,20.088,0
1.3401,-3.256275E-05,20.1015,0,1.3401,8.728161E-06,20.1015,0
1.341,-2.652018E-05,20.115,0,1.341,-2.987716E-05,20.115,0
1.3419,-2.584878E-05,20.1285,0,1.3419,-3.659113E-05,20.1285,0
1.3428,-6.210422E-05,20.142,0,1.3428,-7.721065E-06,20.142,0
1.3437,-5.270466E-05,20.1555,0,1.3437,1.007095E-06,20.1555,0
1.3446,2.18204E-05,20.169,0,1.3446,-3.054856E-05,20.169,0
1.3455,-7.418937E-05,20.1825,0,1.3455,-4.36408E-06,20.1825,0
1.3464,-7.016098E-05,20.196,0,1.3464,-5.706874E-06,20.196,0
1.3473,1.174945E-05,20.2095,0,1.3473,-2.316319E-05,20.2095,0
1.3482,-6.478981E-05,20.223,0,1.3482,1.611353E-05,20.223,0
1.3491,-9.433127E-05,20.2365,0,1.3491,3.457694E-05,20.2365,0
1.35,-3.189136E-05,20.25,0,1.35,2.786297E-05,20.25,0
1.3509,-1.544213E-05,20.2635,0,1.3509,1.678492E-06,20.2635,0
1.3518,9.735256E-06,20.277,0,1.3518,-2.21561E-05,20.277,0
1.3527,4.699779E-06,20.2905,0,1.3527,-1.712062E-05,20.2905,0
1.3536,-7.049668E-06,20.304,0,1.3536,-1.409934E-05,20.304,0
1.3545,4.599069E-05,20.3175,0,1.3545,-4.49836E-05,20.3175,0
1.3554,0.0001064164,20.331,0,1.3554,-5.304036E-05,20.331,0
1.3563,9.097429E-05,20.3445,0,1.3563,-3.189136E-05,20.3445,0
1.3572,6.344701E-05,20.358,0,1.3572,-4.901198E-05,20.358,0
1.3581,7.956054E-05,20.3715,0,1.3581,-0.0001094377,20.3715,0
1.359,6.076142E-05,20.385,0,1.359,-9.500267E-05,20.385,0
1.3599,7.888914E-05,20.3985,0,1.3599,-0.0001232013,20.3985,0
1.3608,5.673304E-05,20.412,0,1.3608,-0.0001654994,20.412,0
1.3617,6.076142E-05,20.4255,0,1.3617,-0.0001138018,20.4255,0
1.3626,-5.706874E-06,20.439,0,1.3626,-5.673304E-05,20.439,0
1.3635,3.390555E-05,20.4525,0,1.3635,-5.539025E-05,20.4525,0
1.3644,3.457694E-05,20.466,0,1.3644,-4.29694E-05,20.466,0
1.3653,8.090334E-05,20.4795,0,1.3653,-3.894102E-05,20.4795,0
1.3662,-1.678492E-06,20.493,0,1.3662,-2.920577E-05,20.493,0
1.3671,-4.095522E-05,20.5065,0,1.3671,-1.007095E-05,20.5065,0
1.368,-8.056763E-06,20.52,0,1.368,-2.18204E-05,20.52,0
1.3689,-2.24918E-05,20.5335,0,1.3689,-1.812772E-05,20.5335,0
1.3698,-7.016098E-05,20.547,0,1.3698,1.309224E-05,20.547,0
1.3707,-4.666209E-05,20.5605,0,1.3707,1.678492E-06,20.5605,0
1.3716,-6.042573E-06,20.574,0,1.3716,-2.517739E-05,20.574,0
1.3725,-4.129091E-05,20.5875,0,1.3725,1.678492E-05,20.5875,0
1.3734,-1.376364E-05,20.601,0,1.3734,2.014191E-05,20.601,0
1.3743,-1.678492E-05,20.6145,0,1.3743,6.378271E-06,20.6145,0
1.3752,-1.913481E-05,20.628,0,1.3752,1.141375E-05,20.628,0
1.3761,-2.349889E-05,20.6415,0,1.3761,3.659113E-05,20.6415,0
1.377,9.735256E-06,20.655,0,1.377,4.061952E-05,20.655,0
1.3779,-3.356985E-06,20.6685,0,1.3779,3.994812E-05,20.6685,0
1.3788,1.577783E-05,20.682,0,1.3788,1.879912E-05,20.682,0
1.3797,3.021286E-06,20.6955,0,1.3797,1.544213E-05,20.6955,0
1.3806,-6.109713E-05,20.709,0,1.3806,1.309224E-05,20.709,0
1.3815,-1.644922E-05,20.7225,0,1.3815,1.678492E-06,20.7225,0
1.3824,5.471885E-05,20.736,0,1.3824,-1.174945E-05,20.736,0
1.3833,-2.21561E-05,20.7495,0,1.3833,3.390555E-05,20.7495,0
1.3842,7.721065E-06,20.763,0,1.3842,1.779202E-05,20.763,0
1.3851,9.634547E-05,20.7765,0,1.3851,-3.256275E-05,20.7765,0
1.386,-2.014191E-06,20.79,0,1.386,-2.014191E-05,20.79,0
1.3869,-3.692683E-06,20.8035,0,1.3869,-3.155566E-05,20.8035,0
1.3878,4.53193E-05,20.817,0,1.3878,-5.337606E-05,20.817,0
1.3887,8.090334E-05,20.8305,0,1.3887,-4.129091E-05,20.8305,0
1.3896,-1.342794E-05,20.844,0,1.3896,-1.242084E-05,20.844,0
1.3905,2.18204E-05,20.8575,0,1.3905,-1.980621E-05,20.8575,0
1.3914,5.471885E-05,20.871,0,1.3914,-3.088426E-05,20.871,0
1.3923,1.980621E-05,20.8845,0,1.3923,-6.143282E-05,20.8845,0
1.3932,-7.385367E-06,20.898,0,1.3932,-2.853437E-05,20.898,0
1.3941,1.040665E-05,20.9115,0,1.3941,-2.316319E-05,20.9115,0
1.395,2.047761E-05,20.925,0,1.395,-1.712062E-05,20.925,0
1.3959,3.524834E-05,20.9385,0,1.3959,-2.316319E-05,20.9385,0
1.3968,1.040665E-05,20.952,0,1.3968,1.007095E-06,20.952,0
1.3977,-1.007095E-06,20.9655,0,1.3977,-1.141375E-05,20.9655,0
1.3986,5.841154E-05,20.979,0,1.3986,-4.061952E-05,20.979,0
1.3995,-1.779202E-05,20.9925,0,1.3995,-2.887007E-05,20.9925,0
1.4004,-4.699779E-05,21.006,0,1.4004,-2.349889E-05,21.006,0
1.4013,-4.263371E-05,21.0195,0,1.4013,-4.39765E-05,21.0195,0
1.4022,-6.378271E-06,21.033,0,1.4022,-3.860533E-05,21.033,0
1.4031,-5.203327E-05,21.0465,0,1.4031,-3.256275E-05,21.0465,0
1.404,-5.975433E-05,21.06,0,1.404,-4.666209E-05,21.06,0
1.4049,-4.934768E-05,21.0735,0,1.4049,-5.035477E-05,21.0735,0
1.4058,-2.349889E-06,21.087,0,1.4058,-7.083238E-05,21.087,0
1.4067,-5.740444E-05,21.1005,0,1.4067,-5.270466E-05,21.1005,0
1.4076,-9.701686E-05,21.114,0,1.4076,-4.129091E-05,21.114,0
1.4085,1.544213E-05,21.1275,0,1.4085,-6.378271E-05,21.1275,0
1.4094,4.699779E-06,21.141,0,1.4094,-4.968337E-05,21.141,0
1.4103,-3.457694E-05,21.1545,0,1.4103,-1.242084E-05,21.1545,0
1.4112,-1.510643E-05,21.168,0,1.4112,-2.450599E-05,21.168,0
1.4121,4.800488E-05,21.1815,0,1.4121,-3.424125E-05,21.1815,0
1.413,-3.457694E-05,21.195,0,1.413,7.049668E-06,21.195,0
1.4139,-1.644922E-05,21.2085,0,1.4139,1.040665E-05,21.2085,0
1.4148,3.524834E-05,21.222,0,1.4148,-1.510643E-05,21.222,0
1.4157,-2.719158E-05,21.2355,0,1.4157,-1.376364E-05,21.2355,0
1.4166,-6.042573E-05,21.249,0,1.4166,-1.913481E-05,21.249,0
1.4175,-4.699779E-06,21.2625,0,1.4175,-2.484169E-05,21.2625,0
1.4184,-4.263371E-05,21.276,0,1.4184,-1.779202E-05,21.276,0
1.4193,-3.356985E-06,21.2895,0,1.4193,-9.735256E-06,21.2895,0
1.4202,2.920577E-05,21.303,0,1.4202,5.706874E-06,21.303,0
1.4211,1.644922E-05,21.3165,0,1.4211,-4.36408E-06,21.3165,0
1.422,1.510643E-05,21.33,0,1.422,-8.392462E-06,21.33,0
1.4229,3.591974E-05,21.3435,0,1.4229,-1.544213E-05,21.3435,0
1.4238,-3.256275E-05,21.357,0,1.4238,2.047761E-05,21.357,0
1.4247,-1.712062E-05,21.3705,0,1.4247,7.385367E-06,21.3705,0
1.4256,4.36408E-05,21.384,0,1.4256,-3.356985E-05,21.384,0
1.4265,-3.021286E-05,21.3975,0,1.4265,-5.035477E-06,21.3975,0
1.4274,-8.224613E-05,21.411,0,1.4274,2.081331E-05,21.411,0
1.4283,4.36408E-06,21.4245,0,1.4283,-1.510643E-05,21.4245,0
1.4292,1.040665E-05,21.438,0,1.4292,-7.049668E-06,21.438,0
1.4301,-5.606165E-05,21.4515,0,1.4301,2.1149E-05,21.4515,0
1.431,-1.342794E-06,21.465,0,1.431,7.049668E-06,21.465,0
1.4319,2.920577E-05,21.4785,0,1.4319,-2.081331E-05,21.4785,0
1.4328,2.081331E-05,21.492,0,1.4328,-4.061952E-05,21.492,0
1.4337,-3.524834E-05,21.5055,0,1.4337,-1.309224E-05,21.5055,0
1.4346,-6.6804E-05,21.519,0,1.4346,-1.510643E-05,21.519,0
1.4355,-4.263371E-05,21.5325,0,1.4355,-4.129091E-05,21.5325,0
1.4364,-7.150377E-05,21.546,0,1.4364,-3.994812E-05,21.546,0
1.4373,-6.411841E-05,21.5595,0,1.4373,1.846342E-05,21.5595,0
1.4382,-4.162661E-05,21.573,0,1.4382,3.256275E-05,21.573,0
1.4391,-5.706874E-06,21.5865,0,1.4391,1.275654E-05,21.5865,0
1.44,-3.390555E-05,21.6,0,1.44,3.457694E-05,21.6,0
1.4409,-0.0001094377,21.6135,0,1.4409,3.591974E-05,21.6135,0
1.4418,-9.466698E-05,21.627,0,1.4418,-2.349889E-06,21.627,0
1.4427,-5.941863E-05,21.6405,0,1.4427,-7.721065E-06,21.6405,0
1.4436,-8.627451E-05,21.654,0,1.4436,-4.36408E-06,21.654,0
1.4445,-8.123904E-05,21.6675,0,1.4445,-1.712062E-05,21.6675,0
1.4454,-2.853437E-05,21.681,0,1.4454,-1.913481E-05,21.681,0
1.4463,3.021286E-06,21.6945,0,1.4463,-4.36408E-05,21.6945,0
1.4472,1.510643E-05,21.708,0,1.4472,-1.779202E-05,21.708,0
1.4481,1.376364E-05,21.7215,0,1.4481,4.36408E-06,21.7215,0
1.449,2.752728E-05,21.735,0,1.449,-3.524834E-05,21.735,0
1.4499,5.639734E-05,21.7485,0,1.4499,-5.069047E-05,21.7485,0
1.4508,4.36408E-06,21.762,0,1.4508,-1.980621E-05,21.762,0
1.4517,1.275654E-05,21.7755,0,1.4517,-5.035477E-05,21.7755,0
1.4526,6.143282E-05,21.789,0,1.4526,-8.89601E-05,21.789,0
1.4535,-2.652018E-05,21.8025,0,1.4535,-5.807584E-05,21.8025,0
1.4544,-2.618448E-05,21.816,0,1.4544,-6.344701E-05,21.816,0
1.4553,6.64683E-05,21.8295,0,1.4553,-8.291753E-05,21.8295,0
1.4562,4.733349E-05,21.843,0,1.4562,-6.210422E-05,21.843,0
1.4571,-1.275654E-05,21.8565,0,1.4571,-4.49836E-05,21.8565,0
1.458,-3.021286E-06,21.87,0,1.458,-5.203327E-05,21.87,0
1.4589,-9.063859E-06,21.8835,0,1.4589,-6.109713E-05,21.8835,0
1.4598,-3.021286E-06,21.897,0,1.4598,-7.519646E-05,21.897,0
1.4607,-6.54612E-05,21.9105,0,1.4607,-5.941863E-05,21.9105,0
1.4616,-9.634547E-05,21.924,0,1.4616,-6.478981E-05,21.924,0
1.4625,-8.560311E-05,21.9375,0,1.4625,-8.560311E-05,21.9375,0
1.4634,-3.256275E-05,21.951,0,1.4634,-6.881819E-05,21.951,0
1.4643,1.678492E-06,21.9645,0,1.4643,-2.652018E-05,21.9645,0
1.4652,1.242084E-05,21.978,0,1.4652,-3.189136E-05,21.978,0
1.4661,8.560311E-05,21.9915,0,1.4661,-4.599069E-05,21.9915,0
1.467,2.652018E-05,22.005,0,1.467,2.349889E-06,22.005,0
1.4679,1.712062E-05,22.0185,0,1.4679,5.706874E-06,22.0185,0
1.4688,9.231708E-05,22.032,0,1.4688,-3.021286E-05,22.032,0
1.4697,8.89601E-05,22.0455,0,1.4697,-6.713969E-06,22.0455,0
1.4706,5.069047E-05,22.059,0,1.4706,1.040665E-05,22.059,0
1.4715,5.874724E-05,22.0725,0,1.4715,3.356985E-07,22.0725,0
1.4724,4.263371E-05,22.086,0,1.4724,9.063859E-06,22.086,0
1.4733,7.418937E-05,22.0995,0,1.4733,-1.678492E-06,22.0995,0
1.4742,-3.390555E-05,22.113,0,1.4742,2.18204E-05,22.113,0
1.4751,-4.867628E-05,22.1265,0,1.4751,5.001907E-05,22.1265,0
1.476,1.040665E-05,22.14,0,1.476,2.584878E-05,22.14,0
1.4769,-1.309224E-05,22.1535,0,1.4769,1.812772E-05,22.1535,0
1.4778,-7.956054E-05,22.167,0,1.4778,5.203327E-05,22.167,0
1.4787,-6.378271E-05,22.1805,0,1.4787,4.599069E-05,22.1805,0
1.4796,2.450599E-05,22.194,0,1.4796,7.049668E-06,22.194,0
1.4805,-3.491264E-05,22.2075,0,1.4805,3.256275E-05,22.2075,0
1.4814,-3.726253E-05,22.221,0,1.4814,3.927672E-05,22.221,0
1.4823,-3.390555E-05,22.2345,0,1.4823,1.510643E-05,22.2345,0
1.4832,-3.121996E-05,22.248,0,1.4832,3.356985E-07,22.248,0
1.4841,-5.035477E-05,22.2615,0,1.4841,1.443504E-05,22.2615,0
1.485,1.107805E-05,22.275,0,1.485,1.577783E-05,22.275,0
1.4859,1.577783E-05,22.2885,0,1.4859,3.692683E-06,22.2885,0
1.4868,5.706874E-05,22.302,0,1.4868,-1.376364E-05,22.302,0
1.4877,5.874724E-05,22.3155,0,1.4877,-5.706874E-06,22.3155,0
1.4886,-4.196231E-05,22.329,0,1.4886,-1.644922E-05,22.329,0
1.4895,-1.376364E-05,22.3425,0,1.4895,-3.256275E-05,22.3425,0
1.4904,2.1149E-05,22.356,0,1.4904,-4.36408E-05,22.356,0
1.4913,-6.915389E-05,22.3695,0,1.4913,-1.812772E-05,22.3695,0
1.4922,-4.46479E-05,22.383,0,1.4922,-3.457694E-05,22.383,0
1.4931,6.948959E-05,22.3965,0,1.4931,-7.486076E-05,22.3965,0
1.494,-3.054856E-05,22.41,0,1.494,-3.591974E-05,22.41,0
1.4949,2.584878E-05,22.4235,0,1.4949,-3.793393E-05,22.4235,0
1.4958,0.0001117876,22.437,0,1.4958,-6.881819E-05,22.437,0
1.4967,2.719158E-05,22.4505,0,1.4967,-4.733349E-05,22.4505,0
1.4976,-3.524834E-05,22.464,0,1.4976,-3.524834E-05,22.464,0
1.4985,-3.356985E-07,22.4775,0,1.4985,-4.33051E-05,22.4775,0
1.4994,-5.706874E-06,22.491,0,1.4994,-3.625543E-05,22.491,0
1.5003,-3.659113E-05,22.5045,0,1.5003,-4.934768E-05,22.5045,0
1.5012,-4.968337E-05,22.518,0,1.5012,-4.36408E-06,22.518,0
1.5021,-7.418937E-05,22.5315,0,1.5021,1.678492E-05,22.5315,0
1.503,-4.061952E-05,22.545,0,1.503,9.063859E-06,22.545,0
1.5039,2.081331E-05,22.5585,0,1.5039,-8.392462E-06,22.5585,0
1.5048,1.309224E-05,22.572,0,1.5048,1.275654E-05,22.572,0
1.5057,3.054856E-05,22.5855,0,1.5057,1.040665E-05,22.5855,0
1.5066,7.486076E-05,22.599,0,1.5066,-3.256275E-05,22.599,0
1.5075,2.047761E-05,22.6125,0,1.5075,-1.409934E-05,22.6125,0
1.5084,4.36408E-05,22.626,0,1.5084,-1.712062E-05,22.626,0
1.5093,3.659113E-05,22.6395,0,1.5093,-5.203327E-05,22.6395,0
1.5102,-7.049668E-06,22.653,0,1.5102,-3.289845E-05,22.653,0
1.5111,-1.611353E-05,22.6665,0,1.5111,-1.376364E-05,22.6665,0
1.512,-2.1149E-05,22.68,0,1.512,-4.196231E-05,22.68,0
1.5129,-1.208515E-05,22.6935,0,1.5129,-4.867628E-05,22.6935,0
1.5138,2.21561E-05,22.707,0,1.5138,-6.982528E-05,22.707,0
1.5147,4.028382E-06,22.7205,0,1.5147,-5.471885E-05,22.7205,0
1.5156,-5.203327E-05,22.734,0,1.5156,-4.766919E-05,22.734,0
1.5165,-1.644922E-05,22.7475,0,1.5165,-7.855344E-05,22.7475,0
1.5174,-3.558404E-05,22.761,0,1.5174,-8.291753E-05,22.761,0
1.5183,-4.934768E-05,22.7745,0,1.5183,-4.263371E-05,22.7745,0
1.5192,-3.356985E-07,22.788,0,1.5192,-5.673304E-05,22.788,0
1.5201,7.989624E-05,22.8015,0,1.5201,-7.821774E-05,22.8015,0
1.521,-1.510643E-05,22.815,0,1.521,-2.853437E-05,22.815,0
1.5219,2.517739E-05,22.8285,0,1.5219,-2.24918E-05,22.8285,0
1.5228,3.323415E-05,22.842,0,1.5228,-2.887007E-05,22.842,0
1.5237,1.275654E-05,22.8555,0,1.5237,-2.24918E-05,22.8555,0
1.5246,1.275654E-05,22.869,0,1.5246,-2.349889E-06,22.869,0
1.5255,2.786297E-05,22.8825,0,1.5255,-3.021286E-06,22.8825,0
1.5264,-4.699779E-06,22.896,0,1.5264,-1.007095E-06,22.896,0
1.5273,4.766919E-05,22.9095,0,1.5273,-1.913481E-05,22.9095,0
1.5282,8.023193E-05,22.923,0,1.5282,-2.786297E-05,22.923,0
1.5291,3.994812E-05,22.9365,0,1.5291,-1.712062E-05,22.9365,0
1.53,5.975433E-05,22.95,0,1.53,-3.390555E-05,22.95,0
1.5309,9.130999E-05,22.9635,0,1.5309,-5.236896E-05,22.9635,0
1.5318,-1.510643E-05,22.977,0,1.5318,-2.752728E-05,22.977,0
1.5327,-1.712062E-05,22.9905,0,1.5327,-1.913481E-05,22.9905,0
1.5336,2.786297E-05,23.004,0,1.5336,-3.793393E-05,23.004,0
1.5345,-6.881819E-05,23.0175,0,1.5345,2.1149E-05,23.0175,0
1.5354,-9.701686E-05,23.031,0,1.5354,3.793393E-05,23.031,0
1.5363,-2.28275E-05,23.0445,0,1.5363,1.577783E-05,23.0445,0
1.5372,-3.659113E-05,23.058,0,1.5372,4.632639E-05,23.058,0
1.5381,-0.0001171588,23.0715,0,1.5381,6.076142E-05,23.0715,0
1.539,-9.030289E-05,23.085,0,1.539,4.867628E-05,23.085,0
1.5399,-6.143282E-05,23.0985,0,1.5399,4.666209E-05,23.0985,0
1.5408,-1.376364E-05,23.112,0,1.5408,3.457694E-05,23.112,0
1.5417,-4.36408E-06,23.1255,0,1.5417,4.43122E-05,23.1255,0
1.5426,-3.323415E-05,23.139,0,1.5426,4.229801E-05,23.139,0
1.5435,-2.484169E-05,23.1525,0,1.5435,1.141375E-05,23.1525,0
1.5444,-4.36408E-05,23.166,0,1.5444,-1.107805E-05,23.166,0
1.5453,-6.076142E-05,23.1795,0,1.5453,1.779202E-05,23.1795,0
1.5462,-2.954147E-05,23.193,0,1.5462,1.577783E-05,23.193,0
1.5471,-5.706874E-06,23.2065,0,1.5471,-3.021286E-06,23.2065,0
1.548,-6.814679E-05,23.22,0,1.548,2.618448E-05,23.22,0
1.5489,-2.28275E-05,23.2335,0,1.5489,2.920577E-05,23.2335,0
1.5498,2.349889E-05,23.247,0,1.5498,-6.378271E-06,23.247,0
1.5507,-4.699779E-06,23.2605,0,1.5507,2.685588E-06,23.2605,0
1.5516,-5.874724E-05,23.274,0,1.5516,2.584878E-05,23.274,0
1.5525,-2.987716E-05,23.2875,0,1.5525,-1.342794E-06,23.2875,0
1.5534,7.721065E-06,23.301,0,1.5534,-2.014191E-05,23.301,0
1.5543,3.256275E-05,23.3145,0,1.5543,-3.591974E-05,23.3145,0
1.5552,1.040665E-05,23.328,0,1.5552,-3.323415E-05,23.328,0
1.5561,-5.136187E-05,23.3415,0,1.5561,-3.726253E-05,23.3415,0
1.557,-3.692683E-06,23.355,0,1.557,-5.539025E-05,23.355,0
1.5579,4.699779E-06,23.3685,0,1.5579,-7.922484E-05,23.3685,0
1.5588,-5.874724E-05,23.382,0,1.5588,-4.162661E-05,23.382,0
1.5597,-3.256275E-05,23.3955,0,1.5597,-5.169757E-05,23.3955,0
1.5606,-1.107805E-05,23.409,0,1.5606,-8.392462E-05,23.409,0
1.5615,-0.0001033951,23.4225,0,1.5615,-5.136187E-05,23.4225,0
1.5624,-7.150377E-05,23.436,0,1.5624,-3.256275E-05,23.436,0
1.5633,-1.275654E-05,23.4495,0,1.5633,-6.78111E-05,23.4495,0
1.5642,-0.0001111162,23.463,0,1.5642,-4.766919E-05,23.463,0
1.5651,-0.0001232013,23.4765,0,1.5651,2.014191E-06,23.4765,0
1.566,-4.565499E-05,23.49,0,1.566,3.356985E-06,23.49,0
1.5669,-9.399557E-05,23.5035,0,1.5669,-2.349889E-05,23.5035,0
1.5678,-4.196231E-05,23.517,0,1.5678,-1.107805E-05,23.517,0
1.5687,1.007095E-05,23.5305,0,1.5687,7.049668E-06,23.5305,0
1.5696,-3.021286E-06,23.544,0,1.5696,9.735256E-06,23.544,0
1.5705,-7.049668E-06,23.5575,0,1.5705,-1.846342E-05,23.5575,0
1.5714,1.846342E-05,23.571,0,1.5714,-4.33051E-05,23.571,0
1.5723,-3.021286E-05,23.5845,0,1.5723,-1.678492E-05,23.5845,0
1.5732,-1.779202E-05,23.598,0,1.5732,-3.256275E-05,23.598,0
1.5741,6.378271E-05,23.6115,0,1.5741,-5.841154E-05,23.6115,0
1.575,1.376364E-05,23.625,0,1.575,-1.812772E-05,23.625,0
1.5759,1.577783E-05,23.6385,0,1.5759,-4.33051E-05,23.6385,0
1.5768,6.009003E-05,23.652,0,1.5768,-6.478981E-05,23.652,0
1.5777,2.719158E-05,23.6655,0,1.5777,-5.404745E-05,23.6655,0
1.5786,7.385367E-06,23.679,0,1.5786,-5.539025E-05,23.679,0
1.5795,3.726253E-05,23.6925,0,1.5795,-6.344701E-05,23.6925,0
1.5804,6.6804E-05,23.706,0,1.5804,-7.418937E-05,23.706,0
1.5813,7.418937E-05,23.7195,0,1.5813,-8.426032E-05,23.7195,0
1.5822,4.196231E-05,23.733,0,1.5822,-5.874724E-05,23.733,0
1.5831,4.162661E-05,23.7465,0,1.5831,-2.853437E-05,23.7465,0
1.584,5.706874E-06,23.76,0,1.584,-7.016098E-05,23.76,0
1.5849,2.584878E-05,23.7735,0,1.5849,-7.586786E-05,23.7735,0
1.5858,5.035477E-06,23.787,0,1.5858,-3.793393E-05,23.787,0
1.5867,6.378271E-06,23.8005,0,1.5867,-4.565499E-05,23.8005,0
1.5876,4.934768E-05,23.814,0,1.5876,-7.116808E-05,23.814,0
1.5885,-1.846342E-05,23.8275,0,1.5885,-2.551309E-05,23.8275,0
1.5894,-1.577783E-05,23.841,0,1.5894,-1.779202E-05,23.841,0
1.5903,4.028382E-06,23.8545,0,1.5903,-2.584878E-05,23.8545,0
1.5912,-3.424125E-05,23.868,0,1.5912,-2.081331E-05,23.868,0
1.5921,-4.565499E-05,23.8815,0,1.5921,3.021286E-06,23.8815,0
1.593,9.063859E-06,23.895,0,1.593,7.049668E-06,23.895,0
1.5939,5.136187E-05,23.9085,0,1.5939,-2.014191E-06,23.9085,0
1.5948,0.0001168231,23.922,0,1.5948,-6.378271E-06,23.922,0
1.5957,5.304036E-05,23.9355,0,1.5957,1.007095E-06,23.9355,0
1.5966,3.189136E-05,23.949,0,1.5966,2.014191E-06,23.949,0
1.5975,6.881819E-05,23.9625,0,1.5975,-3.692683E-06,23.9625,0
1.5984,3.054856E-05,23.976,0,1.5984,6.713969E-07,23.976,0
1.5993,-5.236896E-05,23.9895,0,1.5993,1.712062E-05,23.9895,0
1.6002,-5.404745E-05,24.003,0,1.6002,1.913481E-05,24.003,0
1.6011,-9.063859E-06,24.0165,0,1.6011,-1.208515E-05,24.0165,0
1.602,-9.030289E-05,24.03,0,1.602,2.316319E-05,24.03,0
1.6029,-0.0001141375,24.0435,0,1.6029,2.450599E-05,24.0435,0
1.6038,-1.644922E-05,24.057,0,1.6038,3.356985E-07,24.057,0
1.6047,-6.814679E-05,24.0705,0,1.6047,1.174945E-05,24.0705,0
1.6056,-0.0001104448,24.084,0,1.6056,3.356985E-05,24.084,0
1.6065,-3.826963E-05,24.0975,0,1.6065,4.53193E-05,24.0975,0
1.6074,-4.599069E-05,24.111,0,1.6074,4.39765E-05,24.111,0
1.6083,-3.457694E-05,24.1245,0,1.6083,2.517739E-05,24.1245,0
1.6092,-3.088426E-05,24.138,0,1.6092,4.53193E-05,24.138,0
1.6101,-5.035477E-06,24.1515,0,1.6101,5.136187E-05,24.1515,0
1.611,2.24918E-05,24.165,0,1.611,2.786297E-05,24.165,0
1.6119,6.143282E-05,24.1785,0,1.6119,-7.049668E-06,24.1785,0
1.6128,1.846342E-05,24.192,0,1.6128,1.913481E-05,24.192,0
1.6137,3.692683E-05,24.2055,0,1.6137,-3.692683E-06,24.2055,0
1.6146,7.486076E-05,24.219,0,1.6146,-4.632639E-05,24.219,0
1.6155,9.063859E-06,24.2325,0,1.6155,-1.577783E-05,24.2325,0
1.6164,-5.169757E-05,24.246,0,1.6164,-2.786297E-05,24.246,0
1.6173,-1.812772E-05,24.2595,0,1.6173,-5.136187E-05,24.2595,0
1.6182,1.712062E-05,24.273,0,1.6182,-2.853437E-05,24.273,0
1.6191,-4.632639E-05,24.2865,0,1.6191,-3.356985E-07,24.2865,0
1.62,-5.169757E-05,24.3,0,1.62,-1.510643E-05,24.3,0
1.6209,-1.477073E-05,24.3135,0,1.6209,-1.275654E-05,24.3135,0
1.6218,2.652018E-05,24.327,0,1.6218,-1.745632E-05,24.327,0
1.6227,-1.376364E-05,24.3405,0,1.6227,9.063859E-06,24.3405,0
1.6236,-5.706874E-06,24.354,0,1.6236,-2.349889E-06,24.354,0
1.6245,4.36408E-06,24.3675,0,1.6245,-3.424125E-05,24.3675,0
1.6254,-2.887007E-05,24.381,0,1.6254,-5.035477E-05,24.381,0
1.6263,-7.217517E-05,24.3945,0,1.6263,-1.644922E-05,24.3945,0
1.6272,-2.987716E-05,24.408,0,1.6272,-2.853437E-05,24.408,0
1.6281,3.390555E-05,24.4215,0,1.6281,-6.210422E-05,24.4215,0
1.629,-6.848249E-05,24.435,0,1.629,-2.920577E-05,24.435,0
1.6299,-7.620356E-05,24.4485,0,1.6299,-2.786297E-05,24.4485,0
1.6308,-3.256275E-05,24.462,0,1.6308,-5.908293E-05,24.462,0
1.6317,6.378271E-06,24.4755,0,1.6317,-6.009003E-05,24.4755,0
1.6326,-1.745632E-05,24.489,0,1.6326,-2.954147E-05,24.489,0
1.6335,-7.721065E-06,24.5025,0,1.6335,-3.894102E-05,24.5025,0
1.6344,-5.035477E-06,24.516,0,1.6344,-4.599069E-05,24.516,0
1.6353,3.826963E-05,24.5295,0,1.6353,-6.478981E-05,24.5295,0
1.6362,-3.692683E-06,24.543,0,1.6362,-5.841154E-05,24.543,0
1.6371,-6.311131E-05,24.5565,0,1.6371,-4.263371E-05,24.5565,0
1.638,-3.121996E-05,24.57,0,1.638,-6.009003E-05,24.57,0
1.6389,1.510643E-05,24.5835,0,1.6389,-8.123904E-05,24.5835,0
1.6398,-5.069047E-05,24.597,0,1.6398,-3.155566E-05,24.597,0
1.6407,1.007095E-06,24.6105,0,1.6407,-2.24918E-05,24.6105,0
1.6416,8.023193E-05,24.624,0,1.6416,-4.599069E-05,24.624,0
1.6425,-3.524834E-05,24.6375,0,1.6425,1.443504E-05,24.6375,0
1.6434,-2.819867E-05,24.651,0,1.6434,2.014191E-05,24.651,0
1.6443,4.39765E-05,24.6645,0,1.6443,-1.376364E-05,24.6645,0
1.6452,1.678492E-06,24.678,0,1.6452,9.063859E-06,24.678,0
1.6461,-4.599069E-05,24.6915,0,1.6461,2.954147E-05,24.6915,0
1.647,-3.356985E-07,24.705,0,1.647,2.21561E-05,24.705,0
1.6479,3.692683E-06,24.7185,0,1.6479,1.644922E-05,24.7185,0
1.6488,5.606165E-05,24.732,0,1.6488,-1.376364E-05,24.732,0
1.6497,3.356985E-06,24.7455,0,1.6497,7.721065E-06,24.7455,0
1.6506,-5.941863E-05,24.759,0,1.6506,1.107805E-05,24.759,0
1.6515,-5.471885E-05,24.7725,0,1.6515,-2.349889E-05,24.7725,0
1.6524,-2.853437E-05,24.786,0,1.6524,-4.229801E-05,24.786,0
1.6533,-3.054856E-05,24.7995,0,1.6533,-5.035477E-06,24.7995,0
1.6542,-1.443504E-05,24.813,0,1.6542,-1.980621E-05,24.813,0
1.6551,6.378271E-06,24.8265,0,1.6551,-5.941863E-05,24.8265,0
1.656,-3.155566E-05,24.84,0,1.656,-3.524834E-05,24.84,0
1.6569,-1.007095E-06,24.8535,0,1.6569,-2.584878E-05,24.8535,0
1.6578,1.007095E-05,24.867,0,1.6578,-5.304036E-05,24.867,0
1.6587,2.920577E-05,24.8805,0,1.6587,-3.894102E-05,24.8805,0
1.6596,-4.901198E-05,24.894,0,1.6596,-2.584878E-05,24.894,0
1.6605,-1.913481E-05,24.9075,0,1.6605,-5.001907E-05,24.9075,0
1.6614,-2.349889E-06,24.921,0,1.6614,-5.169757E-05,24.921,0
1.6623,3.726253E-05,24.9345,0,1.6623,-7.049668E-05,24.9345,0
1.6632,4.766919E-05,24.948,0,1.6632,-6.076142E-05,24.948,0
1.6641,5.069047E-05,24.9615,0,1.6641,-3.558404E-05,24.9615,0
1.665,8.560311E-05,24.975,0,1.665,-4.46479E-05,24.975,0
1.6659,8.82887E-05,24.9885,0,1.6659,-4.599069E-05,24.9885,0
1.6668,5.337606E-05,25.002,0,1.6668,-5.706874E-06,25.002,0
1.6677,8.493171E-05,25.0155,0,1.6677,-1.745632E-05,25.0155,0
1.6686,0.0001000381,25.029,0,1.6686,-4.53193E-05,25.029,0
1.6695,2.987716E-05,25.0425,0,1.6695,-5.706874E-06,25.0425,0
1.6704,3.189136E-05,25.056,0,1.6704,1.309224E-05,25.056,0
1.6713,3.759823E-05,25.0695,0,1.6713,-1.913481E-05,25.0695,0
1.6722,-2.014191E-06,25.083,0,1.6722,-2.14847E-05,25.083,0
1.6731,-2.719158E-05,25.0965,0,1.6731,8.728161E-06,25.0965,0
1.674,3.793393E-05,25.11,0,1.674,8.728161E-06,25.11,0
1.6749,5.035477E-06,25.1235,0,1.6749,-3.021286E-06,25.1235,0
1.6758,6.915389E-05,25.137,0,1.6758,-7.049668E-06,25.137,0
1.6767,0.0001017166,25.1505,0,1.6767,9.063859E-06,25.1505,0
1.6776,7.418937E-05,25.164,0,1.6776,2.383459E-05,25.164,0
1.6785,9.701686E-05,25.1775,0,1.6785,1.376364E-05,25.1775,0
1.6794,0.0001154803,25.191,0,1.6794,3.356985E-06,25.191,0
1.6803,1.443504E-05,25.2045,0,1.6803,2.21561E-05,25.2045,0
1.6812,0,25.218,0,1.6812,1.913481E-05,25.218,0
1.6821,2.316319E-05,25.2315,0,1.6821,-8.392462E-06,25.2315,0
1.683,-3.424125E-05,25.245,0,1.683,1.309224E-05,25.245,0
1.6839,-2.316319E-05,25.2585,0,1.6839,7.721065E-06,25.2585,0
1.6848,-3.356985E-06,25.272,0,1.6848,-1.544213E-05,25.272,0
1.6857,2.18204E-05,25.2855,0,1.6857,-1.007095E-06,25.2855,0
1.6866,-2.450599E-05,25.299,0,1.6866,1.040665E-05,25.299,0
1.6875,1.510643E-05,25.3125,0,1.6875,-4.36408E-06,25.3125,0
1.6884,2.24918E-05,25.326,0,1.6884,-1.913481E-05,25.326,0
1.6893,9.063859E-06,25.3395,0,1.6893,-4.36408E-05,25.3395,0
1.6902,-2.719158E-05,25.353,0,1.6902,-2.316319E-05,25.353,0
1.6911,7.385367E-06,25.3665,0,1.6911,-2.618448E-05,25.3665,0
1.692,-6.378271E-06,25.38,0,1.692,-3.793393E-05,25.38,0
1.6929,-4.028382E-06,25.3935,0,1.6929,-4.129091E-05,25.3935,0
1.6938,-1.309224E-05,25.407,0,1.6938,-1.779202E-05,25.407,0
1.6947,-3.726253E-05,25.4205,0,1.6947,-2.14847E-05,25.4205,0
1.6956,1.779202E-05,25.434,0,1.6956,-5.606165E-05,25.434,0
1.6965,-3.860533E-05,25.4475,0,1.6965,-1.712062E-05,25.4475,0
1.6974,-3.054856E-05,25.461,0,1.6974,-1.510643E-05,25.461,0
1.6983,-1.779202E-05,25.4745,0,1.6983,-5.639734E-05,25.4745,0
1.6992,-0.0001077592,25.488,0,1.6992,-6.076142E-05,25.488,0
1.7001,-0.0001084306,25.5015,0,1.7001,-3.961242E-05,25.5015,0
1.701,-0.000105745,25.515,0,1.701,-6.277562E-05,25.515,0
1.7019,-9.835965E-05,25.5285,0,1.7019,-7.083238E-05,25.5285,0
1.7028,-1.174945E-05,25.542,0,1.7028,-5.807584E-05,25.542,0
1.7037,-4.061952E-05,25.5555,0,1.7037,-3.726253E-05,25.5555,0
1.7046,9.063859E-06,25.569,0,1.7046,-2.349889E-06,25.569,0
1.7055,6.881819E-05,25.5825,0,1.7055,-1.443504E-05,25.5825,0
1.7064,3.961242E-05,25.596,0,1.7064,-6.378271E-06,25.596,0
1.7073,-2.316319E-05,25.6095,0,1.7073,1.309224E-05,25.6095,0
1.7082,-3.692683E-06,25.623,0,1.7082,1.577783E-05,25.623,0
1.7091,2.383459E-05,25.6365,0,1.7091,-2.349889E-06,25.6365,0
1.71,-9.567407E-05,25.65,0,1.71,3.054856E-05,25.65,0
1.7109,-8.358892E-05,25.6635,0,1.7109,6.378271E-06,25.6635,0
1.7118,2.014191E-06,25.677,0,1.7118,-8.728161E-06,25.677,0
1.7127,-7.284657E-05,25.6905,0,1.7127,-3.356985E-07,25.6905,0
1.7136,-0.0001047379,25.704,0,1.7136,1.376364E-05,25.704,0
1.7145,-3.155566E-05,25.7175,0,1.7145,2.18204E-05,25.7175,0
1.7154,-6.311131E-05,25.731,0,1.7154,1.342794E-05,25.731,0
1.7163,-3.289845E-05,25.7445,0,1.7163,-1.678492E-06,25.7445,0
1.7172,-3.524834E-05,25.758,0,1.7172,2.450599E-05,25.758,0
1.7181,-3.390555E-05,25.7715,0,1.7181,4.53193E-05,25.7715,0
1.719,-2.316319E-05,25.785,0,1.719,1.611353E-05,25.785,0
1.7199,-9.735256E-06,25.7985,0,1.7199,-9.063859E-06,25.7985,0
1.7208,-4.028382E-05,25.812,0,1.7208,1.913481E-05,25.812,0
1.7217,-7.956054E-05,25.8255,0,1.7217,9.063859E-06,25.8255,0
1.7226,-1.342794E-06,25.839,0,1.7226,-1.712062E-05,25.839,0
1.7235,-5.706874E-05,25.8525,0,1.7235,2.450599E-05,25.8525,0
1.7244,-9.298848E-05,25.866,0,1.7244,3.860533E-05,25.866,0
1.7253,-7.385367E-06,25.8795,0,1.7253,3.692683E-06,25.8795,0
1.7262,-3.524834E-05,25.893,0,1.7262,-7.385367E-06,25.893,0
1.7271,-9.231708E-05,25.9065,0,1.7271,1.040665E-05,25.9065,0
1.728,-2.584878E-05,25.92,0,1.728,-1.242084E-05,25.92,0
1.7289,8.392462E-06,25.9335,0,1.7289,-1.107805E-05,25.9335,0
1.7298,1.443504E-05,25.947,0,1.7298,-3.994812E-05,25.947,0
1.7307,2.383459E-05,25.9605,0,1.7307,-2.584878E-05,25.9605,0
1.7316,4.36408E-05,25.974,0,1.7316,-2.786297E-05,25.974,0
1.7325,8.560311E-05,25.9875,0,1.7325,-5.270466E-05,25.9875,0
1.7334,8.392462E-05,26.001,0,1.7334,-6.042573E-05,26.001,0
1.7343,2.786297E-05,26.0145,0,1.7343,-3.256275E-05,26.0145,0
1.7352,6.143282E-05,26.028,0,1.7352,-4.934768E-05,26.028,0
1.7361,9.970245E-05,26.0415,0,1.7361,-7.855344E-05,26.0415,0
1.737,2.517739E-05,26.055,0,1.737,-4.834058E-05,26.055,0
1.7379,-3.692683E-06,26.0685,0,1.7379,-5.236896E-05,26.0685,0
1.7388,-1.040665E-05,26.082,0,1.7388,-6.64683E-05,26.082,0
1.7397,4.733349E-05,26.0955,0,1.7397,-5.471885E-05,26.0955,0
1.7406,2.014191E-05,26.109,0,1.7406,-3.256275E-05,26.109,0
1.7415,-2.417029E-05,26.1225,0,1.7415,-3.793393E-05,26.1225,0
1.7424,-3.323415E-05,26.136,0,1.7424,-3.591974E-05,26.136,0
1.7433,-3.054856E-05,26.1495,0,1.7433,-5.572595E-05,26.1495,0
1.7442,-8.627451E-05,26.163,0,1.7442,-2.1149E-05,26.163,0
1.7451,-0.000119173,26.1765,0,1.7451,1.644922E-05,26.1765,0
1.746,-9.332418E-05,26.19,0,1.746,-3.692683E-06,26.19,0
1.7469,-7.754635E-05,26.2035,0,1.7469,-2.21561E-05,26.2035,0
1.7478,-0.0001544213,26.217,0,1.7478,7.049668E-06,26.217,0
1.7487,-8.627451E-05,26.2305,0,1.7487,0,26.2305,0
1.7496,5.035477E-06,26.244,0,1.7496,-2.584878E-05,26.244,0
1.7505,-0.0001315938,26.2575,0,1.7505,2.316319E-05,26.2575,0
1.7514,-0.0001245441,26.271,0,1.7514,1.242084E-05,26.271,0
1.7523,-4.028382E-05,26.2845,0,1.7523,-1.980621E-05,26.2845,0
1.7532,-8.224613E-05,26.298,0,1.7532,-1.712062E-05,26.298,0
1.7541,-0.000119173,26.3115,0,1.7541,-9.063859E-06,26.3115,0
1.755,-7.687495E-05,26.325,0,1.755,-2.383459E-05,26.325,0
1.7559,-5.606165E-05,26.3385,0,1.7559,-4.196231E-05,26.3385,0
1.7568,1.644922E-05,26.352,0,1.7568,-4.061952E-05,26.352,0
1.7577,-1.644922E-05,26.3655,0,1.7577,-2.047761E-05,26.3655,0
1.7586,-5.304036E-05,26.379,0,1.7586,-1.913481E-05,26.379,0
1.7595,-6.311131E-05,26.3925,0,1.7595,-4.49836E-05,26.3925,0
1.7604,-8.392462E-06,26.406,0,1.7604,-5.471885E-05,26.406,0
1.7613,-1.980621E-05,26.4195,0,1.7613,-2.652018E-05,26.4195,0
1.7622,-6.378271E-06,26.433,0,1.7622,-3.826963E-05,26.433,0
1.7631,5.438316E-05,26.4465,0,1.7631,-7.687495E-05,26.4465,0
1.764,1.510643E-05,26.46,0,1.764,-5.471885E-05,26.46,0
1.7649,6.881819E-05,26.4735,0,1.7649,-5.874724E-05,26.4735,0
1.7658,0.0001393149,26.487,0,1.7658,-8.69459E-05,26.487,0
1.7667,0.0001232013,26.5005,0,1.7667,-4.934768E-05,26.5005,0
1.7676,4.43122E-05,26.514,0,1.7676,-3.927672E-05,26.514,0
1.7685,8.72816E-05,26.5275,0,1.7685,-3.860533E-05,26.5275,0
1.7694,6.948959E-05,26.541,0,1.7694,-4.968337E-05,26.541,0
1.7703,6.74754E-05,26.5545,0,1.7703,-7.653925E-05,26.5545,0
1.7712,2.18204E-05,26.568,0,1.7712,-5.740444E-05,26.568,0
1.7721,-5.001907E-05,26.5815,0,1.7721,-6.74754E-05,26.5815,0
1.773,-7.049668E-06,26.595,0,1.773,-7.553216E-05,26.595,0
1.7739,-1.141375E-05,26.6085,0,1.7739,-7.385367E-05,26.6085,0
1.7748,-2.450599E-05,26.622,0,1.7748,-4.53193E-05,26.622,0
1.7757,4.901198E-05,26.6355,0,1.7757,-4.565499E-05,26.6355,0
1.7766,7.183947E-05,26.649,0,1.7766,-5.874724E-05,26.649,0
1.7775,3.961242E-05,26.6625,0,1.7775,-6.713969E-06,26.6625,0
1.7784,0.0001661708,26.676,0,1.7784,2.28275E-05,26.676,0
1.7793,0.000154757,26.6895,0,1.7793,-1.342794E-06,26.6895,0
1.7802,5.606165E-05,26.703,0,1.7802,2.853437E-05,26.703,0
1.7811,7.922484E-05,26.7165,0,1.7811,5.035477E-05,26.7165,0
1.782,9.903105E-05,26.73,0,1.782,4.263371E-05,26.73,0
1.7829,6.009003E-05,26.7435,0,1.7829,2.1149E-05,26.7435,0
1.7838,0.0001000381,26.757,0,1.7838,1.275654E-05,26.757,0
1.7847,0.0001359579,26.7705,0,1.7847,4.39765E-05,26.7705,0
1.7856,6.915389E-05,26.784,0,1.7856,4.36408E-05,26.784,0
1.7865,9.231708E-05,26.7975,0,1.7865,4.565499E-05,26.7975,0
1.7874,0.0001148089,26.811,0,1.7874,4.599069E-05,26.811,0
1.7883,3.424125E-05,26.8245,0,1.7883,6.881819E-05,26.8245,0
1.7892,5.203327E-05,26.838,0,1.7892,4.39765E-05,26.838,0
1.7901,7.821774E-05,26.8515,0,1.7901,-2.014191E-06,26.8515,0
1.791,3.356985E-07,26.865,0,1.791,7.721065E-06,26.865,0
1.7919,3.323415E-05,26.8785,0,1.7919,-2.349889E-06,26.8785,0
1.7928,5.035477E-06,26.892,0,1.7928,-4.33051E-05,26.892,0
1.7937,-5.471885E-05,26.9055,0,1.7937,-5.136187E-05,26.9055,0
1.7946,-0.0001359579,26.919,0,1.7946,-3.054856E-05,26.919,0
1.7955,-0.0001017166,26.9325,0,1.7955,-4.196231E-05,26.9325,0
1.7964,-5.673304E-05,26.946,0,1.7964,-4.43122E-05,26.946,0
1.7973,-5.572595E-05,26.9595,0,1.7973,-6.881819E-05,26.9595,0
1.7982,-5.941863E-05,26.973,0,1.7982,-5.102617E-05,26.973,0
1.7991,-9.500267E-05,26.9865,0,1.7991,-4.061952E-05,26.9865,0
1.8,-9.500267E-05,27,0,1.8,-6.51255E-05,27,0
1.8009,-6.948959E-05,27.0135,0,1.8009,-5.673304E-05,27.0135,0
1.8018,-0.000119173,27.027,0,1.8018,-3.692683E-06,27.027,0
1.8027,-0.0001467002,27.0405,0,1.8027,-1.678492E-06,27.0405,0
1.8036,-7.284657E-05,27.054,0,1.8036,-4.867628E-05,27.054,0
1.8045,-0.0001265583,27.0675,0,1.8045,-7.721065E-06,27.0675,0
1.8054,-4.39765E-05,27.081,0,1.8054,1.275654E-05,27.081,0
1.8063,-1.208515E-05,27.0945,0,1.8063,-1.947051E-05,27.0945,0
1.8072,-2.24918E-05,27.108,0,1.8072,-9.735256E-06,27.108,0
1.8081,-1.678492E-06,27.1215,0,1.8081,1.846342E-05,27.1215,0
1.809,3.054856E-05,27.135,0,1.809,7.049668E-06,27.135,0
1.8099,3.256275E-05,27.1485,0,1.8099,1.141375E-05,27.1485,0
1.8108,3.927672E-05,27.162,0,1.8108,-2.047761E-05,27.162,0
1.8117,-5.841154E-05,27.1755,0,1.8117,-3.356985E-07,27.1755,0
1.8126,-0.0001644923,27.189,0,1.8126,3.155566E-05,27.189,0
1.8135,-9.265278E-05,27.2025,0,1.8135,1.544213E-05,27.2025,0
1.8144,-9.701686E-05,27.216,0,1.8144,2.517739E-05,27.216,0
1.8153,-0.0001245441,27.2295,0,1.8153,4.666209E-05,27.2295,0
1.8162,-7.553216E-05,27.243,0,1.8162,1.644922E-05,27.243,0
1.8171,-5.404745E-05,27.2565,0,1.8171,-8.728161E-06,27.2565,0
1.818,-0.0001359579,27.27,0,1.818,1.980621E-05,27.27,0
1.8189,-6.344701E-05,27.2835,0,1.8189,4.36408E-06,27.2835,0
