X[s],"Trigno IM sensor 3: EMG 3 (IM)",X[s],"Trigno IM sensor 3: Mag 3.Z (IM)",X[s],"Trigno IM sensor 4: EMG 4 (IM)",X[s],"Trigno IM sensor 4: Mag 4.Z (IM)"
0.000000,-9.768826E-05,0.000000,52,0.000000,-8.69459E-05,0.000000,101
0.0009,-0.0003011215,0.0135,50,0.0009,-8.92958E-05,0.0135,102
0.0018,-0.0003242847,0.027,51,0.0018,-8.761731E-05,0.027,99
0.0027,-0.0002806439,0.0405,50,0.0027,-7.721065E-06,0.0405,98
0.0036,-0.000330663,0.054,53,0.0036,6.814679E-05,0.054,99
0.0045,-0.0002621805,0.0675,52,0.0045,4.934768E-05,0.0675,100
0.0054,-7.016098E-05,0.081,52,0.0054,1.678492E-05,0.081,100
0.0063,5.941863E-05,0.0945,53,0.0063,-2.047761E-05,0.0945,97
0.0072,0.000109102,0.108,52,0.0072,-5.404745E-05,0.108,96
0.0081,9.903105E-05,0.1215,52,0.0081,-2.517739E-05,0.1215,94
0.009000001,0.0001238727,0.135,51,0.009000001,-2.349889E-06,0.135,102
0.0099,0.0001832914,0.1485,50,0.0099,-4.061952E-05,0.1485,98
0.0108,0.0001762417,0.162,50,0.0108,-5.975433E-05,0.162,97
0.0117,0.0002601663,0.1755,51,0.0117,-5.841154E-05,0.1755,98
0.0126,0.0001426719,0.189,51,0.0126,-4.968337E-05,0.189,97
0.0135,6.848249E-05,0.2025,50,0.0135,-4.766919E-05,0.2025,99
0.0144,3.356985E-05,0.216,49,0.0144,-5.975433E-05,0.216,99
0.0153,-2.652018E-05,0.2295,50,0.0153,-4.33051E-05,0.2295,95
0.0162,-3.793393E-05,0.243,49,0.0162,-3.524834E-05,0.243,100
0.0171,-5.539025E-05,0.2565,50,0.0171,-3.793393E-05,0.2565,102
0.018,-3.088426E-05,0.27,50,0.018,-5.304036E-05,0.27,95
0.0189,6.915389E-05,0.2835,49,0.0189,-4.901198E-05,0.2835,98
0.0198,8.090334E-05,0.297,49,0.0198,-6.78111E-05,0.297,100
0.0207,-1.376364E-05,0.3105,50,0.0207,-6.61326E-05,0.3105,97
0.0216,-2.517739E-05,0.324,50,0.0216,-5.001907E-05,0.324,98
0.0225,-8.728161E-06,0.3375,50,0.0225,-6.076142E-05,0.3375,99
0.0234,1.779202E-05,0.351,51,0.0234,-0.0001131304,0.351,98
0.0243,-2.853437E-05,0.3645,50,0.0243,-0.0001379721,0.3645,98
0.0252,1.913481E-05,0.378,51,0.0252,-9.970245E-05,0.378,98
0.0261,1.342794E-06,0.3915,50,0.0261,-0.0001715419,0.3915,97
0.027,-3.994812E-05,0.405,50,0.027,-7.217517E-05,0.405,99
0.0279,-9.735256E-06,0.4185,50,0.0279,0.0001809415,0.4185,98
0.0288,5.203327E-05,0.432,52,0.0288,0.00024271,0.432,95
0.0297,6.378271E-06,0.4455,50,0.0297,0.0002104829,0.4455,99
0.0306,-1.779202E-05,0.459,50,0.0306,0.000148043,0.459,98
0.0315,2.786297E-05,0.4725,50,0.0315,2.954147E-05,0.4725,100
0.0324,2.887007E-05,0.486,51,0.0324,-8.392462E-06,0.486,101
0.0333,-3.894102E-05,0.4995,50,0.0333,2.652018E-05,0.4995,101
0.0342,-4.36408E-06,0.513,48,0.0342,3.961242E-05,0.513,97
0.0351,7.553216E-05,0.5265,48,0.0351,7.721065E-06,0.5265,99
0.036,5.035477E-06,0.54,49,0.036,3.860533E-05,0.54,100
0.0369,-1.409934E-05,0.5535,48,0.0369,7.553216E-05,0.5535,98
0.0378,2.349889E-06,0.567,48,0.0378,-3.927672E-05,0.567,101
0.0387,2.551309E-05,0.5805,48,0.0387,-3.155566E-05,0.5805,99
0.0396,1.577783E-05,0.594,48,0.0396,4.46479E-05,0.594,97
0.0405,1.712062E-05,0.6075,48,0.0405,-1.477073E-05,0.6075,100
0.0414,2.1149E-05,0.621,47,0.0414,4.36408E-06,0.621,98
0.0423,7.721065E-05,0.6345,48,0.0423,4.733349E-05,0.6345,101
0.0432,6.411841E-05,0.648,48,0.0432,8.560311E-05,0.648,100
0.0441,1.980621E-05,0.6615,47,0.0441,4.800488E-05,0.6615,97
0.045,3.860533E-05,0.675,46,0.045,-9.399558E-06,0.675,100
0.0459,3.323415E-05,0.6885,48,0.0459,-6.042573E-05,0.6885,101
0.0468,-8.056763E-06,0.702,47,0.0468,-4.867628E-05,0.702,100
0.0477,-2.21561E-05,0.7155,47,0.0477,-8.89601E-05,0.7155,101
0.0486,4.599069E-05,0.729,47,0.0486,-0.0001319295,0.729,100
0.0495,-3.591974E-05,0.7425,47,0.0495,-9.433127E-05,0.7425,99
0.0504,1.443504E-05,0.756,46,0.0504,-0.0001174945,0.756,100
0.0513,2.484169E-05,0.7695,49,0.0513,-0.0001527428,0.7695,99
0.0522,-0.0001013809,0.783,47,0.0522,-0.000154757,0.783,98
0.0531,-0.0001205158,0.7965,45,0.0531,-0.0001386435,0.7965,99
0.054,-6.478981E-05,0.81,46,0.054,-0.0001245441,0.81,98
0.0549,-2.484169E-05,0.8235,46,0.0549,-8.560311E-05,0.8235,98
0.0558,-2.987716E-05,0.837,45,0.0558,-9.533837E-05,0.837,98
0.0567,-6.143282E-05,0.8505,46,0.0567,-7.888914E-05,0.8505,98
0.0576,-0.0001077592,0.864,47,0.0576,-4.867628E-05,0.864,98
0.0585,-7.150377E-05,0.8775,46,0.0585,-6.948959E-05,0.8775,98
0.0594,-5.706874E-05,0.891,45,0.0594,-0.0001601282,0.891,98
0.0603,-0.0001070878,0.9045,45,0.0603,-0.0001762417,0.9045,104
0.0612,-7.687495E-05,0.918,45,0.0612,-0.0001769131,0.918,97
0.0621,2.047761E-05,0.9315,45,0.0621,-0.0001822843,0.9315,99
0.063,9.365987E-05,0.945,45,0.063,-9.198138E-05,0.945,100
0.0639,0.0001990692,0.9585,45,0.0639,1.477073E-05,0.9585,102
0.0648,0.0001574426,0.972,46,0.0648,0.0001040665,0.972,100
0.0657,6.243992E-05,0.9855,46,0.0657,0.0001003738,0.9855,102
0.0666,2.383459E-05,0.999,46,0.0666,7.217517E-05,0.999,100
0.0675,0,1.0125,46,0.0675,5.807584E-05,1.0125,101
0.0684,-2.786297E-05,1.026,45,0.0684,4.800488E-05,1.026,101
0.0693,-4.599069E-05,1.0395,46,0.0693,-7.721065E-06,1.0395,98
0.0702,-7.418937E-05,1.053,46,0.0702,5.304036E-05,1.053,99
0.0711,-0.0001963836,1.0665,46,0.0711,1.174945E-05,1.0665,100
0.072,-0.0002370031,1.08,47,0.072,-0.0002655375,1.08,100
0.0729,-0.0001104448,1.0935,46,0.0729,-0.0001248798,1.0935,100
0.07380001,-0.0001198444,1.107,46,0.07380001,0.0001456931,1.107,98
0.07470001,-7.553216E-05,1.1205,46,0.07470001,6.74754E-05,1.1205,100
0.0756,-2.349889E-06,1.134,48,0.0756,-2.081331E-05,1.134,99
0.0765,-7.318227E-05,1.1475,49,0.0765,3.189136E-05,1.1475,100
0.0774,4.196231E-05,1.161,48,0.0774,2.383459E-05,1.161,98
0.0783,0.0001272297,1.1745,50,0.0783,-6.042573E-05,1.1745,98
0.0792,9.063859E-06,1.188,49,0.0792,-5.874724E-05,1.188,98
0.0801,5.001907E-05,1.2015,51,0.0801,-8.056763E-06,1.2015,98
0.081,0.0001816129,1.215,50,0.081,3.994812E-05,1.215,99
0.0819,0.0001037308,1.2285,49,0.0819,5.236896E-05,1.2285,100
0.0828,5.136187E-05,1.242,48,0.0828,8.82887E-05,1.242,98
0.0837,1.678492E-06,1.2555,49,0.0837,7.956054E-05,1.2555,100
0.0846,-1.678492E-06,1.269,48,0.0846,3.860533E-05,1.269,102
0.0855,-4.33051E-05,1.2825,49,0.0855,-3.356985E-07,1.2825,99
0.0864,-3.256275E-05,1.296,49,0.0864,-6.713969E-06,1.296,101
0.0873,-8.392462E-05,1.3095,50,0.0873,5.371176E-05,1.3095,98
0.0882,-9.231708E-05,1.323,49,0.0882,7.385367E-06,1.323,100
0.0891,2.349889E-06,1.3365,50,0.0891,-3.155566E-05,1.3365,99
0.09,-7.452507E-05,1.35,49,0.09,8.493171E-05,1.35,100
0.0909,-0.0001104448,1.3635,50,0.0909,9.802396E-05,1.3635,101
0.0918,-8.090334E-05,1.377,49,0.0918,7.418937E-05,1.377,101
0.0927,-7.553216E-05,1.3905,49,0.0927,9.164568E-05,1.3905,100
0.0936,-0.0001171588,1.404,50,0.0936,0.0001148089,1.404,100
0.09450001,-1.913481E-05,1.4175,50,0.09450001,4.867628E-05,1.4175,101
0.09540001,2.484169E-05,1.431,48,0.09540001,-3.726253E-05,1.431,101
0.09630001,-1.443504E-05,1.4445,49,0.09630001,-9.298848E-05,1.4445,99
0.0972,-1.544213E-05,1.458,48,0.0972,-8.224613E-05,1.458,102
0.0981,-3.625543E-05,1.4715,48,0.0981,-5.941863E-05,1.4715,100
0.099,-7.888914E-05,1.485,48,0.099,-6.948959E-05,1.485,104
0.0999,-0.0001228656,1.4985,49,0.0999,9.735256E-05,1.4985,103
0.1008,-0.0001487144,1.512,48,0.1008,0.0001701991,1.512,102
0.1017,-6.54612E-05,1.5255,49,0.1017,1.174945E-05,1.5255,100
0.1026,-4.36408E-06,1.539,48,0.1026,-6.54612E-05,1.539,103
0.1035,-3.927672E-05,1.5525,48,0.1035,-1.812772E-05,1.5525,103
0.1044,8.392462E-06,1.566,49,0.1044,-4.934768E-05,1.566,103
0.1053,4.263371E-05,1.5795,48,0.1053,-2.349889E-05,1.5795,102
0.1062,5.639734E-05,1.593,49,0.1062,8.358892E-05,1.593,101
0.1071,4.263371E-05,1.6065,49,0.1071,7.217517E-05,1.6065,100
0.108,0.0001097734,1.62,48,0.108,3.121996E-05,1.62,103
0.1089,0.0001070878,1.6335,49,0.1089,3.356985E-07,1.6335,101
0.1098,0.0001665064,1.647,49,0.1098,-7.888914E-05,1.647,99
0.1107,0.0001675135,1.6605,48,0.1107,-0.0001087663,1.6605,101
0.1116,8.459602E-05,1.674,48,0.1116,-0.0001030594,1.674,104
0.1125,0.0001121233,1.6875,46,0.1125,-0.0001208515,1.6875,103
0.1134,0.0001178302,1.701,47,0.1134,-0.0001044022,1.701,105
0.1143,2.584878E-05,1.7145,46,0.1143,-3.356985E-07,1.7145,105
0.1152,4.33051E-05,1.728,46,0.1152,1.980621E-05,1.728,103
0.1161,0.0001232013,1.7415,47,0.1161,-6.57969E-05,1.7415,101
0.117,5.035477E-06,1.755,46,0.117,-7.049668E-05,1.755,101
0.1179,-1.376364E-05,1.7685,45,0.1179,-7.284657E-05,1.7685,102
0.1188,2.1149E-05,1.782,45,0.1188,-0.0001205158,1.782,103
0.1197,-3.088426E-05,1.7955,46,0.1197,-0.000109102,1.7955,100
0.1206,-5.169757E-05,1.809,46,0.1206,-7.318227E-05,1.809,103
0.1215,1.107805E-05,1.8225,46,0.1215,-0.0001255512,1.8225,102
0.1224,4.061952E-05,1.836,46,0.1224,-0.0001326009,1.836,104
0.1233,7.486076E-05,1.8495,45,0.1233,-0.0001426719,1.8495,104
0.1242,7.687495E-05,1.863,45,0.1242,-9.265278E-05,1.863,103
0.1251,7.452507E-05,1.8765,46,0.1251,-7.821774E-05,1.8765,106
0.126,5.203327E-05,1.89,45,0.126,-8.191043E-05,1.89,101
0.1269,6.076142E-05,1.9035,47,0.1269,-7.754635E-05,1.9035,104
0.1278,1.107805E-05,1.917,47,0.1278,-4.33051E-05,1.917,106
0.1287,-3.356985E-06,1.9305,46,0.1287,-5.404745E-05,1.9305,106
0.1296,8.761731E-05,1.944,46,0.1296,-6.344701E-05,1.944,102
0.1305,6.51255E-05,1.9575,46,0.1305,3.994812E-05,1.9575,104
0.1314,2.24918E-05,1.971,46,0.1314,2.24918E-05,1.971,101
0.1323,0.0001164874,1.9845,46,0.1323,2.349889E-05,1.9845,102
0.1332,0.0001205158,1.998,46,0.1332,4.43122E-05,1.998,105
0.1341,-2.786297E-05,2.0115,46,0.1341,-5.203327E-05,2.0115,103
0.135,-2.383459E-05,2.025,46,0.135,-2.349889E-05,2.025,104
0.1359,-2.21561E-05,2.0385,47,0.1359,3.927672E-05,2.0385,103
0.1368,2.28275E-05,2.052,47,0.1368,5.740444E-05,2.052,102
0.1377,6.713969E-07,2.0655,47,0.1377,8.69459E-05,2.0655,101
0.1386,-7.721065E-06,2.079,46,0.1386,4.196231E-05,2.079,102
0.1395,-2.987716E-05,2.0925,48,0.1395,-1.007095E-06,2.0925,105
0.1404,-6.277562E-05,2.106,46,0.1404,-7.553216E-05,2.106,103
0.1413,-0.000154757,2.1195,46,0.1413,-5.337606E-05,2.1195,100
0.1422,-0.0001420005,2.133,46,0.1422,-4.53193E-05,2.133,101
0.1431,-0.0001107805,2.1465,46,0.1431,-5.035477E-05,2.1465,101
0.144,-0.0001889983,2.16,46,0.144,-3.189136E-05,2.16,102
0.1449,-8.358892E-05,2.1735,46,0.1449,-2.349889E-05,2.1735,103
0.1458,4.263371E-05,2.187,46,0.1458,-4.901198E-05,2.187,101
0.1467,-1.712062E-05,2.2005,46,0.1467,-1.174945E-05,2.2005,101
0.1476,-9.433127E-05,2.214,46,0.1476,4.632639E-05,2.214,102
0.1485,-7.687495E-05,2.2275,46,0.1485,-3.894102E-05,2.2275,106
0.1494,-1.040665E-05,2.241,46,0.1494,-0.0001675135,2.241,100
0.1503,8.426032E-05,2.2545,46,0.1503,-0.0002155184,2.2545,99
0.1512,-1.141375E-05,2.268,47,0.1512,-9.164568E-05,2.268,100
0.1521,-4.800488E-05,2.2815,46,0.1521,-7.016098E-05,2.2815,101
0.153,-2.18204E-05,2.295,47,0.153,-0.0001591211,2.295,103
0.1539,4.632639E-05,2.3085,46,0.1539,0.0001060807,2.3085,100
0.1548,5.069047E-05,2.322,48,0.1548,0.0002934005,2.322,103
0.1557,2.316319E-05,2.3355,48,0.1557,0.0002504311,2.3355,104
0.1566,6.948959E-05,2.349,48,0.1566,0.000235996,2.349,102
0.1575,-4.33051E-05,2.3625,47,0.1575,0.0001990692,2.3625,103
0.1584,-4.867628E-05,2.376,48,0.1584,5.203327E-05,2.376,103
0.1593,4.263371E-05,2.3895,48,0.1593,-0.000112459,2.3895,99
0.1602,2.786297E-05,2.403,47,0.1602,-9.231708E-05,2.403,101
0.1611,-3.323415E-05,2.4165,47,0.1611,-9.231708E-05,2.4165,102
0.162,-3.860533E-05,2.43,47,0.162,-3.256275E-05,2.43,101
0.1629,-8.92958E-05,2.4435,47,0.1629,5.136187E-05,2.4435,101
0.1638,-7.284657E-05,2.457,47,0.1638,0.000102388,2.457,102
0.1647,-0.0001027237,2.4705,47,0.1647,7.754635E-05,2.4705,101
0.1656,-8.92958E-05,2.484,47,0.1656,-3.256275E-05,2.484,101
0.1665,-8.090334E-05,2.4975,48,0.1665,-7.888914E-05,2.4975,99
0.1674,-5.270466E-05,2.511,47,0.1674,-7.150377E-05,2.511,103
0.1683,-4.632639E-05,2.5245,48,0.1683,-2.786297E-05,2.5245,100
0.1692,-5.673304E-05,2.538,47,0.1692,-3.793393E-05,2.538,101
0.1701,-3.927672E-05,2.5515,48,0.1701,-6.277562E-05,2.5515,101
0.171,-8.795301E-05,2.565,48,0.171,-6.478981E-05,2.565,101
0.1719,-3.054856E-05,2.5785,48,0.1719,-1.678492E-05,2.5785,101
0.1728,-1.409934E-05,2.592,48,0.1728,-7.653925E-05,2.592,102
0.1737,-0.0001376364,2.6055,48,0.1737,-0.0001359579,2.6055,105
0.1746,-0.000158114,2.619,48,0.1746,-0.0001319295,2.619,102
0.1755,-0.0001383078,2.6325,48,0.1755,-0.0001211871,2.6325,103
0.1764,-0.0001211871,2.646,48,0.1764,-6.6804E-05,2.646,100
0.1773,-1.644922E-05,2.6595,48,0.1773,-6.74754E-05,2.6595,99
0.1782,-2.383459E-05,2.673,48,0.1782,2.417029E-05,2.673,102
0.1791,7.687495E-05,2.6865,48,0.1791,0.0002027619,2.6865,103
0.18,9.634547E-05,2.7,47,0.18,0.0001842985,2.7,104
0.1809,5.035477E-06,2.7135,48,0.1809,0.0001339437,2.7135,98
0.1818,-5.505455E-05,2.727,48,0.1818,0.0001299153,2.727,102
0.1827,-1.443504E-05,2.7405,48,0.1827,4.36408E-06,2.7405,105
0.1836,2.618448E-05,2.754,48,0.1836,-5.539025E-05,2.754,97
0.1845,2.584878E-05,2.7675,48,0.1845,-3.390555E-05,2.7675,104
0.1854,0.0001420005,2.781,47,0.1854,-3.054856E-05,2.781,106
0.1863,9.231708E-05,2.7945,48,0.1863,-6.51255E-05,2.7945,103
0.1872,-6.344701E-05,2.808,49,0.1872,-6.57969E-05,2.808,102
0.1881,-0.000102388,2.8215,47,0.1881,-5.169757E-05,2.8215,103
0.189,-1.040665E-05,2.835,48,0.189,-8.123904E-05,2.835,101
0.1899,3.659113E-05,2.8485,47,0.1899,-0.0002262608,2.8485,103
0.1908,7.083238E-05,2.862,48,0.1908,-0.0002856794,2.862,104
0.1917,3.155566E-05,2.8755,48,0.1917,-0.0001688563,2.8755,102
0.1926,0,2.889,47,0.1926,0.0001131304,2.889,101
0.1935,5.673304E-05,2.9025,48,0.1935,0.0002514381,2.9025,103
0.1944,-3.692683E-06,2.916,48,0.1944,0.0002521096,2.916,103
0.1953,-0.0002088045,2.9295,48,0.1953,0.0001748989,2.9295,101
0.1962,-0.0001346151,2.943,46,0.1962,6.915389E-05,2.943,103
0.1971,-7.385367E-06,2.9565,48,0.1971,-6.378271E-06,2.9565,101
0.198,-8.82887E-05,2.97,47,0.198,-1.712062E-05,2.97,101
0.1989,-0.0001010452,2.9835,48,0.1989,-5.169757E-05,2.9835,101
0.1998,-2.652018E-05,2.997,48,0.1998,-0.0001044022,2.997,99
0.2007,4.699779E-06,3.0105,47,0.2007,-9.097429E-05,3.0105,105
0.2016,-3.256275E-05,3.024,47,0.2016,-7.284657E-05,3.024,101
0.2025,1.443504E-05,3.0375,49,0.2025,-0.0001030594,3.0375,100
0.2034,6.277562E-05,3.051,48,0.2034,-0.0001339437,3.051,104
0.2043,6.78111E-05,3.0645,47,0.2043,-0.0001618067,3.0645,105
0.2052,7.821774E-05,3.078,47,0.2052,-0.0001624781,3.078,102
0.2061,0.0001138018,3.0915,0,0.2061,-0.0001121233,3.0915,0
0.207,0.0001440146,3.105,0,0.207,-9.634547E-05,3.105,0
0.2079,0.0001138018,3.1185,0,0.2079,-5.606165E-05,3.1185,0
0.2088,3.524834E-05,3.132,0,0.2088,3.356985E-06,3.132,0
0.2097,6.948959E-05,3.1455,0,0.2097,-6.378271E-06,3.1455,0
0.2106,7.351797E-05,3.159,0,0.2106,1.007095E-06,3.159,0
0.2115,-3.155566E-05,3.1725,0,0.2115,6.411841E-05,3.1725,0
0.2124,5.572595E-05,3.186,0,0.2124,0.0001117876,3.186,0
0.2133,0.0001285725,3.1995,0,0.2133,0.0001430075,3.1995,0
0.2142,6.210422E-05,3.213,0,0.2142,3.256275E-05,3.213,0
0.2151,-1.342794E-06,3.2265,0,0.2151,-6.277562E-05,3.2265,0
0.216,3.692683E-06,3.24,0,0.216,-5.941863E-05,3.24,0
0.2169,1.577783E-05,3.2535,0,0.2169,-5.539025E-05,3.2535,0
0.2178,0.000115816,3.267,0,0.2178,-2.752728E-05,3.267,0
0.2187,0.0001010452,3.2805,0,0.2187,-6.344701E-05,3.2805,0
0.2196,-9.735256E-06,3.294,0,0.2196,-6.445411E-05,3.294,0
0.2205,1.007095E-05,3.3075,0,0.2205,-6.243992E-05,3.3075,0
0.2214,2.517739E-05,3.321,0,0.2214,-7.821774E-05,3.321,0
0.2223,-4.867628E-05,3.3345,0,0.2223,-5.572595E-05,3.3345,0
0.2232,1.779202E-05,3.348,0,0.2232,-4.934768E-05,3.348,0
0.2241,2.719158E-05,3.3615,0,0.2241,-8.157473E-05,3.3615,0
0.225,-5.236896E-05,3.375,0,0.225,-6.277562E-05,3.375,0
0.2259,-3.289845E-05,3.3885,0,0.2259,-6.61326E-05,3.3885,0
0.2268,1.510643E-05,3.402,0,0.2268,-7.183947E-05,3.402,0
0.2277,-1.644922E-05,3.4155,0,0.2277,2.349889E-06,3.4155,0
0.2286,-8.157473E-05,3.429,0,0.2286,6.78111E-05,3.429,0
0.2295,-2.719158E-05,3.4425,0,0.2295,1.174945E-05,3.4425,0
0.2304,-3.189136E-05,3.456,0,0.2304,-5.673304E-05,3.456,0
0.2313,-3.356985E-07,3.4695,0,0.2313,-0.0001211871,3.4695,0
0.2322,9.063859E-06,3.483,0,0.2322,-0.0001107805,3.483,0
0.2331,-3.424125E-05,3.4965,0,0.2331,-0.0001292439,3.4965,0
0.234,-4.162661E-05,3.51,0,0.234,-0.0001272297,3.51,0
0.2349,2.28275E-05,3.5235,0,0.2349,6.948959E-05,3.5235,0
0.2358,-3.994812E-05,3.537,0,0.2358,0.0003608759,3.537,0
0.2367,-0.0001198444,3.5505,0,0.2367,0.000291722,3.5505,0
0.2376,-8.72816E-05,3.564,0,0.2376,0.000148043,3.564,0
0.2385,-0.0001044022,3.5775,0,0.2385,0.0002709087,3.5775,0
0.2394,-0.0002225681,3.591,0,0.2394,0.0001540856,3.591,0
0.2403,-0.0001950408,3.6045,0,0.2403,7.385367E-06,3.6045,0
0.2412,-6.344701E-05,3.618,0,0.2412,0.0001312581,3.618,0
0.2421,-0.0001279011,3.6315,0,0.2421,0.0001379721,3.6315,0
0.243,-8.89601E-05,3.645,0,0.243,3.524834E-05,3.645,0
0.2439,-6.076142E-05,3.6585,0,0.2439,-7.855344E-05,3.6585,0
0.2448,-3.793393E-05,3.672,0,0.2448,-0.0001577783,3.672,0
0.2457,-4.699779E-05,3.6855,0,0.2457,-0.0001305867,3.6855,0
0.2466,-7.687495E-05,3.699,0,0.2466,-4.36408E-06,3.699,0
0.2475,-1.712062E-05,3.7125,0,0.2475,0.0001111162,3.7125,0
0.2484,-2.014191E-05,3.726,0,0.2484,7.049668E-06,3.726,0
0.2493,-8.023193E-05,3.7395,0,0.2493,1.678492E-06,3.7395,0
0.2502,2.618448E-05,3.753,0,0.2502,-1.107805E-05,3.753,0
0.2511,6.076142E-05,3.7665,0,0.2511,-5.639734E-05,3.7665,0
0.252,3.189136E-05,3.78,0,0.252,-5.102617E-05,3.78,0
0.2529,0.0001889983,3.7935,0,0.2529,-6.881819E-05,3.7935,0
0.2538,0.0002682231,3.807,0,0.2538,-0.0001352865,3.807,0
0.2547,0.0001420005,3.8205,0,0.2547,-0.0002024262,3.8205,0
0.2556,8.291753E-05,3.834,0,0.2556,-0.0001950408,3.834,0
0.2565,3.659113E-05,3.8475,0,0.2565,-0.0002155184,3.8475,0
0.2574,-1.846342E-05,3.861,0,0.2574,-0.0001997406,3.861,0
0.2583,6.713969E-06,3.8745,0,0.2583,-0.0001940337,3.8745,0
0.2592,-4.39765E-05,3.888,0,0.2592,-4.599069E-05,3.888,0
0.2601,-9.063859E-06,3.9015,0,0.2601,1.040665E-05,3.9015,0
0.261,-2.853437E-05,3.915,0,0.261,-0.0001735561,3.915,0
0.2619,-5.270466E-05,3.9285,0,0.2619,-0.0002601663,3.9285,0
0.2628,-0.0001127947,3.942,0,0.2628,-0.0001762417,3.942,0
0.2637,-0.0001326009,3.9555,0,0.2637,-7.754635E-05,3.9555,0
0.2646,-4.229801E-05,3.969,0,0.2646,3.692683E-06,3.969,0
0.2655,-0.0001097734,3.9825,0,0.2655,5.438316E-05,3.9825,0
0.2664,-0.0001131304,3.996,0,0.2664,0.0001634852,3.996,0
0.2673,1.846342E-05,4.0095,0,0.2673,0.0002534524,4.0095,0
0.2682,5.941863E-05,4.023,0,0.2682,0.000164828,4.023,0
0.2691,4.49836E-05,4.0365,0,0.2691,4.565499E-05,4.0365,0
0.27,0.0001245441,4.05,0,0.27,-3.390555E-05,4.05,0
0.2709,-3.121996E-05,4.0635,0,0.2709,-4.196231E-05,4.0635,0
0.2718,-6.713969E-06,4.077,0,0.2718,-2.450599E-05,4.077,0
0.2727,7.721065E-06,4.0905,0,0.2727,1.040665E-05,4.0905,0
0.2736,-2.987716E-05,4.104,0,0.2736,-8.86244E-05,4.104,0
0.2745,-4.666209E-05,4.1175,0,0.2745,-0.0002688945,4.1175,0
0.2754,2.081331E-05,4.131,0,0.2754,-0.0002927291,4.131,0
0.2763,-1.409934E-05,4.1445,0,0.2763,-0.0002259251,4.1445,0
0.2772,-8.426032E-05,4.158,0,0.2772,-0.000193698,4.158,0
0.2781,1.913481E-05,4.1715,0,0.2781,-5.807584E-05,4.1715,0
0.279,-5.035477E-06,4.185,0,0.279,0.0004723278,4.185,0
0.2799,-9.030289E-05,4.1985,0,0.2799,0.0006442054,4.1985,0
0.2808,-9.265278E-05,4.212,0,0.2808,0.0003635614,4.212,0
0.2817,-1.745632E-05,4.2255,0,0.2817,0.0001779202,4.2255,0
0.2826,-4.666209E-05,4.239,0,0.2826,0.000239353,4.239,0
0.2835,-1.342794E-05,4.2525,0,0.2835,0.0002198825,4.2525,0
0.2844,-8.392462E-06,4.266,0,0.2844,4.800488E-05,4.266,0
0.2853,0.0001080949,4.2795,0,0.2853,-8.795301E-05,4.2795,0
0.2862,8.291753E-05,4.293,0,0.2862,-4.39765E-05,4.293,0
0.2871,5.505455E-05,4.3065,0,0.2871,-5.371176E-05,4.3065,0
0.288,0.0001255512,4.32,0,0.288,-6.378271E-05,4.32,0
0.2889,9.869535E-05,4.3335,0,0.2889,-0.0001527428,4.3335,0
0.2898,1.242084E-05,4.347,0,0.2898,-0.0001134661,4.347,0
0.2907,5.270466E-05,4.3605,0,0.2907,-0.0001171588,4.3605,0
0.2916,0.0001044022,4.374,0,0.2916,-0.0001560998,4.374,0
0.2925,3.759823E-05,4.3875,0,0.2925,-0.0001252155,4.3875,0
0.2934,0.0001232013,4.401,0,0.2934,-0.0001604639,4.401,0
0.2943,0.0001171588,4.4145,0,0.2943,-0.0002044404,4.4145,0
0.2952,7.888914E-05,4.428,0,0.2952,-0.0001832914,4.428,0
0.2961,5.706874E-06,4.4415,0,0.2961,-0.0001997406,4.4415,0
0.297,2.719158E-05,4.455,0,0.297,-0.0001453574,4.455,0
0.2979,-7.385367E-06,4.4685,0,0.2979,-4.43122E-05,4.4685,0
0.2988,3.659113E-05,4.482,0,0.2988,2.21561E-05,4.482,0
0.2997,1.779202E-05,4.4955,0,0.2997,4.39765E-05,4.4955,0
0.3006,-3.289845E-05,4.509,0,0.3006,4.36408E-06,4.509,0
0.3015,-1.644922E-05,4.5225,0,0.3015,-1.376364E-05,4.5225,0
0.3024,-3.256275E-05,4.536,0,0.3024,-7.821774E-05,4.536,0
0.3033,-0.0001044022,4.5495,0,0.3033,-5.404745E-05,4.5495,0
0.3042,-2.417029E-05,4.563,0,0.3042,-6.478981E-05,4.563,0
0.3051,5.236896E-05,4.5765,0,0.3051,-4.29694E-05,4.5765,0
0.306,-9.735256E-05,4.59,0,0.306,0.0001044022,4.59,0
0.3069,-9.835965E-05,4.6035,0,0.3069,0.0001211871,4.6035,0
0.3078,3.927672E-05,4.617,0,0.3078,5.102617E-05,4.617,0
0.3087,4.53193E-05,4.6305,0,0.3087,3.390555E-05,4.6305,0
0.3096,-9.970245E-05,4.644,0,0.3096,2.887007E-05,4.644,0
0.3105,-4.061952E-05,4.6575,0,0.3105,1.846342E-05,4.6575,0
0.3114,3.692683E-06,4.671,0,0.3114,-1.409934E-05,4.671,0
0.3123,-1.678492E-06,4.6845,0,0.3123,-2.349889E-06,4.6845,0
0.3132,-2.316319E-05,4.698,0,0.3132,3.894102E-05,4.698,0
0.3141,-7.956054E-05,4.7115,0,0.3141,2.24918E-05,4.7115,0
0.315,-8.728161E-06,4.725,0,0.315,-2.1149E-05,4.725,0
0.3159,6.64683E-05,4.7385,0,0.3159,-4.632639E-05,4.7385,0
0.3168,1.174945E-05,4.752,0,0.3168,-8.392462E-06,4.752,0
0.3177,-3.390555E-05,4.7655,0,0.3177,-3.927672E-05,4.7655,0
0.3186,-3.356985E-06,4.779,0,0.3186,-0.0001205158,4.779,0
0.3195,-0.0001044022,4.7925,0,0.3195,-9.835965E-05,4.7925,0
0.3204,-3.659113E-05,4.806,0,0.3204,-0.0001282368,4.806,0
0.3213,7.049668E-06,4.8195,0,0.3213,-0.0001426719,4.8195,0
0.3222,8.392462E-06,4.833,0,0.3222,-2.987716E-05,4.833,0
0.3231,-4.53193E-05,4.8465,0,0.3231,-1.510643E-05,4.8465,0
0.324,-6.378271E-06,4.86,0,0.324,2.047761E-05,4.86,0
0.3249,2.652018E-05,4.8735,0,0.3249,2.417029E-05,4.8735,0
0.3258,-1.275654E-05,4.887,0,0.3258,-5.270466E-05,4.887,0
0.3267,-2.752728E-05,4.9005,0,0.3267,-3.356985E-05,4.9005,0
0.3276,2.517739E-05,4.914,0,0.3276,4.800488E-05,4.914,0
0.3285,7.956054E-05,4.9275,0,0.3285,5.807584E-05,4.9275,0
0.3294,1.242084E-05,4.941,0,0.3294,1.611353E-05,4.941,0
0.3303,-5.203327E-05,4.9545,0,0.3303,0.0001258869,4.9545,0
0.3312,-1.275654E-05,4.968,0,0.3312,5.337606E-05,4.968,0
0.3321,3.726253E-05,4.9815,0,0.3321,-0.0001534142,4.9815,0
0.333,-7.586786E-05,4.995,0,0.333,-0.0001272297,4.995,0
0.3339,-3.356985E-06,5.0085,0,0.3339,-8.224613E-05,5.0085,0
0.3348,8.291753E-05,5.022,0,0.3348,-7.150377E-05,5.022,0
0.3357,-4.733349E-05,5.0355,0,0.3357,-1.913481E-05,5.0355,0
0.3366,-3.692683E-05,5.049,0,0.3366,5.102617E-05,5.049,0
0.3375,9.500267E-05,5.0625,0,0.3375,5.874724E-05,5.0625,0
0.3384,0.0001295796,5.076,0,0.3384,3.054856E-05,5.076,0
0.3393,0.0001822843,5.0895,0,0.3393,4.666209E-05,5.0895,0
0.3402,0.0001594568,5.103,0,0.3402,-1.644922E-05,5.103,0
0.3411,3.121996E-05,5.1165,0,0.3411,-7.284657E-05,5.1165,0
0.342,5.035477E-06,5.13,0,0.342,-0.0001060807,5.13,0
0.3429,-2.652018E-05,5.1435,0,0.3429,-9.701686E-05,5.1435,0
0.3438,-0.0001681849,5.157,0,0.3438,-5.706874E-05,5.157,0
0.3447,-0.0001748989,5.1705,0,0.3447,-7.888914E-05,5.1705,0
0.3456,-9.030289E-05,5.184,0,0.3456,-1.611353E-05,5.184,0
0.3465,-0.0001000381,5.1975,0,0.3465,9.768826E-05,5.1975,0
0.3474,-9.433127E-05,5.211,0,0.3474,2.887007E-05,5.211,0
0.3483,-5.069047E-05,5.2245,0,0.3483,-3.659113E-05,5.2245,0
0.3492,-4.901198E-05,5.238,0,0.3492,3.189136E-05,5.238,0
0.3501,-0.0001010452,5.2515,0,0.3501,0.0001060807,5.2515,0
0.351,-7.418937E-05,5.265,0,0.351,5.505455E-05,5.265,0
0.3519,-5.069047E-05,5.2785,0,0.3519,-3.457694E-05,5.2785,0
0.3528,-8.056763E-06,5.292,0,0.3528,1.007095E-06,5.292,0
0.3537,-2.819867E-05,5.3055,0,0.3537,-7.318227E-05,5.3055,0
0.3546,-2.819867E-05,5.319,0,0.3546,-0.0001326009,5.319,0
0.3555,-4.36408E-06,5.3325,0,0.3555,-5.438316E-05,5.3325,0
0.3564,-8.728161E-06,5.346,0,0.3564,-7.418937E-05,5.346,0
0.3573,-6.311131E-05,5.3595,0,0.3573,-3.021286E-05,5.3595,0
0.3582,5.841154E-05,5.373,0,0.3582,-1.644922E-05,5.373,0
0.3591,0.0001144732,5.3865,0,0.3591,-2.517739E-05,5.3865,0
0.36,5.941863E-05,5.4,0,0.36,0.0001346151,5.4,0
0.3609,6.78111E-05,5.4135,0,0.3609,0.0002061189,5.4135,0
0.3618,2.349889E-06,5.427,0,0.3618,0.0001094377,5.427,0
0.3627,-7.553216E-05,5.4405,0,0.3627,7.721065E-06,5.4405,0
0.3636,-1.342794E-05,5.454,0,0.3636,-4.39765E-05,5.454,0
0.3645,6.042573E-06,5.4675,0,0.3645,-0.0001698634,5.4675,0
0.3654,5.069047E-05,5.481,0,0.3654,-0.0001426719,5.481,0
0.3663,0.000119173,5.4945,0,0.3663,-0.0001221943,5.4945,0
0.3672,-3.256275E-05,5.508,0,0.3672,-0.0002370031,5.508,0
0.3681,-1.712062E-05,5.5215,0,0.3681,-8.627451E-05,5.5215,0
0.369,3.994812E-05,5.535,0,0.369,7.351797E-05,5.535,0
0.3699,-1.107805E-05,5.5485,0,0.3699,6.311131E-05,5.5485,0
0.3708,-0.000140322,5.562,0,0.3708,9.835965E-05,5.562,0
0.3717,-0.000161471,5.5755,0,0.3717,0.0001033951,5.5755,0
0.3726,-0.0001131304,5.589,0,0.3726,1.846342E-05,5.589,0
0.3735,-0.0001886625,5.6025,0,0.3735,5.337606E-05,5.6025,0
0.3744,-0.0001560998,5.616,0,0.3744,9.600977E-05,5.616,0
0.3753,-8.157473E-05,5.6295,0,0.3753,5.874724E-05,5.6295,0
0.3762,-0.0001305867,5.643,0,0.3762,1.779202E-05,5.643,0
0.3771,-0.0001326009,5.6565,0,0.3771,8.728161E-06,5.6565,0
0.378,-3.457694E-05,5.67,0,0.378,-5.136187E-05,5.67,0
0.3789,1.174945E-05,5.6835,0,0.3789,-5.941863E-05,5.6835,0
0.3798,0.000105745,5.697,0,0.3798,-9.433127E-05,5.697,0
0.3807,0.0001574426,5.7105,0,0.3807,-7.418937E-05,5.7105,0
0.3816,0.0001070878,5.724,0,0.3816,-3.659113E-05,5.724,0
0.3825,8.224613E-05,5.7375,0,0.3825,-3.256275E-05,5.7375,0
0.3834,0.0001396506,5.751,0,0.3834,2.081331E-05,5.751,0
0.3843,3.659113E-05,5.7645,0,0.3843,7.016098E-05,5.7645,0
0.3852,-2.685588E-06,5.778,0,0.3852,-2.887007E-05,5.778,0
0.3861,0.0001003738,5.7915,0,0.3861,-0.0001420005,5.7915,0
0.387,5.740444E-05,5.805,0,0.387,-0.0001292439,5.805,0
0.3879,1.913481E-05,5.8185,0,0.3879,-0.0002245823,5.8185,0
0.3888,8.92958E-05,5.832,0,0.3888,-0.0003172351,5.832,0
0.3897,0.000158114,5.8455,0,0.3897,-0.0001000381,5.8455,0
0.3906,9.970245E-05,5.859,0,0.3906,0.0001279011,5.859,0
0.3915,5.975433E-05,5.8725,0,0.3915,9.634547E-05,5.8725,0
0.3924,0.0001101091,5.886,0,0.3924,8.123904E-05,5.886,0
0.3933,0.0001916838,5.8995,0,0.3933,9.097429E-05,5.8995,0
0.3942,0.0001467002,5.913,0,0.3942,0.0001849699,5.913,0
0.3951,0.0001003738,5.9265,0,0.3951,0.0002064546,5.9265,0
0.396,5.136187E-05,5.94,0,0.396,5.505455E-05,5.94,0
0.3969,2.047761E-05,5.9535,0,0.3969,9.735256E-05,5.9535,0
0.3978,-7.418937E-05,5.967,0,0.3978,9.634547E-05,5.967,0
0.3987,-0.0001607996,5.9805,0,0.3987,2.584878E-05,5.9805,0
0.3996,-0.0001228656,5.994,0,0.3996,-9.500267E-05,5.994,0
0.4005,-6.51255E-05,6.0075,0,0.4005,-9.231708E-05,6.0075,0
0.4014,3.021286E-06,6.021,0,0.4014,-0.0001366293,6.021,0
0.4023,-7.553216E-05,6.0345,0,0.4023,-0.0001983978,6.0345,0
0.4032,-0.0001534142,6.048,0,0.4032,-8.392462E-05,6.048,0
0.4041,-0.0002252537,6.0615,0,0.4041,-2.685588E-06,6.0615,0
0.405,-0.0001920195,6.075,0,0.405,-4.46479E-05,6.075,0
0.4059,-0.0002339818,6.0885,0,0.4059,-2.853437E-05,6.0885,0
0.4068,-0.0001812772,6.102,0,0.4068,9.567407E-05,6.102,0
0.4077,-0.0001319295,6.1155,0,0.4077,0.0001973907,6.1155,0
0.4086,-3.994812E-05,6.129,0,0.4086,9.164568E-05,6.129,0
0.4095,8.96315E-05,6.1425,0,0.4095,-5.102617E-05,6.1425,0
0.4104,0.0001104448,6.156,0,0.4104,-9.835965E-05,6.156,0
0.4113,-4.061952E-05,6.1695,0,0.4113,-6.344701E-05,6.1695,0
0.4122,-7.217517E-05,6.183,0,0.4122,-0.000154757,6.183,0
0.4131,-5.136187E-05,6.1965,0,0.4131,-0.0002020905,6.1965,0
0.414,-0.0002326391,6.21,0,0.414,-0.0001695277,6.21,0
0.4149,-0.0002306248,6.2235,0,0.4149,-0.0001238727,6.2235,0
0.4158,-0.0001218585,6.237,0,0.4158,-0.0001151446,6.237,0
0.4167,-0.0002081331,6.2505,0,0.4167,-0.0001013809,6.2505,0
0.4176,-0.0002635233,6.264,0,0.4176,-0.0001104448,6.264,0
0.4185,-0.000169192,6.2775,0,0.4185,-0.0002151827,6.2775,0
0.4194,-1.376364E-05,6.291,0,0.4194,-0.0001352865,6.291,0
0.4203,-2.719158E-05,6.3045,0,0.4203,-2.517739E-05,6.3045,0
0.4212,-6.74754E-05,6.318,0,0.4212,5.270466E-05,6.318,0
0.4221,-8.090334E-05,6.3315,0,0.4221,3.994812E-05,6.3315,0
0.423,-2.18204E-05,6.345,0,0.423,8.560311E-05,6.345,0
0.4239,0.0001030594,6.3585,0,0.4239,0.0001762417,6.3585,0
0.4248,6.881819E-05,6.372,0,0.4248,0.0001950408,6.372,0
0.4257,9.903105E-05,6.3855,0,0.4257,0.0001607996,6.3855,0
0.4266,0.0001607996,6.399,0,0.4266,5.337606E-05,6.399,0
0.4275,0.0001010452,6.4125,0,0.4275,1.007095E-06,6.4125,0
0.4284,0.0001007095,6.426,0,0.4284,-1.141375E-05,6.426,0
0.4293,9.903105E-05,6.4395,0,0.4293,6.6804E-05,6.4395,0
0.4302,0.0001836271,6.453,0,0.4302,0.0001544213,6.453,0
0.4311,0.0002333104,6.4665,0,0.4311,0.0001473716,6.4665,0
0.432,0.0002269322,6.48,0,0.432,7.150377E-05,6.48,0
0.4329,0.0001483787,6.4935,0,0.4329,-5.337606E-05,6.4935,0
0.4338,0.0001399863,6.507,0,0.4338,-0.0001399863,6.507,0
0.4347,-3.088426E-05,6.5205,0,0.4347,-0.0003145495,6.5205,0
0.4356,-0.0001916838,6.534,0,0.4356,-0.0003773251,6.534,0
0.4365,-0.0001409934,6.5475,0,0.4365,-0.0002534524,6.5475,0
0.4374,-9.298848E-05,6.561,0,0.4374,-7.150377E-05,6.561,0
0.4383,-5.102617E-05,6.5745,0,0.4383,0.0001305867,6.5745,0
0.4392,-3.356985E-06,6.588,0,0.4392,0.0003172351,6.588,0
0.4401,6.243992E-05,6.6015,0,0.4401,0.000130251,6.6015,0
0.441,-4.33051E-05,6.615,0,0.441,3.826963E-05,6.615,0
0.4419,1.712062E-05,6.6285,0,0.4419,-3.021286E-05,6.6285,0
0.4428,1.007095E-06,6.642,0,0.4428,-0.0001762417,6.642,0
0.4437,-5.069047E-05,6.6555,0,0.4437,-0.0002165255,6.6555,0
0.4446,0.0001245441,6.669,0,0.4446,-0.0001373007,6.669,0
0.4455,0.0002279393,6.6825,0,0.4455,6.210422E-05,6.6825,0
0.4464,9.030289E-05,6.696,0,0.4464,0.000252781,6.696,0
0.4473,9.735256E-05,6.7095,0,0.4473,0.0001564355,6.7095,0
0.4482,3.659113E-05,6.723,0,0.4482,-5.874724E-05,6.723,0
0.4491,-0.0001084306,6.7365,0,0.4491,-0.0001493858,6.7365,0
0.45,-3.021286E-05,6.75,0,0.45,-0.0001356222,6.75,0
0.4509,6.143282E-05,6.7635,0,0.4509,-7.721065E-05,6.7635,0
0.4518,-3.390555E-05,6.777,0,0.4518,-3.121996E-05,6.777,0
0.4527,8.89601E-05,6.7905,0,0.4527,2.24918E-05,6.7905,0
0.4536,0.0002574807,6.804,0,0.4536,6.378271E-06,6.804,0
0.4545,0.0001285725,6.8175,0,0.4545,-3.558404E-05,6.8175,0
0.4554,0.0001265583,6.831,0,0.4554,-6.74754E-05,6.831,0
0.4563,0.0001594568,6.8445,0,0.4563,-3.256275E-05,6.8445,0
0.4572,9.936675E-05,6.858,0,0.4572,-4.196231E-05,6.858,0
0.4581,-1.443504E-05,6.8715,0,0.4581,-3.457694E-05,6.8715,0
0.459,6.243992E-05,6.885,0,0.459,5.203327E-05,6.885,0
0.4599,7.251087E-05,6.8985,0,0.4599,-8.96315E-05,6.8985,0
0.4608,1.712062E-05,6.912,0,0.4608,-0.000340734,6.912,0
0.4617,-4.196231E-05,6.9255,0,0.4617,-0.0004605783,6.9255,0
0.4626,-7.183947E-05,6.939,0,0.4626,-0.0004545357,6.939,0
0.4635,-3.021286E-05,6.9525,0,0.4635,-0.0004209659,6.9525,0
0.4644,-2.584878E-05,6.966,0,0.4644,-0.0003011215,6.966,0
0.4653,-6.814679E-05,6.9795,0,0.4653,6.948959E-05,6.9795,0
0.4662,-3.121996E-05,6.993,0,0.4662,0.0005481956,6.993,0
0.4671,2.987716E-05,7.0065,0,0.4671,0.0007418937,7.0065,0
0.468,-4.733349E-05,7.02,0,0.468,0.0005528954,7.02,0
0.4689,-8.325322E-05,7.0335,0,0.4689,0.000312871,7.0335,0
0.4698,1.309224E-05,7.047,0,0.4698,0.000154757,7.047,0
0.4707,2.349889E-05,7.0605,0,0.4707,0.0001574426,7.0605,0
0.4716,-8.358892E-05,7.074,0,0.4716,0.0001386435,7.074,0
0.4725,-8.627451E-05,7.0875,0,0.4725,5.035477E-06,7.0875,0
0.4734,-4.53193E-05,7.101,0,0.4734,-0.0001030594,7.101,0
0.4743,5.706874E-06,7.1145,0,0.4743,-0.0001597925,7.1145,0
0.4752,-4.53193E-05,7.128,0,0.4752,-0.0001362936,7.128,0
0.4761,-0.000161471,7.1415,0,0.4761,-9.903105E-05,7.1415,0
0.477,-9.063859E-05,7.155,0,0.477,-5.706874E-06,7.155,0
0.4779,-1.510643E-05,7.1685,0,0.4779,5.371176E-06,7.1685,0
0.4788,-7.284657E-05,7.182,0,0.4788,1.342794E-06,7.182,0
0.4797,-4.129091E-05,7.1955,0,0.4797,-8.560311E-05,7.1955,0
0.4806,-2.853437E-05,7.209,0,0.4806,-0.0001373007,7.209,0
0.4815,-0.0001201801,7.2225,0,0.4815,-0.0001352865,7.2225,0
0.4824,-4.934768E-05,7.236,0,0.4824,-0.000231632,7.236,0
0.4833,-2.18204E-05,7.2495,0,0.4833,-0.0002225681,7.2495,0
0.4842,-0.000112459,7.263,0,0.4842,-8.325322E-05,7.263,0
0.4851,-0.0001654994,7.2765,0,0.4851,4.196231E-05,7.2765,0
0.486,-6.948959E-05,7.29,0,0.486,0.0001265583,7.29,0
0.4869,-2.719158E-05,7.3035,0,0.4869,0.0001379721,7.3035,0
0.4878,2.014191E-06,7.317,0,0.4878,0.0001658351,7.317,0
0.4887,-5.941863E-05,7.3305,0,0.4887,0.0001272297,7.3305,0
0.4896,-0.0001574426,7.344,0,0.4896,8.96315E-05,7.344,0
0.4905,-4.599069E-05,7.3575,0,0.4905,3.021286E-05,7.3575,0
0.4914,8.123904E-05,7.371,0,0.4914,-1.812772E-05,7.371,0
0.4923,5.606165E-05,7.3845,0,0.4923,2.584878E-05,7.3845,0
0.4932,6.814679E-05,7.398,0,0.4932,-3.356985E-06,7.398,0
0.4941,0.0001218585,7.4115,0,0.4941,-7.855344E-05,7.4115,0
0.495,3.189136E-05,7.425,0,0.495,-5.001907E-05,7.425,0
0.4959,-2.887007E-05,7.4385,0,0.4959,-0.0001399863,7.4385,0
0.4968,-7.989624E-05,7.452,0,0.4968,-0.0002229038,7.452,0
0.4977,-0.0002252537,7.4655,0,0.4977,-0.0002168612,7.4655,0
0.4986,-0.000190341,7.479,0,0.4986,-0.0002413672,7.479,0
0.4995,-0.0002000763,7.4925,0,0.4995,-0.0002061189,7.4925,0
0.5004,-0.0003289845,7.506,0,0.5004,-0.0002453956,7.506,0
0.5013,-0.0003508049,7.5195,0,0.5013,-0.000144686,7.5195,0
0.5022,-0.000263859,7.533,0,0.5022,-1.812772E-05,7.533,0
0.5031,-7.855344E-05,7.5465,0,0.5031,4.632639E-05,7.5465,0
0.504,6.277562E-05,7.56,0,0.504,-7.049668E-06,7.56,0
0.5049,6.51255E-05,7.5735,0,0.5049,-6.243992E-05,7.5735,0
0.5058,3.927672E-05,7.587,0,0.5058,9.332418E-05,7.587,0
0.5067,0.0001017166,7.6005,0,0.5067,0.0003252918,7.6005,0
0.5076,0.0002064546,7.614,0,0.5076,0.0003487907,7.614,0
0.5085,0.0002118257,7.6275,0,0.5085,0.0002453956,7.6275,0
0.5094,0.0002715801,7.641,0,0.5094,0.0001205158,7.641,0
0.5103,0.0001305867,7.6545,0,0.5103,0,7.6545,0
0.5112,-9.567407E-05,7.668,0,0.5112,-1.141375E-05,7.668,0
0.5121,-0.0001634852,7.6815,0,0.5121,-4.29694E-05,7.6815,0
0.513,-0.0001420005,7.695,0,0.513,-8.526741E-05,7.695,0
0.5139,-0.0001493858,7.7085,0,0.5139,-2.081331E-05,7.7085,0
0.5148,-5.169757E-05,7.722,0,0.5148,-0.0001530785,7.722,0
0.5157,-3.155566E-05,7.7355,0,0.5157,-0.0002205539,7.7355,0
0.5166,0.0001030594,7.749,0,0.5166,-0.0002178683,7.749,0
0.5175,0.0001420005,7.7625,0,0.5175,-0.0002541238,7.7625,0
0.5184,7.486076E-05,7.776,0,0.5184,-0.0002017548,7.776,0
0.5193,-3.222705E-05,7.7895,0,0.5193,-4.934768E-05,7.7895,0
0.5202,-3.390555E-05,7.803,0,0.5202,4.699779E-06,7.803,0
0.5211,2.1149E-05,7.8165,0,0.5211,-9.164568E-05,7.8165,0
0.522,-5.438316E-05,7.83,0,0.522,3.390555E-05,7.83,0
0.5229,-1.779202E-05,7.8435,0,0.5229,0.0001963836,7.8435,0
0.5238,0.0001044022,7.857,0,0.5238,5.169757E-05,7.857,0
0.5247,0.0001836271,7.8705,0,0.5247,-0.0001349508,7.8705,0
0.5256,0.0001752346,7.884,0,0.5256,-2.786297E-05,7.884,0
0.5265,7.083238E-05,7.8975,0,0.5265,-0.0003803464,7.8975,0
0.5274,1.644922E-05,7.911,0,0.5274,-0.0004357366,7.911,0
0.5283,0.0001319295,7.9245,0,0.5283,4.53193E-05,7.9245,0
0.5292,0.0002423743,7.938,0,0.5292,0.0005582666,7.938,0
0.5301,0.0001916838,7.9515,0,0.5301,0.0005592736,7.9515,0
0.531,0.0001044022,7.965,0,0.531,0.0002977645,7.965,0
0.5319,0.0001554284,7.9785,0,0.5319,0.0001232013,7.9785,0
0.5328,0.0002826581,7.992,0,0.5328,0.0001037308,7.992,0
0.5337,0.000246067,8.0055,0,0.5337,4.061952E-05,8.0055,0
0.5346,0.0002212253,8.019,0,0.5346,-1.007095E-06,8.019,0
0.5355,0.0001497215,8.0325,0,0.5355,5.203327E-05,8.0325,0
0.5364,8.560311E-05,8.046,0,0.5364,5.337606E-05,8.046,0
0.5373,4.599069E-05,8.0595,0,0.5373,-0.0001346151,8.0595,0
0.5382,-8.224613E-05,8.073,0,0.5382,-0.0003068284,8.073,0
0.5391,-0.0001332723,8.0865,0,0.5391,-0.0005357748,8.0865,0
0.54,-0.0001131304,8.1,0,0.54,-0.0007630427,8.1,0
0.5409,-0.0001329366,8.1135,0,0.5409,-0.0007643854,8.1135,0
0.5418,-0.0001097734,8.127,0,0.5418,-0.0002940719,8.127,0
0.5427,-3.054856E-05,8.1405,0,0.5427,0.0001715419,8.1405,0
0.5436,9.164568E-05,8.154,0,0.5436,0.0004978409,8.154,0
0.5445,0.0001033951,8.1675,0,0.5445,0.0008268254,8.1675,0
0.5454,8.526741E-05,8.181,0,0.5454,0.0007442436,8.181,0
0.5463,-3.793393E-05,8.1945,0,0.5463,0.0004236515,8.1945,0
0.5472,-6.814679E-05,8.208,0,0.5472,0.0001668421,8.208,0
0.5481,-3.793393E-05,8.2215,0,0.5481,1.174945E-05,8.2215,0
0.549,-0.0001104448,8.235,0,0.549,1.812772E-05,8.235,0
0.5499,-7.016098E-05,8.2485,0,0.5499,-4.565499E-05,8.2485,0
0.5508,-5.270466E-05,8.262,0,0.5508,-0.0001644923,8.262,0
0.5517,-4.599069E-05,8.2755,0,0.5517,-0.0001916838,8.2755,0
0.5526,2.517739E-05,8.289,0,0.5526,-0.0001621424,8.289,0
0.5535,-1.141375E-05,8.3025,0,0.5535,-6.78111E-05,8.3025,0
0.5544,-6.57969E-05,8.316,0,0.5544,1.678492E-06,8.316,0
0.5553,-3.860533E-05,8.3295,0,0.5553,-7.687495E-05,8.3295,0
0.5562,-7.721065E-05,8.343,0,0.5562,-4.061952E-05,8.343,0
0.5571,-0.0001698634,8.3565,0,0.5571,-3.961242E-05,8.3565,0
0.558,-0.0001399863,8.37,0,0.558,-0.000186984,8.37,0
0.5589,-0.0001285725,8.3835,0,0.5589,-0.0001628138,8.3835,0
0.5598,-0.0001980621,8.397,0,0.5598,-6.243992E-05,8.397,0
0.5607,-0.0001292439,8.4105,0,0.5607,-0.0001107805,8.4105,0
0.5616,-3.054856E-05,8.424,0,0.5616,-6.009003E-05,8.424,0
0.5625,-0.0001574426,8.4375,0,0.5625,-0.0001201801,8.4375,0
0.5634,-3.256275E-05,8.451,0,0.5634,-0.0001735561,8.451,0
0.5643,4.733349E-05,8.4645,0,0.5643,-6.143282E-05,8.4645,0
0.5652,-8.526741E-05,8.478,0,0.5652,-1.577783E-05,8.478,0
0.5661,-3.994812E-05,8.4915,0,0.5661,0.000102388,8.4915,0
0.567,5.136187E-05,8.505,0,0.567,7.150377E-05,8.505,0
0.5679,3.860533E-05,8.5185,0,0.5679,-8.392462E-06,8.5185,0
0.5688,5.438316E-05,8.532,0,0.5688,8.392462E-06,8.532,0
0.5697,3.894102E-05,8.5455,0,0.5697,3.356985E-07,8.5455,0
0.5706,1.577783E-05,8.559,0,0.5706,-0.0001111162,8.559,0
0.5715,-2.18204E-05,8.5725,0,0.5715,-0.0002131685,8.5725,0
0.5724,3.692683E-06,8.586,0,0.5724,-0.0001950408,8.586,0
0.5733,-1.376364E-05,8.5995,0,0.5733,-0.0001151446,8.5995,0
0.5742,-5.035477E-06,8.613,0,0.5742,-0.0001054093,8.613,0
0.5751,-9.063859E-06,8.6265,0,0.5751,-6.344701E-05,8.6265,0
0.576,-6.143282E-05,8.64,0,0.576,4.061952E-05,8.64,0
0.5769,-2.047761E-05,8.6535,0,0.5769,1.342794E-05,8.6535,0
0.5778,-7.049668E-06,8.667,0,0.5778,-7.418937E-05,8.667,0
0.5787,-5.874724E-05,8.6805,0,0.5787,-0.0001883268,8.6805,0
0.5796,-9.433127E-05,8.694,0,0.5796,-0.0002339818,8.694,0
0.5805,3.356985E-07,8.7075,0,0.5805,-0.0003226062,8.7075,0
0.5814,2.450599E-05,8.721,0,0.5814,-0.0004867628,8.721,0
0.5823,0.0001010452,8.7345,0,0.5823,-0.0005445029,8.7345,0
0.5832,0.0001426719,8.748,0,0.5832,-8.560311E-05,8.748,0
0.5841,7.553216E-05,8.7615,0,0.5841,0.0003555047,8.7615,0
0.585,-3.189136E-05,8.775,0,0.585,0.0005018692,8.775,0
0.5859,-0.0001994049,8.7885,0,0.5859,0.0005851224,8.7885,0
0.5868,-0.0003138781,8.802,0,0.5868,0.0006240635,8.802,0
0.5877,-0.0001910124,8.8155,0,0.5877,0.000503212,8.8155,0
0.5886,-0.0001087663,8.829,0,0.5886,0.0001050736,8.829,0
0.5895,-7.418937E-05,8.8425,0,0.5895,4.36408E-05,8.8425,0
0.5904,5.371176E-06,8.856,0,0.5904,9.567407E-05,8.856,0
0.5913,0.000144686,8.8695,0,0.5913,-1.947051E-05,8.8695,0
0.5922,0.0002077974,8.883,0,0.5922,1.577783E-05,8.883,0
0.5931,0.0001117876,8.8965,0,0.5931,0.0001507286,8.8965,0
0.594,0.0001346151,8.91,0,0.594,0.0001453574,8.91,0
0.5949,7.721065E-05,8.9235,0,0.5949,4.129091E-05,8.9235,0
0.5958,0.0001047379,8.937,0,0.5958,-0.0001215228,8.937,0
0.5967,0.0001232013,8.9505,0,0.5967,-5.404745E-05,8.9505,0
0.5976,-3.927672E-05,8.964,0,0.5976,-5.505455E-05,8.964,0
0.5985,-9.500267E-05,8.9775,0,0.5985,-0.0001376364,8.9775,0
0.5994,-1.107805E-05,8.991,0,0.5994,-0.0001064164,8.991,0
0.6003,-4.33051E-05,9.0045,0,0.6003,-5.304036E-05,9.0045,0
0.6012,6.64683E-05,9.018,0,0.6012,-5.673304E-05,9.018,0
0.6021,0.0001500572,9.0315,0,0.6021,-0.0002339818,9.0315,0
0.603,-4.129091E-05,9.045,0,0.603,-0.0003816892,9.045,0
0.6039,-2.920577E-05,9.0585,0,0.6039,-0.0006062714,9.0585,0
0.6048,7.754635E-05,9.072001,0,0.6048,-0.0009013504,9.072001,0
0.6057,-4.599069E-05,9.0855,0,0.6057,-0.0008442817,9.0855,0
0.6066,-0.0001923552,9.099,0,0.6066,-0.0005941863,9.099,0
0.6075,-0.0001822843,9.1125,0,0.6075,-0.0003954528,9.1125,0
0.6084,-0.0001352865,9.126,0,0.6084,0.0002534524,9.126,0
0.6093,-0.0001621424,9.1395,0,0.6093,0.0009557336,9.1395,0
0.6102,-0.0002826581,9.153,0,0.6102,0.0009329061,9.153,0
0.6111,-0.0002370031,9.1665,0,0.6111,0.0007160449,9.1665,0
0.612,-8.69459E-05,9.18,0,0.612,0.0004293584,9.18,0
0.6129,0.0001795987,9.1935,0,0.6129,0.0003044785,9.1935,0
0.6138,0.0004703136,9.207,0,0.6138,0.0003111925,9.207,0
0.6147,0.0004347295,9.2205,0,0.6147,0.0002608377,9.2205,0
0.6156,0.0002366674,9.234,0,0.6156,0.0001232013,9.234,0
0.6165,5.270466E-05,9.2475,0,0.6165,0.0001027237,9.2475,0
0.6174,8.157473E-05,9.261,0,0.6174,7.049668E-06,9.261,0
0.6183,6.6804E-05,9.2745,0,0.6183,-0.0001668421,9.2745,0
0.6192,6.076142E-05,9.288,0,0.6192,-0.0002762798,9.288,0
0.6201,-3.356985E-06,9.3015,0,0.6201,-0.0003132067,9.3015,0
0.621,-1.947051E-05,9.315,0,0.621,-0.0002547952,9.315,0
0.6219,-5.203327E-05,9.3285,0,0.6219,-0.0002225681,9.3285,0
0.6228,-5.941863E-05,9.342,0,0.6228,-0.0001198444,9.342,0
0.6237,-0.0001540856,9.3555,0,0.6237,-2.047761E-05,9.3555,0
0.6246,-0.000200412,9.369,0,0.6246,6.74754E-05,9.369,0
0.6255,-8.761731E-05,9.3825,0,0.6255,0.0001067521,9.3825,0
0.6264,-0.0001285725,9.396,0,0.6264,1.309224E-05,9.396,0
0.6273,-0.0001359579,9.4095,0,0.6273,-8.728161E-06,9.4095,0
0.6282,-0.0001352865,9.423,0,0.6282,2.014191E-06,9.423,0
0.6291,-0.0001305867,9.4365,0,0.6291,-7.116808E-05,9.4365,0
0.63,-0.0001107805,9.45,0,0.63,8.761731E-05,9.45,0
0.6309,-1.980621E-05,9.4635,0,0.6309,4.901198E-05,9.4635,0
0.6318,3.591974E-05,9.477,0,0.6318,-5.304036E-05,9.477,0
0.6327,-3.390555E-05,9.4905,0,0.6327,-2.551309E-05,9.4905,0
0.6336,-5.975433E-05,9.504,0,0.6336,-1.040665E-05,9.504,0
0.6345,2.652018E-05,9.5175,0,0.6345,-8.291753E-05,9.5175,0
0.6354,-4.599069E-05,9.531,0,0.6354,3.860533E-05,9.531,0
0.6363,-3.121996E-05,9.5445,0,0.6363,0.0001963836,9.5445,0
0.6372,-1.275654E-05,9.558,0,0.6372,0.0002151827,9.558,0
0.6381,-5.874724E-05,9.5715,0,0.6381,0.000130251,9.5715,0
0.639,-9.466698E-05,9.585,0,0.639,-0.0002356603,9.585,0
0.6399,-5.706874E-05,9.5985,0,0.6399,-0.0005794156,9.5985,0
0.6408,-0.0001003738,9.612,0,0.6408,-0.0006207065,9.612,0
0.6417,-7.150377E-05,9.6255,0,0.6417,-0.000619028,9.6255,0
0.6426,3.390555E-05,9.639,0,0.6426,-0.0005159685,9.639,0
0.6435,7.452507E-05,9.6525,0,0.6435,0.000190341,9.6525,0
0.6444,6.881819E-05,9.666,0,0.6444,0.0008449531,9.666,0
0.6453,7.049668E-05,9.6795,0,0.6453,0.000724773,9.6795,0
0.6462,1.913481E-05,9.693,0,0.6462,0.0004018311,9.693,0
0.6471,-1.107805E-05,9.7065,0,0.6471,0.0001701991,9.7065,0
0.648,6.411841E-05,9.72,0,0.648,0.0001232013,9.72,0
0.6489,0.0001070878,9.7335,0,0.6489,-5.874724E-05,9.7335,0
0.6498,0.0001178302,9.747,0,0.6498,-0.0002074617,9.747,0
0.6507,9.936675E-05,9.7605,0,0.6507,-0.0001312581,9.7605,0
0.6516,6.948959E-05,9.774,0,0.6516,-0.0002051118,9.774,0
0.6525,7.687495E-05,9.7875,0,0.6525,-0.0001470359,9.7875,0
0.6534,6.881819E-05,9.801,0,0.6534,-0.0001886625,9.801,0
0.6543,-2.21561E-05,9.8145,0,0.6543,-0.0001638209,9.8145,0
0.6552,-8.392462E-06,9.828,0,0.6552,-0.0001399863,9.828,0
0.6561,3.591974E-05,9.8415,0,0.6561,-0.0001030594,9.8415,0
0.657,-1.040665E-05,9.855,0,0.657,-3.021286E-06,9.855,0
0.6579,4.43122E-05,9.8685,0,0.6579,-4.061952E-05,9.8685,0
0.6588,3.491264E-05,9.882,0,0.6588,-0.0001681849,9.882,0
0.6597,1.947051E-05,9.8955,0,0.6597,-0.0002158541,9.8955,0
0.6606,-3.927672E-05,9.909,0,0.6606,-0.0002866865,9.909,0
0.6615,-0.0001144732,9.9225,0,0.6615,-0.0003299916,9.9225,0
0.6624,-0.0001460288,9.936,0,0.6624,-0.00024271,9.936,0
0.6633,-7.553216E-05,9.9495,0,0.6633,-2.584878E-05,9.9495,0
0.6642,-2.417029E-05,9.963,0,0.6642,0.000291722,9.963,0
0.6651,0.0001017166,9.976501,0,0.6651,0.0003051499,9.976501,0
0.666,8.392462E-05,9.99,0,0.666,0.0003410697,9.99,0
0.6669,9.634547E-05,10.0035,0,0.6669,0.0003873961,10.0035,0
0.6678,9.768826E-05,10.017,0,0.6678,0.0002756084,10.017,0
0.6687,6.411841E-05,10.0305,0,0.6687,0.0001809415,10.0305,0
0.6696,5.673304E-05,10.044,0,0.6696,7.083238E-05,10.044,0
0.6705,-8.291753E-05,10.0575,0,0.6705,3.121996E-05,10.0575,0
0.6714,-0.0001292439,10.071,0,0.6714,-2.14847E-05,10.071,0
0.6723,-6.378271E-05,10.0845,0,0.6723,-3.659113E-05,10.0845,0
0.6732,-2.920577E-05,10.098,0,0.6732,-3.121996E-05,10.098,0
0.6741,-1.107805E-05,10.1115,0,0.6741,-3.793393E-05,10.1115,0
0.675,3.625543E-05,10.125,0,0.675,-6.378271E-05,10.125,0
0.6759,-3.424125E-05,10.1385,0,0.6759,-9.903105E-05,10.1385,0
0.6768,-0.0001205158,10.152,0,0.6768,-0.0001275654,10.152,0
0.6777,-0.0002171969,10.1655,0,0.6777,-0.0001634852,10.1655,0
0.6786,-0.0003101854,10.179,0,0.6786,-0.0001174945,10.179,0
0.6795,-0.0003303273,10.1925,0,0.6795,-9.130999E-05,10.1925,0
0.6804,-0.0001883268,10.206,0,0.6804,2.316319E-05,10.206,0
0.6813,-5.404745E-05,10.2195,0,0.6813,5.236896E-05,10.2195,0
0.6822,-2.349889E-06,10.233,0,0.6822,-0.0001487144,10.233,0
0.6831,0.0002245823,10.2465,0,0.6831,-0.0004270085,10.2465,0
0.684,0.0002111543,10.26,0,0.684,-0.0004568856,10.26,0
0.6849,8.627451E-05,10.2735,0,0.6849,-0.0003816892,10.2735,0
0.6858,2.349889E-06,10.287,0,0.6858,-0.0004572213,10.287,0
0.6867,-8.92958E-05,10.3005,0,0.6867,-0.0001997406,10.3005,0
0.6876,-0.0001671778,10.314,0,0.6876,0.0004213016,10.314,0
0.6885,-1.779202E-05,10.3275,0,0.6885,0.0005038834,10.3275,0
0.6894,0.0001863127,10.341,0,0.6894,0.0003313344,10.341,0
0.6903,0.000249424,10.3545,0,0.6903,0.0001560998,10.3545,0
0.6912,7.049668E-05,10.368,0,0.6912,3.054856E-05,10.368,0
0.6921,-1.779202E-05,10.3815,0,0.6921,-1.443504E-05,10.3815,0
0.693,-3.021286E-06,10.395,0,0.693,-3.390555E-05,10.395,0
0.6939,1.712062E-05,10.4085,0,0.6939,7.385367E-05,10.4085,0
0.6948,2.24918E-05,10.422,0,0.6948,1.141375E-05,10.422,0
0.6957,4.39765E-05,10.4355,0,0.6957,-5.337606E-05,10.4355,0
0.6966,8.96315E-05,10.449,0,0.6966,5.471885E-05,10.449,0
0.6975,9.298848E-05,10.4625,0,0.6975,0.0002823224,10.4625,0
0.6984,0.0001211871,10.476,0,0.6984,0.0001732204,10.476,0
0.6993,0.0001010452,10.4895,0,0.6993,-8.996719E-05,10.4895,0
0.7002,7.486076E-05,10.503,0,0.7002,-0.0001661708,10.503,0
0.7011,2.349889E-06,10.5165,0,0.7011,-0.0001775845,10.5165,0
0.702,1.644922E-05,10.53,0,0.702,-0.0001185016,10.53,0
0.7029,2.349889E-05,10.5435,0,0.7029,-8.761731E-05,10.5435,0
0.7038,5.807584E-05,10.557,0,0.7038,-9.735256E-05,10.557,0
0.7047,3.558404E-05,10.5705,0,0.7047,3.591974E-05,10.5705,0
0.7056,-9.097429E-05,10.584,0,0.7056,8.89601E-05,10.584,0
0.7065,-3.256275E-05,10.5975,0,0.7065,5.874724E-05,10.5975,0
0.7074,5.606165E-05,10.611,0,0.7074,-0.0001050736,10.611,0
0.7083,-8.526741E-05,10.6245,0,0.7083,-0.0003041428,10.6245,0
0.7092,-0.0001117876,10.638,0,0.7092,-0.0004827344,10.638,0
0.7101,-7.855344E-05,10.6515,0,0.7101,-0.0006442054,10.6515,0
0.711,-0.0001641566,10.665,0,0.711,-0.0006270848,10.665,0
0.7119,-0.0001326009,10.6785,0,0.7119,-0.0003316701,10.6785,0
0.7128,-3.826963E-05,10.692,0,0.7128,0.0001507286,10.692,0
0.7137,-4.934768E-05,10.7055,0,0.7137,0.0003199207,10.7055,0
0.7146,-0.0001134661,10.719,0,0.7146,0.0004125734,10.719,0
0.7155,7.083238E-05,10.7325,0,0.7155,0.0005995575,10.7325,0
0.7164,0.000190341,10.746,0,0.7164,0.000583444,10.746,0
0.7173,0.0001856413,10.7595,0,0.7173,0.0005394674,10.7595,0
0.7182,0.0001346151,10.773,0,0.7182,0.0005535668,10.773,0
0.7191,4.162661E-05,10.7865,0,0.7191,0.0005690089,10.7865,0
0.72,4.263371E-05,10.8,0,0.72,0.0004763562,10.8,0
0.7209,7.620356E-05,10.8135,0,0.7209,0.0002252537,10.8135,0
0.7218,-6.61326E-05,10.827,0,0.7218,2.383459E-05,10.827,0
0.7227,-0.0001201801,10.8405,0,0.7227,-0.0002813153,10.8405,0
0.7236,-1.208515E-05,10.854,0,0.7236,-0.0002245823,10.854,0
0.7245,-3.994812E-05,10.8675,0,0.7245,-9.365987E-05,10.8675,0
0.7254,7.721065E-05,10.881,0,0.7254,-6.848249E-05,10.881,0
0.7263,5.169757E-05,10.8945,0,0.7263,4.800488E-05,10.8945,0
0.7272,-4.766919E-05,10.908,0,0.7272,9.567407E-05,10.908,0
0.7281,-0.0001560998,10.9215,0,0.7281,-3.860533E-05,10.9215,0
0.729,-9.500267E-05,10.935,0,0.729,-8.627451E-05,10.935,0
0.7299,9.735256E-05,10.9485,0,0.7299,-0.0001665064,10.9485,0
0.7308,8.157473E-05,10.962,0,0.7308,-0.0002833295,10.962,0
0.7317,-3.826963E-05,10.9755,0,0.7317,-0.0003031357,10.9755,0
0.7326,5.337606E-05,10.989,0,0.7326,-0.0003736324,10.989,0
0.7335,0.0002017548,11.0025,0,0.7335,-0.0003256275,11.0025,0
0.7344,0.0001362936,11.016,0,0.7344,-0.0001117876,11.016,0
0.7353,7.687495E-05,11.0295,0,0.7353,-0.0001527428,11.0295,0
0.7362,0.000119173,11.043,0,0.7362,-0.0003776608,11.043,0
0.7371,4.39765E-05,11.0565,0,0.7371,-0.0003642329,11.0565,0
0.738,-0.0001789273,11.07,0,0.738,-0.0002991073,11.07,0
0.7389,-0.0001634852,11.0835,0,0.7389,-0.0002715801,11.0835,0
0.7398,-0.0001292439,11.097,0,0.7398,-9.970245E-05,11.097,0
0.7407,-0.0002121614,11.1105,0,0.7407,0.0003152209,11.1105,0
0.7416,-0.0001806058,11.124,0,0.7416,0.0003138781,11.124,0
0.7425,-1.342794E-06,11.1375,0,0.7425,6.411841E-05,11.1375,0
0.7434,8.426032E-05,11.151,0,0.7434,1.846342E-05,11.151,0
0.7443,0.0001832914,11.1645,0,0.7443,-3.659113E-05,11.1645,0
0.7452,0.0001416648,11.178,0,0.7452,-7.251087E-05,11.178,0
0.7461,9.030289E-05,11.1915,0,0.7461,-0.0001013809,11.1915,0
0.747,9.567407E-05,11.205,0,0.747,-0.0001413291,11.205,0
0.7479,-1.208515E-05,11.2185,0,0.7479,-0.0002047761,11.2185,0
0.7488,-0.0002198825,11.232,0,0.7488,-0.0001211871,11.232,0
0.7497,-0.0002625162,11.2455,0,0.7497,-0.0001305867,11.2455,0
0.7506,-0.0002178683,11.259,0,0.7506,-0.0002007477,11.259,0
0.7515,-0.0002840009,11.2725,0,0.7515,-0.000246067,11.2725,0
0.7524,-0.0002534524,11.286,0,0.7524,-0.0002084688,11.286,0
0.7533,8.493171E-05,11.2995,0,0.7533,-8.426032E-05,11.2995,0
0.7542,0.0003367056,11.313,0,0.7542,0.0002544594,11.313,0
0.7551,0.0002521096,11.3265,0,0.7551,0.0003400626,11.3265,0
0.756,8.123904E-05,11.34,0,0.756,0.0003132067,11.34,0
0.7569,-7.486076E-05,11.3535,0,0.7569,0.0001564355,11.3535,0
0.7578,-0.0001178302,11.367,0,0.7578,-0.0001356222,11.367,0
0.7587,-0.0001017166,11.3805,0,0.7587,-0.0001906767,11.3805,0
0.7596,-0.0001285725,11.394,0,0.7596,-0.0001373007,11.394,0
0.7605,-9.835965E-05,11.4075,0,0.7605,-0.0001460288,11.4075,0
0.7614,-6.64683E-05,11.421,0,0.7614,0.000112459,11.421,0
0.7623,-5.673304E-05,11.4345,0,0.7623,0.0003649043,11.4345,0
0.7632,5.035477E-06,11.448,0,0.7632,0.0005233539,11.448,0
0.7641,8.392462E-06,11.4615,0,0.7641,0.0003044785,11.4615,0
0.765,-7.754635E-05,11.475,0,0.765,0.0001842985,11.475,0
0.7659,-5.001907E-05,11.4885,0,0.7659,0.000119173,11.4885,0
0.7668,-2.047761E-05,11.502,0,0.7668,-7.049668E-06,11.502,0
0.7677,-7.486076E-05,11.5155,0,0.7677,-2.987716E-05,11.5155,0
0.7686,-0.0001003738,11.529,0,0.7686,3.021286E-06,11.529,0
0.7695,-7.418937E-05,11.5425,0,0.7695,-5.807584E-05,11.5425,0
0.7704,-3.860533E-05,11.556,0,0.7704,-9.265278E-05,11.556,0
0.7713,-2.349889E-06,11.5695,0,0.7713,-0.0002185397,11.5695,0
0.7722,1.712062E-05,11.583,0,0.7722,-0.0002641947,11.583,0
0.7731,-1.577783E-05,11.5965,0,0.7731,-0.0002225681,11.5965,0
0.774,6.6804E-05,11.61,0,0.774,-0.0001483787,11.61,0
0.7749,0.000115816,11.6235,0,0.7749,-8.056763E-06,11.6235,0
0.7758,-8.392462E-06,11.637,0,0.7758,1.544213E-05,11.637,0
0.7767,7.049668E-06,11.6505,0,0.7767,-0.0001530785,11.6505,0
0.7776,7.150377E-05,11.664,0,0.7776,-0.0001346151,11.664,0
0.7785,-5.035477E-06,11.6775,0,0.7785,-0.000130251,11.6775,0
0.7794,0.0001178302,11.691,0,0.7794,-0.0001846342,11.691,0
0.7803,0.0001695277,11.7045,0,0.7803,-8.526741E-05,11.7045,0
0.7812,4.39765E-05,11.718,0,0.7812,0.0001514,11.718,0
0.7821,-1.611353E-05,11.7315,0,0.7821,0.0002688945,11.7315,0
0.783,7.721065E-05,11.745,0,0.783,0.0001550927,11.745,0
0.7839,5.404745E-05,11.7585,0,0.7839,0.0001144732,11.7585,0
0.7848,-2.484169E-05,11.772,0,0.7848,8.493171E-05,11.772,0
0.7857,1.577783E-05,11.7855,0,0.7857,-5.706874E-06,11.7855,0
0.7866,4.53193E-05,11.799,0,0.7866,-4.028382E-05,11.799,0
0.7875,3.390555E-05,11.8125,0,0.7875,-3.021286E-06,11.8125,0
0.7884,1.812772E-05,11.826,0,0.7884,-8.493171E-05,11.826,0
0.7893,-4.632639E-05,11.8395,0,0.7893,-0.000175906,11.8395,0
0.7902,-7.016098E-05,11.853,0,0.7902,-0.0002437171,11.853,0
0.7911,-4.36408E-06,11.8665,0,0.7911,-0.0004552071,11.8665,0
0.792,-7.553216E-05,11.88,0,0.792,-0.0004434577,11.88,0
0.7929,-6.948959E-05,11.8935,0,0.7929,-0.0002742657,11.8935,0
0.7938,-5.404745E-05,11.907,0,0.7938,-0.0001896696,11.907,0
0.7947,-5.304036E-05,11.9205,0,0.7947,5.874724E-05,11.9205,0
0.7956,-9.735256E-05,11.934,0,0.7956,0.0005233539,11.934,0
0.7965,2.1149E-05,11.9475,0,0.7965,0.0005931792,11.9475,0
0.7974,8.92958E-05,11.961,0,0.7974,0.0003753109,11.961,0
0.7983,6.143282E-05,11.9745,0,0.7983,0.0002709087,11.9745,0
0.7992,7.049668E-06,11.988,0,0.7992,9.063859E-05,11.988,0
0.8001,2.719158E-05,12.0015,0,0.8001,3.659113E-05,12.0015,0
0.801,0.0001205158,12.015,0,0.801,-6.277562E-05,12.015,0
0.8019,9.835965E-05,12.0285,0,0.8019,-0.0002010834,12.0285,0
0.8028,-5.539025E-05,12.042,0,0.8028,-0.0001621424,12.042,0
0.8037,-0.0001409934,12.0555,0,0.8037,-0.0003403983,12.0555,0
0.8046,-0.0001641566,12.069,0,0.8046,-0.0004384222,12.069,0
0.8055,-0.0001661708,12.0825,0,0.8055,-2.786297E-05,12.0825,0
0.8064,-6.948959E-05,12.096,0,0.8064,0.0001876554,12.096,0
0.8073,-8.426032E-05,12.1095,0,0.8073,0.000200412,12.1095,0
0.8082,-1.107805E-05,12.123,0,0.8082,0.0003632258,12.123,0
0.8091,0.0001010452,12.1365,0,0.8091,0.0006851606,12.1365,0
0.81,9.835965E-05,12.15,0,0.81,0.0004528573,12.15,0
0.8109,-9.063859E-05,12.1635,0,0.8109,7.150377E-05,12.1635,0
0.8118,-0.0001131304,12.177,0,0.8118,-3.390555E-05,12.177,0
0.8127,-0.0001148089,12.1905,0,0.8127,-7.351797E-05,12.1905,0
0.8136,-0.0001977264,12.204,0,0.8136,-0.0001604639,12.204,0
0.8145,-7.989624E-05,12.2175,0,0.8145,-5.539025E-05,12.2175,0
0.8154,-7.687495E-05,12.231,0,0.8154,-8.090334E-05,12.231,0
0.8163,-0.0002286107,12.2445,0,0.8163,-0.0002326391,12.2445,0
0.8172,-0.0001420005,12.258,0,0.8172,-0.0002997787,12.258,0
0.8181,3.021286E-05,12.2715,0,0.8181,-0.0003283131,12.2715,0
0.819,0.0001554284,12.285,0,0.819,-0.0002688945,12.285,0
0.8199,0.0004239872,12.2985,0,0.8199,-0.0002145113,12.2985,0
0.8208,0.0003380484,12.312,0,0.8208,-0.0002997787,12.312,0
0.8217,7.217517E-05,12.3255,0,0.8217,-0.0002568093,12.3255,0
0.8226,3.860533E-05,12.339,0,0.8226,-0.0001493858,12.339,0
0.8235,9.097429E-05,12.3525,0,0.8235,-5.874724E-05,12.3525,0
0.8244,0.0001443503,12.366,0,0.8244,-9.063859E-06,12.366,0
0.8253,8.090334E-05,12.3795,0,0.8253,-6.6804E-05,12.3795,0
0.8262,-2.316319E-05,12.393,0,0.8262,-8.358892E-05,12.393,0
0.8271,-0.0001255512,12.4065,0,0.8271,-5.774014E-05,12.4065,0
0.828,-0.0001789273,12.42,0,0.828,-3.793393E-05,12.42,0
0.8289,-0.000109102,12.4335,0,0.8289,4.733349E-05,12.4335,0
0.8298,-8.358892E-05,12.447,0,0.8298,0.0001443503,12.447,0
0.8307,-2.047761E-05,12.4605,0,0.8307,8.96315E-05,12.4605,0
0.8316,3.860533E-05,12.474,0,0.8316,-1.644922E-05,12.474,0
0.8325,-7.855344E-05,12.4875,0,0.8325,-8.996719E-05,12.4875,0
0.8334,-0.0001225299,12.501,0,0.8334,-3.457694E-05,12.501,0
0.8343,-7.351797E-05,12.5145,0,0.8343,-0.0001359579,12.5145,0
0.8352,-7.251087E-05,12.528,0,0.8352,-0.0002947433,12.528,0
0.8361,-7.721065E-05,12.5415,0,0.8361,-0.0004011597,12.5415,0
0.837,3.424125E-05,12.555,0,0.837,-0.000566659,12.555,0
0.8379,6.915389E-05,12.5685,0,0.8379,-0.000675761,12.5685,0
0.8388,4.733349E-05,12.582,0,0.8388,-0.0003336843,12.582,0
0.8397,9.903105E-05,12.5955,0,0.8397,0.0003632258,12.5955,0
0.8406,0.0001376364,12.609,0,0.8406,0.0006536049,12.609,0
0.8415,5.069047E-05,12.6225,0,0.8415,0.0009342488,12.6225,0
0.8424,-0.0001205158,12.636,0,0.8424,0.001190723,12.636,0
0.8433,-0.0001849699,12.6495,0,0.8433,0.0009084001,12.6495,0
0.8442,-0.0001252155,12.663,0,0.8442,0.0005471885,12.663,0
0.8451,-9.097429E-05,12.6765,0,0.8451,0.0003199207,12.6765,0
0.846,-2.517739E-05,12.69,0,0.846,0.000224918,12.69,0
0.8469,0.0001983978,12.7035,0,0.8469,0.0001453574,12.7035,0
0.8478,0.0004542001,12.717,0,0.8478,4.229801E-05,12.717,0
0.8487,0.0006549477,12.7305,0,0.8487,-0.0001101091,12.7305,0
0.8496,0.0003051499,12.744,0,0.8496,-0.0001836271,12.744,0
0.8505,2.316319E-05,12.7575,0,0.8505,-0.0002829938,12.7575,0
0.8514,-4.061952E-05,12.771,0,0.8514,-0.0002641947,12.771,0
0.8523,1.678492E-06,12.7845,0,0.8523,-0.0001644923,12.7845,0
0.8532,-4.39765E-05,12.798,0,0.8532,-0.0001396506,12.798,0
0.8541,-0.0001238727,12.8115,0,0.8541,-0.0001846342,12.8115,0
0.855,-0.0001490501,12.825,0,0.855,-0.0003622186,12.825,0
0.8559,-8.157473E-05,12.8385,0,0.8559,-0.0003709468,12.8385,0
0.8568,-0.0001467002,12.852,0,0.8568,-0.0003420768,12.852,0
0.8577,-0.0001430075,12.8655,0,0.8577,-0.0002927291,12.8655,0
0.8586,-6.076142E-05,12.879,0,0.8586,-8.191043E-05,12.879,0
0.8595001,-0.0001342794,12.8925,0,0.8595001,0.0001460288,12.8925,0
0.8604,-7.956054E-05,12.906,0,0.8604,-7.351797E-05,12.906,0
0.8613,-9.030289E-05,12.9195,0,0.8613,-0.0001879911,12.9195,0
0.8622,-0.0002265965,12.933,0,0.8622,-0.0002537881,12.933,0
0.8631,-0.0002091402,12.9465,0,0.8631,-0.0002124971,12.9465,0
0.864,-5.841154E-05,12.96,0,0.864,-0.0001701991,12.96,0
0.8649,-6.143282E-05,12.9735,0,0.8649,-0.0001292439,12.9735,0
0.8658,-0.0001312581,12.987,0,0.8658,-0.0004928054,12.987,0
0.8667,-0.0001299153,13.0005,0,0.8667,-0.0005663233,13.0005,0
0.8676,-0.0001044022,13.014,0,0.8676,-0.0004803845,13.014,0
0.8685,-8.493171E-05,13.0275,0,0.8685,-5.774014E-05,13.0275,0
0.8694,5.606165E-05,13.041,0,0.8694,0.0006170138,13.041,0
0.8703,8.291753E-05,13.0545,0,0.8703,0.00100676,13.0545,0
0.8712,0.0001121233,13.068,0,0.8712,0.000855024,13.068,0
0.8721,0.0001728847,13.0815,0,0.8721,0.0004572213,13.0815,0
0.873,2.652018E-05,13.095,0,0.873,8.358892E-05,13.095,0
0.8739,-4.43122E-05,13.1085,0,0.8739,-0.0001262226,13.1085,0
0.8748,-1.678492E-05,13.122,0,0.8748,-0.0001856413,13.122,0
0.8757,-4.733349E-05,13.1355,0,0.8757,-0.000221561,13.1355,0
0.8766,-0.0001121233,13.149,0,0.8766,-0.000221561,13.149,0
0.8775,-0.0001000381,13.1625,0,0.8775,-6.109713E-05,13.1625,0
0.8784,-5.539025E-05,13.176,0,0.8784,-3.424125E-05,13.176,0
0.8793,2.349889E-06,13.1895,0,0.8793,-0.0001228656,13.1895,0
0.8802,-7.687495E-05,13.203,0,0.8802,-9.298848E-05,13.203,0
0.8811,-0.0001299153,13.2165,0,0.8811,-0.0001507286,13.2165,0
0.882,3.356985E-07,13.23,0,0.882,-0.0002269322,13.23,0
0.8829,9.567407E-05,13.2435,0,0.8829,6.378271E-06,13.2435,0
0.8838,7.553216E-05,13.257,0,0.8838,0.0002326391,13.257,0
0.8847,9.332418E-05,13.2705,0,0.8847,0.0001013809,13.2705,0
0.8856,0.0001198444,13.284,0,0.8856,9.063859E-06,13.284,0
0.8865,-4.028382E-06,13.2975,0,0.8865,6.378271E-06,13.2975,0
0.8874,-2.618448E-05,13.311,0,0.8874,4.901198E-05,13.311,0
0.8883,-0.0001161517,13.3245,0,0.8883,6.948959E-05,13.3245,0
0.8892,-0.0002299535,13.338,0,0.8892,9.433127E-05,13.338,0
0.8901,-0.0002326391,13.3515,0,0.8901,0.0001930266,13.3515,0
0.891,-0.0001084306,13.365,0,0.891,3.054856E-05,13.365,0
0.8919,-8.627451E-05,13.3785,0,0.8919,-5.471885E-05,13.3785,0
0.8928,-3.994812E-05,13.392,0,0.8928,-6.848249E-05,13.392,0
0.8937,2.517739E-05,13.4055,0,0.8937,-4.733349E-05,13.4055,0
0.8946,3.189136E-05,13.419,0,0.8946,-0.0001221943,13.419,0
0.8955,0.0001151446,13.4325,0,0.8955,-0.0002202182,13.4325,0
0.8964,0.0001164874,13.446,0,0.8964,-0.0001883268,13.446,0
0.8973,-2.819867E-05,13.4595,0,0.8973,-0.0001748989,13.4595,0
0.8982,4.53193E-05,13.473,0,0.8982,-0.0002534524,13.473,0
0.8991,0.0003393912,13.4865,0,0.8991,2.014191E-06,13.4865,0
0.9,0.0003105211,13.5,0,0.9,0.000288365,13.5,0
0.9009,6.143282E-05,13.5135,0,0.9009,-2.551309E-05,13.5135,0
0.9018,-5.706874E-05,13.527,0,0.9018,-0.0002521096,13.527,0
0.9027,3.390555E-05,13.5405,0,0.9027,-6.176852E-05,13.5405,0
0.9036,7.821774E-05,13.554,0,0.9036,-7.150377E-05,13.554,0
0.9045,6.176852E-05,13.5675,0,0.9045,0.0001027237,13.5675,0
0.9054,5.539025E-05,13.581,0,0.9054,0.0004679637,13.581,0
0.9063,7.284657E-05,13.5945,0,0.9063,0.0005481956,13.5945,0
0.9072,3.457694E-05,13.608,0,0.9072,0.0003098497,13.608,0
0.9081,6.277562E-05,13.6215,0,0.9081,0.0001671778,13.6215,0
0.909,-3.692683E-06,13.635,0,0.909,2.1149E-05,13.635,0
0.9099,3.356985E-07,13.6485,0,0.9099,-5.606165E-05,13.6485,0
0.9108,-6.378271E-06,13.662,0,0.9108,-7.150377E-05,13.662,0
0.9117,2.18204E-05,13.6755,0,0.9117,-8.090334E-05,13.6755,0
0.9126,2.484169E-05,13.689,0,0.9126,-0.0001769131,13.689,0
0.9135,-9.164568E-05,13.7025,0,0.9135,-0.000218204,13.7025,0
0.9144,-0.0001644923,13.716,0,0.9144,-0.0001742275,13.716,0
0.9153,-4.699779E-05,13.7295,0,0.9153,-0.0001688563,13.7295,0
0.9162,2.819867E-05,13.743,0,0.9162,-0.0002101472,13.743,0
0.9171,-1.678492E-06,13.7565,0,0.9171,-0.0003662471,13.7565,0
0.918,-0.0001812772,13.77,0,0.918,-0.0003182421,13.77,0
0.9189,-1.980621E-05,13.7835,0,0.9189,-0.0001574426,13.7835,0
0.9198,0.0002762798,13.797,0,0.9198,-0.0001141375,13.797,0
0.9207,0.0001087663,13.8105,0,0.9207,6.009003E-05,13.8105,0
0.9216,-0.000154757,13.824,0,0.9216,0.000126894,13.824,0
0.9225,-0.0001010452,13.8375,0,0.9225,2.417029E-05,13.8375,0
0.9234,3.591974E-05,13.851,0,0.9234,-3.256275E-05,13.851,0
0.9243,7.083238E-05,13.8645,0,0.9243,0.0001111162,13.8645,0
0.9252,1.208515E-05,13.878,0,0.9252,6.143282E-05,13.878,0
0.9261,-6.210422E-05,13.8915,0,0.9261,-1.712062E-05,13.8915,0
0.927,-0.0001319295,13.905,0,0.927,4.699779E-06,13.905,0
0.9279,-3.793393E-05,13.9185,0,0.9279,-5.136187E-05,13.9185,0
0.9288,5.169757E-05,13.932,0,0.9288,-5.035477E-05,13.932,0
0.9297,-9.567407E-05,13.9455,0,0.9297,-4.129091E-05,13.9455,0
0.9306,-9.600977E-05,13.959,0,0.9306,-1.947051E-05,13.959,0
0.9315,-3.591974E-05,13.9725,0,0.9315,1.678492E-05,13.9725,0
0.9324,-4.565499E-05,13.986,0,0.9324,-3.659113E-05,13.986,0
0.9333,-3.524834E-05,13.9995,0,0.9333,-0.0001144732,13.9995,0
0.9342,1.779202E-05,14.013,0,0.9342,-8.86244E-05,14.013,0
0.9351,5.874724E-05,14.0265,0,0.9351,-8.96315E-05,14.0265,0
0.936,5.539025E-05,14.04,0,0.936,-0.0001107805,14.04,0
0.9369,5.001907E-05,14.0535,0,0.9369,-8.795301E-05,14.0535,0
0.9378,-7.821774E-05,14.067,0,0.9378,-7.150377E-05,14.067,0
0.9387,1.007095E-06,14.0805,0,0.9387,2.719158E-05,14.0805,0
0.9396001,0.0001658351,14.094,0,0.9396001,0.0001030594,14.094,0
0.9405,0.0001467002,14.1075,0,0.9405,0.0002682231,14.1075,0
0.9414001,1.107805E-05,14.121,0,0.9414001,0.0001305867,14.121,0
0.9423,1.309224E-05,14.1345,0,0.9423,-0.0002151827,14.1345,0
0.9432001,3.289845E-05,14.148,0,0.9432001,-0.0004958267,14.148,0
0.9441,-2.450599E-05,14.1615,0,0.9441,-0.0004703136,14.1615,0
0.9450001,2.786297E-05,14.175,0,0.9450001,-0.0005710231,14.175,0
0.9459,9.634547E-05,14.1885,0,0.9459,-0.0004411078,14.1885,0
0.9468,0.0001097734,14.202,0,0.9468,0.0001883268,14.202,0
0.9477,8.426032E-05,14.2155,0,0.9477,0.0008603952,14.2155,0
0.9486,4.36408E-05,14.229,0,0.9486,0.0008546883,14.229,0
0.9495,4.800488E-05,14.2425,0,0.9495,0.0005656519,14.2425,0
0.9504,-1.712062E-05,14.256,0,0.9504,0.0004199588,14.256,0
0.9513,-9.835965E-05,14.2695,0,0.9513,0.0001238727,14.2695,0
0.9522,-5.236896E-05,14.283,0,0.9522,-0.0001510643,14.283,0
0.9531,1.007095E-06,14.2965,0,0.9531,-0.0002312963,14.2965,0
0.954,-5.941863E-05,14.31,0,0.954,-0.0002178683,14.31,0
0.9549,1.678492E-06,14.3235,0,0.9549,-0.0002665446,14.3235,0
0.9558,2.987716E-05,14.337,0,0.9558,-0.0001473716,14.337,0
0.9567,-9.970245E-05,14.3505,0,0.9567,7.083238E-05,14.3505,0
0.9576,-0.0001681849,14.364,0,0.9576,-4.53193E-05,14.364,0
0.9585,-2.21561E-05,14.3775,0,0.9585,-1.510643E-05,14.3775,0
0.9594,-1.712062E-05,14.391,0,0.9594,0.0001564355,14.391,0
0.9603,-8.72816E-05,14.4045,0,0.9603,0.0004061952,14.4045,0
0.9612,-0.0002088045,14.418,0,0.9612,0.0004441291,14.418,0
0.9621,-0.0003024643,14.4315,0,0.9621,0.0002970932,14.4315,0
0.963,-0.0001722133,14.445,0,0.963,0.0001178302,14.445,0
0.9639,-3.524834E-05,14.4585,0,0.9639,3.189136E-05,14.4585,0
0.9648,-6.378271E-05,14.472,0,0.9648,8.728161E-06,14.472,0
0.9657,3.256275E-05,14.4855,0,0.9657,-2.719158E-05,14.4855,0
0.9666,0.0001554284,14.499,0,0.9666,-7.989624E-05,14.499,0
0.9675,0.0001097734,14.5125,0,0.9675,-0.0001346151,14.5125,0
0.9684,0.0001299153,14.526,0,0.9684,-0.0001618067,14.526,0
0.9693,0.000161471,14.5395,0,0.9693,-0.000185977,14.5395,0
0.9702,0.0002490883,14.553,0,0.9702,-0.0001769131,14.553,0
0.9711,0.0002477455,14.5665,0,0.9711,-0.0001453574,14.5665,0
0.972,0.0001769131,14.58,0,0.972,-0.0001070878,14.58,0
0.9729,7.721065E-06,14.5935,0,0.9729,-9.533837E-05,14.5935,0
0.9738,2.18204E-05,14.607,0,0.9738,-0.0001524071,14.607,0
0.9747,-5.001907E-05,14.6205,0,0.9747,-0.0002124971,14.6205,0
0.9756,-0.0001816129,14.634,0,0.9756,-0.0002034333,14.634,0
0.9765,-0.0002846723,14.6475,0,0.9765,-0.0002259251,14.6475,0
0.9774,-0.0002383459,14.661,0,0.9774,-0.0002188754,14.661,0
0.9783,-0.0002789654,14.6745,0,0.9783,-0.0001144732,14.6745,0
0.9792,-0.0002944076,14.688,0,0.9792,-9.130999E-05,14.688,0
0.9801,-4.867628E-05,14.7015,0,0.9801,-0.0001238727,14.7015,0
0.981,0.0001010452,14.715,0,0.981,-9.936675E-05,14.715,0
0.9819,0.000148043,14.7285,0,0.9819,-0.0001030594,14.7285,0
0.9828,0.0001339437,14.742,0,0.9828,-0.0001339437,14.742,0
0.9837,5.035477E-06,14.7555,0,0.9837,-0.0001238727,14.7555,0
0.9846,-0.0001117876,14.769,0,0.9846,-8.761731E-05,14.769,0
0.9855,-2.584878E-05,14.7825,0,0.9855,-9.433127E-05,14.7825,0
0.9864,6.378271E-06,14.796,0,0.9864,-8.090334E-05,14.796,0
0.9873,5.371176E-06,14.8095,0,0.9873,-0.0001027237,14.8095,0
0.9882,-4.632639E-05,14.823,0,0.9882,-7.016098E-05,14.823,0
0.9891,-6.311131E-05,14.8365,0,0.9891,-5.069047E-05,14.8365,0
0.99,9.198138E-05,14.85,0,0.99,-7.486076E-05,14.85,0
0.9909,4.263371E-05,14.8635,0,0.9909,-0.0001060807,14.8635,0
0.9918,-2.18204E-05,14.877,0,0.9918,-5.136187E-05,14.877,0
0.9927,6.009003E-05,14.8905,0,0.9927,8.728161E-06,14.8905,0
0.9936,0.0001050736,14.904,0,0.9936,-3.390555E-05,14.904,0
0.9945,1.443504E-05,14.9175,0,0.9945,2.349889E-06,14.9175,0
0.9954,5.438316E-05,14.931,0,0.9954,4.129091E-05,14.931,0
0.9963,8.023193E-05,14.9445,0,0.9963,-1.107805E-05,14.9445,0
0.9972,1.309224E-05,14.958,0,0.9972,-2.584878E-05,14.958,0
0.9981,-1.376364E-05,14.9715,0,0.9981,5.572595E-05,14.9715,0
0.999,1.443504E-05,14.985,0,0.999,3.424125E-05,14.985,0
0.9999,-1.107805E-05,14.9985,0,0.9999,0.0001151446,14.9985,0
1.0008,8.392462E-06,15.012,0,1.0008,0.0002225681,15.012,0
1.0017,-3.390555E-05,15.0255,0,1.0017,0.000224918,15.0255,0
1.0026,-3.390555E-05,15.039,0,1.0026,0.0002165255,15.039,0
1.0035,6.210422E-05,15.0525,0,1.0035,0.0001245441,15.0525,0
1.0044,9.835965E-05,15.066,0,1.0044,6.61326E-05,15.066,0
1.0053,-1.846342E-05,15.0795,0,1.0053,6.713969E-07,15.0795,0
1.0062,3.021286E-05,15.093,0,1.0062,4.632639E-05,15.093,0
1.0071,0.0001097734,15.1065,0,1.0071,5.807584E-05,15.1065,0
1.008,7.385367E-06,15.12,0,1.008,0.0001587854,15.12,0
1.0089,2.484169E-05,15.1335,0,1.0089,0.0003595331,15.1335,0
1.0098,6.54612E-05,15.147,0,1.0098,0.0002970932,15.147,0
1.0107,-1.107805E-05,15.1605,0,1.0107,0.0001651637,15.1605,0
1.0116,-9.701686E-05,15.174,0,1.0116,3.189136E-05,15.174,0
1.0125,-6.982528E-05,15.1875,0,1.0125,-3.424125E-05,15.1875,0
1.0134,-2.316319E-05,15.201,0,1.0134,-8.157473E-05,15.201,0
1.0143,3.692683E-06,15.2145,0,1.0143,-0.000140322,15.2145,0
1.0152,-2.18204E-05,15.228,0,1.0152,-5.706874E-05,15.228,0
1.0161,-5.069047E-05,15.2415,0,1.0161,0.000112459,15.2415,0
1.017,-5.706874E-05,15.255,0,1.017,0.0002386816,15.255,0
1.0179,7.049668E-06,15.2685,0,1.0179,0.0001789273,15.2685,0
1.0188,1.913481E-05,15.282,0,1.0188,4.028382E-05,15.282,0
1.0197,2.349889E-06,15.2955,0,1.0197,-0.0001097734,15.2955,0
1.0206,0.0001033951,15.309,0,1.0206,-0.0001842985,15.309,0
1.0215,6.713969E-07,15.3225,0,1.0215,-0.000193698,15.3225,0
1.0224,-2.24918E-05,15.336,0,1.0224,-0.0001607996,15.336,0
1.0233,0.0001178302,15.3495,0,1.0233,-0.0001087663,15.3495,0
1.0242,0.0001426719,15.363,0,1.0242,0.0001326009,15.363,0
1.0251,-0.0001373007,15.3765,0,1.0251,-8.627451E-05,15.3765,0
1.026,-0.0002484169,15.39,0,1.026,-0.0003877317,15.39,0
1.0269,-0.0001977264,15.4035,0,1.0269,-0.0003105211,15.4035,0
1.0278,-0.0001681849,15.417,0,1.0278,-0.0002326391,15.417,0
1.0287,-0.0002302892,15.4305,0,1.0287,-0.0001362936,15.4305,0
1.0296,-0.0002044404,15.444,0,1.0296,-8.459602E-05,15.444,0
1.0305,-3.625543E-05,15.4575,0,1.0305,1.242084E-05,15.4575,0
1.0314,0.0001104448,15.471,0,1.0314,1.409934E-05,15.471,0
1.0323,0.0001715419,15.4845,0,1.0323,-3.591974E-05,15.4845,0
1.0332,0.000190341,15.498,0,1.0332,-7.116808E-05,15.498,0
1.0341,0.0002306248,15.5115,0,1.0341,-6.78111E-05,15.5115,0
1.035,-3.558404E-05,15.525,0,1.035,-3.189136E-05,15.525,0
1.0359,-0.0002212253,15.5385,0,1.0359,-2.887007E-05,15.5385,0
1.0368,-0.000263859,15.552,0,1.0368,-6.982528E-05,15.552,0
1.0377,-0.000193698,15.5655,0,1.0377,-4.968337E-05,15.5655,0
1.0386,-2.887007E-05,15.579,0,1.0386,-5.035477E-05,15.579,0
1.0395,7.486076E-05,15.5925,0,1.0395,-0.0001070878,15.5925,0
1.0404,1.007095E-06,15.606,0,1.0404,-0.0001399863,15.606,0
1.0413,3.961242E-05,15.6195,0,1.0413,-0.0001292439,15.6195,0
1.0422,-2.987716E-05,15.633,0,1.0422,-0.000102388,15.633,0
1.0431,-0.0001349508,15.6465,0,1.0431,-7.150377E-05,15.6465,0
1.044,3.256275E-05,15.66,0,1.044,-1.678492E-06,15.66,0
1.0449,0.0001554284,15.6735,0,1.0449,5.337606E-05,15.6735,0
1.0458,0.0001010452,15.687,0,1.0458,7.016098E-05,15.687,0
1.0467,2.24918E-05,15.7005,0,1.0467,1.846342E-05,15.7005,0
1.0476,2.819867E-05,15.714,0,1.0476,-7.049668E-06,15.714,0
1.0485,-0.0001131304,15.7275,0,1.0485,5.270466E-05,15.7275,0
1.0494,-0.000186984,15.741,0,1.0494,0.0001366293,15.741,0
1.0503,-0.0001000381,15.7545,0,1.0503,0.0001822843,15.7545,0
1.0512,-0.0001520714,15.768,0,1.0512,0.0001151446,15.768,0
1.0521,-0.0002084688,15.7815,0,1.0521,5.673304E-05,15.7815,0
1.053,-0.000130251,15.795,0,1.053,2.1149E-05,15.795,0
1.0539,-7.553216E-05,15.8085,0,1.0539,-1.141375E-05,15.8085,0
1.0548,-5.304036E-05,15.822,0,1.0548,-4.632639E-05,15.822,0
1.0557,2.1149E-05,15.8355,0,1.0557,-1.947051E-05,15.8355,0
1.0566,7.653925E-05,15.849,0,1.0566,-2.719158E-05,15.849,0
1.0575,5.438316E-05,15.8625,0,1.0575,-5.270466E-05,15.8625,0
1.0584,1.443504E-05,15.876,0,1.0584,-7.284657E-05,15.876,0
1.0593,-5.606165E-05,15.8895,0,1.0593,-7.721065E-05,15.8895,0
1.0602,-4.867628E-05,15.903,0,1.0602,-0.0001080949,15.903,0
1.0611,2.517739E-05,15.9165,0,1.0611,-0.0001322652,15.9165,0
1.062,-7.049668E-05,15.93,0,1.062,-0.0001010452,15.93,0
1.0629,-5.102617E-05,15.9435,0,1.0629,-0.0001379721,15.9435,0
1.0638,-2.819867E-05,15.957,0,1.0638,-0.0002118257,15.957,0
1.0647,-2.652018E-05,15.9705,0,1.0647,-0.0001765774,15.9705,0
1.0656,3.726253E-05,15.984,0,1.0656,-0.000112459,15.984,0
1.0665,5.539025E-05,15.9975,0,1.0665,-3.927672E-05,15.9975,0
1.0674,7.486076E-05,16.011,0,1.0674,4.263371E-05,16.011,0
1.0683,0.0001121233,16.0245,0,1.0683,3.826963E-05,16.0245,0
1.0692,7.553216E-05,16.038,0,1.0692,1.846342E-05,16.038,0
1.0701,4.599069E-05,16.0515,0,1.0701,-2.719158E-05,16.0515,0
1.071,8.426032E-05,16.065,0,1.071,-2.047761E-05,16.065,0
1.0719,0.0001651637,16.0785,0,1.0719,5.539025E-05,16.0785,0
1.0728,0.0001117876,16.092,0,1.0728,7.989624E-05,16.092,0
1.0737,0.0001178302,16.1055,0,1.0737,4.46479E-05,16.1055,0
1.0746,0.0001923552,16.119,0,1.0746,9.097429E-05,16.119,0
1.0755,0.0001097734,16.1325,0,1.0755,7.150377E-05,16.1325,0
1.0764,0.000161471,16.146,0,1.0764,3.894102E-05,16.146,0
1.0773,0.0001661708,16.1595,0,1.0773,7.821774E-05,16.1595,0
1.0782,5.706874E-05,16.173,0,1.0782,0.0001537499,16.173,0
1.0791,7.452507E-05,16.1865,0,1.0791,0.0002131685,16.1865,0
1.08,0.0001107805,16.2,0,1.08,0.0002306248,16.2,0
1.0809,6.277562E-05,16.2135,0,1.0809,0.0002027619,16.2135,0
1.0818,8.761731E-05,16.227,0,1.0818,8.69459E-05,16.227,0
1.0827,2.920577E-05,16.2405,0,1.0827,7.754635E-05,16.2405,0
1.0836,2.786297E-05,16.254,0,1.0836,4.229801E-05,16.254,0
1.0845,7.049668E-06,16.2675,0,1.0845,-4.43122E-05,16.2675,0
1.0854,3.390555E-05,16.281,0,1.0854,-9.198138E-05,16.281,0
1.0863,-3.457694E-05,16.2945,0,1.0863,-6.51255E-05,16.2945,0
1.0872,-3.726253E-05,16.308,0,1.0872,-9.198138E-05,16.308,0
1.0881,1.846342E-05,16.3215,0,1.0881,-0.0001188373,16.3215,0
1.089,-5.001907E-05,16.335,0,1.089,-6.74754E-05,16.335,0
1.0899,-3.994812E-05,16.3485,0,1.0899,-8.426032E-05,16.3485,0
1.0908,-4.36408E-06,16.362,0,1.0908,-0.0001524071,16.362,0
1.0917,-7.687495E-05,16.3755,0,1.0917,-0.0001393149,16.3755,0
1.0926,-0.0001668421,16.389,0,1.0926,-0.0001161517,16.389,0
1.0935,-0.0001084306,16.4025,0,1.0935,-0.0001185016,16.4025,0
1.0944,-6.74754E-05,16.416,0,1.0944,-7.553216E-05,16.416,0
1.0953,-8.023193E-05,16.4295,0,1.0953,-6.478981E-05,16.4295,0
1.0962,-9.903105E-05,16.443,0,1.0962,-4.934768E-05,16.443,0
1.0971,-4.800488E-05,16.4565,0,1.0971,-5.975433E-05,16.4565,0
1.098,-4.934768E-05,16.47,0,1.098,-6.61326E-05,16.47,0
1.0989,-9.500267E-05,16.4835,0,1.0989,-7.150377E-05,16.4835,0
1.0998,-0.0001279011,16.497,0,1.0998,-2.081331E-05,16.497,0
1.1007,-5.270466E-05,16.5105,0,1.1007,-1.107805E-05,16.5105,0
1.1016,-2.417029E-05,16.524,0,1.1016,-6.378271E-05,16.524,0
1.1025,-8.426032E-05,16.5375,0,1.1025,-3.323415E-05,16.5375,0
1.1034,-0.0001211871,16.551,0,1.1034,-4.229801E-05,16.551,0
1.1043,-7.553216E-05,16.5645,0,1.1043,-9.500267E-05,16.5645,0
1.1052,-5.572595E-05,16.578,0,1.1052,-9.735256E-05,16.578,0
1.1061,-0.0001084306,16.5915,0,1.1061,-3.189136E-05,16.5915,0
1.107,5.035477E-06,16.605,0,1.107,-3.054856E-05,16.605,0
1.1079,5.001907E-05,16.6185,0,1.1079,6.713969E-07,16.6185,0
1.1088,0.0001215228,16.632,0,1.1088,3.390555E-05,16.632,0
1.1097,0.000105745,16.6455,0,1.1097,8.358892E-05,16.6455,0
1.1106,-4.36408E-06,16.659,0,1.1106,7.150377E-05,16.659,0
1.1115,4.33051E-05,16.6725,0,1.1115,-3.021286E-06,16.6725,0
1.1124,3.356985E-05,16.686,0,1.1124,-2.517739E-05,16.686,0
1.1133,-8.090334E-05,16.6995,0,1.1133,1.577783E-05,16.6995,0
1.1142,-6.61326E-05,16.713,0,1.1142,-2.417029E-05,16.713,0
1.1151,-3.994812E-05,16.7265,0,1.1151,-6.6804E-05,16.7265,0
1.116,-0.0001812772,16.74,0,1.116,-1.779202E-05,16.74,0
1.1169,-0.0001688563,16.7535,0,1.1169,1.040665E-05,16.7535,0
1.1178,-0.0001524071,16.767,0,1.1178,-3.692683E-06,16.767,0
1.1187,-0.0001121233,16.7805,0,1.1187,7.721065E-06,16.7805,0
1.1196,-0.0001242084,16.794,0,1.1196,2.618448E-05,16.794,0
1.1205,5.035477E-06,16.8075,0,1.1205,-1.443504E-05,16.8075,0
1.1214,0.0001097734,16.821,0,1.1214,-5.740444E-05,16.821,0
1.1223,0.0001564355,16.8345,0,1.1223,-7.620356E-05,16.8345,0
1.1232,0.0001346151,16.848,0,1.1232,-6.378271E-05,16.848,0
1.1241,5.941863E-05,16.8615,0,1.1241,-2.685588E-05,16.8615,0
1.125,-7.284657E-05,16.875,0,1.125,8.728161E-06,16.875,0
1.1259,-0.0001265583,16.8885,0,1.1259,3.323415E-05,16.8885,0
1.1268,-0.0001245441,16.902,0,1.1268,6.210422E-05,16.902,0
1.1277,-0.0001668421,16.9155,0,1.1277,5.706874E-05,16.9155,0
1.1286,-0.000126894,16.929,0,1.1286,5.572595E-05,16.929,0
1.1295,-0.0001950408,16.9425,0,1.1295,6.54612E-05,16.9425,0
1.1304,-0.000256138,16.956,0,1.1304,3.625543E-05,16.956,0
1.1313,-0.0001534142,16.9695,0,1.1313,-4.028382E-06,16.9695,0
1.1322,-4.800488E-05,16.983,0,1.1322,-2.719158E-05,16.983,0
1.1331,-9.298848E-05,16.9965,0,1.1331,-2.719158E-05,16.9965,0
1.134,-5.001907E-05,17.01,0,1.134,-2.819867E-05,17.01,0
1.1349,1.107805E-05,17.0235,0,1.1349,6.713969E-07,17.0235,0
1.1358,9.835965E-05,17.037,0,1.1358,3.524834E-05,17.037,0
1.1367,3.726253E-05,17.0505,0,1.1367,2.752728E-05,17.0505,0
1.1376,-2.081331E-05,17.064,0,1.1376,6.042573E-06,17.064,0
1.1385,5.438316E-05,17.0775,0,1.1385,7.049668E-06,17.0775,0
1.1394,8.96315E-05,17.091,0,1.1394,-1.678492E-06,17.091,0
1.1403,3.356985E-05,17.1045,0,1.1403,6.378271E-06,17.1045,0
1.1412,7.956054E-05,17.118,0,1.1412,-2.719158E-05,17.118,0
1.1421,0.0001265583,17.1315,0,1.1421,-5.941863E-05,17.1315,0
1.143,3.121996E-05,17.145,0,1.143,-3.189136E-05,17.145,0
1.1439,8.560311E-05,17.1585,0,1.1439,-6.51255E-05,17.1585,0
1.1448,0.0001373007,17.172,0,1.1448,-8.191043E-05,17.172,0
1.1457,7.217517E-05,17.1855,0,1.1457,-4.028382E-05,17.1855,0
1.1466,3.457694E-05,17.199,0,1.1466,-3.558404E-05,17.199,0
1.1475,6.411841E-05,17.2125,0,1.1475,-9.365987E-05,17.2125,0
1.1484,8.493171E-05,17.226,0,1.1484,-9.164568E-05,17.226,0
1.1493,0.0001836271,17.2395,0,1.1493,-8.157473E-05,17.2395,0
1.1502,0.0001500572,17.253,0,1.1502,-7.217517E-05,17.253,0
1.1511,5.337606E-05,17.2665,0,1.1511,-5.908293E-05,17.2665,0
1.152,0.0001117876,17.28,0,1.152,-4.666209E-05,17.28,0
1.1529,0.0001675135,17.2935,0,1.1529,-4.666209E-05,17.2935,0
1.1538,0.0001003738,17.307,0,1.1538,1.040665E-05,17.307,0
1.1547,5.471885E-05,17.3205,0,1.1547,1.376364E-05,17.3205,0
1.1556,9.365987E-05,17.334,0,1.1556,-4.263371E-05,17.334,0
1.1565,6.378271E-06,17.3475,0,1.1565,-1.242084E-05,17.3475,0
1.1574,4.666209E-05,17.361,0,1.1574,3.189136E-05,17.361,0
1.1583,0.0001134661,17.3745,0,1.1583,-1.007095E-06,17.3745,0
1.1592,-3.054856E-05,17.388,0,1.1592,-7.385367E-06,17.388,0
1.1601,-1.510643E-05,17.4015,0,1.1601,1.040665E-05,17.4015,0
1.161,5.874724E-05,17.415,0,1.161,-2.853437E-05,17.415,0
1.1619,3.121996E-05,17.4285,0,1.1619,-4.39765E-05,17.4285,0
1.1628,3.323415E-05,17.442,0,1.1628,-5.941863E-05,17.442,0
1.1637,3.289845E-05,17.4555,0,1.1637,-3.726253E-05,17.4555,0
1.1646,7.452507E-05,17.469,0,1.1646,-2.014191E-05,17.469,0
1.1655,2.920577E-05,17.4825,0,1.1655,-4.867628E-05,17.4825,0
1.1664,4.196231E-05,17.496,0,1.1664,-6.915389E-05,17.496,0
1.1673,4.43122E-05,17.5095,0,1.1673,-3.927672E-05,17.5095,0
1.1682,4.129091E-05,17.523,0,1.1682,-4.666209E-05,17.523,0
1.1691,5.774014E-05,17.5365,0,1.1691,-8.291753E-05,17.5365,0
1.17,-9.399558E-06,17.55,0,1.17,-4.061952E-05,17.55,0
1.1709,-6.243992E-05,17.5635,0,1.1709,-3.121996E-05,17.5635,0
1.1718,-8.92958E-05,17.577,0,1.1718,-4.33051E-05,17.577,0
1.1727,-0.0001436789,17.5905,0,1.1727,-7.385367E-06,17.5905,0
1.1736,-0.0001900053,17.604,0,1.1736,-1.174945E-05,17.604,0
1.1745,-0.0001373007,17.6175,0,1.1745,-3.424125E-05,17.6175,0
1.1754,-0.0001171588,17.631,0,1.1754,-4.229801E-05,17.631,0
1.1763,-5.975433E-05,17.6445,0,1.1763,-6.64683E-05,17.6445,0
1.1772,-0.0001185016,17.658,0,1.1772,-6.478981E-05,17.658,0
1.1781,-2.887007E-05,17.6715,0,1.1781,-2.652018E-05,17.6715,0
1.179,0.0001889983,17.685,0,1.179,-4.565499E-05,17.685,0
1.1799,0.0002829938,17.6985,0,1.1799,-4.599069E-05,17.6985,0
1.1808,0.0002628519,17.712,0,1.1808,-9.735256E-06,17.712,0
1.1817,0.0002259251,17.7255,0,1.1817,-2.1149E-05,17.7255,0
1.1826,7.956054E-05,17.739,0,1.1826,-5.471885E-05,17.739,0
1.1835,-0.000154757,17.7525,0,1.1835,9.735256E-06,17.7525,0
1.1844,-0.0002521096,17.766,0,1.1844,3.256275E-05,17.766,0
1.1853,-0.000340734,17.7795,0,1.1853,-3.356985E-07,17.7795,0
1.1862,-0.0003313344,17.793,0,1.1862,2.081331E-05,17.793,0
1.1871,-0.0003420768,17.8065,0,1.1871,3.054856E-05,17.8065,0
1.188,-0.0002531167,17.82,0,1.188,1.510643E-05,17.82,0
1.1889,-0.0001658351,17.8335,0,1.1889,7.385367E-06,17.8335,0
1.1898,-3.894102E-05,17.847,0,1.1898,-1.913481E-05,17.847,0
1.1907,7.721065E-06,17.8605,0,1.1907,-1.309224E-05,17.8605,0
1.1916,-5.035477E-06,17.874,0,1.1916,-1.510643E-05,17.874,0
1.1925,5.975433E-05,17.8875,0,1.1925,-3.189136E-05,17.8875,0
1.1934,0.000161471,17.901,0,1.1934,-2.14847E-05,17.901,0
1.1943,0.0001346151,17.9145,0,1.1943,2.1149E-05,17.9145,0
1.1952,0.0001675135,17.928,0,1.1952,4.599069E-05,17.928,0
1.1961,0.0002158541,17.9415,0,1.1961,2.517739E-05,17.9415,0
1.197,9.768826E-05,17.955,0,1.197,6.445411E-05,17.955,0
1.1979,3.793393E-05,17.9685,0,1.1979,2.618448E-05,17.9685,0
1.1988,5.639734E-05,17.982,0,1.1988,-4.129091E-05,17.982,0
1.1997,1.577783E-05,17.9955,0,1.1997,-1.342794E-06,17.9955,0
1.2006,-3.591974E-05,18.009,0,1.2006,-3.692683E-06,18.009,0
1.2015,-3.189136E-05,18.0225,0,1.2015,-1.275654E-05,18.0225,0
1.2024,3.994812E-05,18.036,0,1.2024,4.36408E-06,18.036,0
1.2033,5.069047E-05,18.0495,0,1.2033,6.478981E-05,18.0495,0
1.2042,4.867628E-05,18.063,0,1.2042,7.888914E-05,18.063,0
1.2051,1.309224E-05,18.0765,0,1.2051,2.24918E-05,18.0765,0
1.206,-4.028382E-05,18.09,0,1.206,3.356985E-06,18.09,0
1.2069,7.721065E-06,18.1035,0,1.2069,1.644922E-05,18.1035,0
1.2078,1.812772E-05,18.117,0,1.2078,3.692683E-05,18.117,0
1.2087,1.812772E-05,18.1305,0,1.2087,-2.853437E-05,18.1305,0
1.2096,3.994812E-05,18.144,0,1.2096,-0.0001077592,18.144,0
1.2105,-2.987716E-05,18.1575,0,1.2105,-6.57969E-05,18.1575,0
1.2114,-2.450599E-05,18.171,0,1.2114,-3.256275E-05,18.171,0
1.2123,-4.699779E-06,18.1845,0,1.2123,-5.136187E-05,18.1845,0
1.2132,-2.014191E-06,18.198,0,1.2132,-6.344701E-05,18.198,0
1.2141,-6.51255E-05,18.2115,0,1.2141,-2.786297E-05,18.2115,0
1.215,-9.231708E-05,18.225,0,1.215,-2.584878E-05,18.225,0
1.2159,-0.0001117876,18.2385,0,1.2159,9.735256E-06,18.2385,0
1.2168,-0.000102388,18.252,0,1.2168,3.726253E-05,18.252,0
1.2177,-0.0001054093,18.2655,0,1.2177,0.0001151446,18.2655,0
1.2186,-0.0001326009,18.279,0,1.2186,0.000102388,18.279,0
1.2195,-5.606165E-05,18.2925,0,1.2195,2.28275E-05,18.2925,0
1.2204,-6.848249E-05,18.306,0,1.2204,-3.591974E-05,18.306,0
1.2213,-0.0001030594,18.3195,0,1.2213,-2.417029E-05,18.3195,0
1.2222,-1.846342E-05,18.333,0,1.2222,-3.793393E-05,18.333,0
1.2231,2.618448E-05,18.3465,0,1.2231,-2.18204E-05,18.3465,0
1.224,-5.807584E-05,18.36,0,1.224,2.920577E-05,18.36,0
1.2249,-6.61326E-05,18.3735,0,1.2249,2.853437E-05,18.3735,0
1.2258,1.040665E-05,18.387,0,1.2258,-8.392462E-06,18.387,0
1.2267,6.210422E-05,18.4005,0,1.2267,-3.793393E-05,18.4005,0
1.2276,-4.666209E-05,18.414,0,1.2276,-1.913481E-05,18.414,0
1.2285,-1.644922E-05,18.4275,0,1.2285,-2.786297E-05,18.4275,0
1.2294,-1.745632E-05,18.441,0,1.2294,-2.584878E-05,18.441,0
1.2303,1.141375E-05,18.4545,0,1.2303,-5.673304E-05,18.4545,0
1.2312,3.356985E-07,18.468,0,1.2312,-2.954147E-05,18.468,0
1.2321,-0.0001661708,18.4815,0,1.2321,-5.740444E-05,18.4815,0
1.233,-0.0001252155,18.495,0,1.233,-0.0001279011,18.495,0
1.2339,-1.678492E-06,18.5085,0,1.2339,-0.0001453574,18.5085,0
1.2348,-8.157473E-05,18.522,0,1.2348,-0.0001211871,18.522,0
1.2357,-6.210422E-05,18.5355,0,1.2357,-0.0001245441,18.5355,0
1.2366,2.383459E-05,18.549,0,1.2366,-0.0001409934,18.549,0
1.2375,-1.745632E-05,18.5625,0,1.2375,-7.318227E-05,18.5625,0
1.2384,-4.46479E-05,18.576,0,1.2384,-6.143282E-05,18.576,0
1.2393,7.385367E-06,18.5895,0,1.2393,-8.89601E-05,18.5895,0
1.2402,1.443504E-05,18.603,0,1.2402,-3.625543E-05,18.603,0
1.2411,-6.378271E-05,18.6165,0,1.2411,-1.779202E-05,18.6165,0
1.242,-5.069047E-05,18.63,0,1.242,-2.584878E-05,18.63,0
1.2429,-3.256275E-05,18.6435,0,1.2429,-3.994812E-05,18.6435,0
1.2438,-9.063859E-06,18.657,0,1.2438,-4.599069E-05,18.657,0
1.2447,-3.961242E-05,18.6705,0,1.2447,-1.040665E-05,18.6705,0
1.2456,-5.203327E-05,18.684,0,1.2456,-1.577783E-05,18.684,0
1.2465,-1.577783E-05,18.6975,0,1.2465,-1.745632E-05,18.6975,0
1.2474,3.189136E-05,18.711,0,1.2474,-6.713969E-07,18.711,0
1.2483,-2.316319E-05,18.7245,0,1.2483,1.174945E-05,18.7245,0
1.2492,4.129091E-05,18.738,0,1.2492,-5.371176E-06,18.738,0
1.2501,3.659113E-05,18.7515,0,1.2501,-3.894102E-05,18.7515,0
1.251,-5.975433E-05,18.765,0,1.251,-1.107805E-05,18.765,0
1.2519,3.054856E-05,18.7785,0,1.2519,-2.18204E-05,18.7785,0
1.2528,8.560311E-05,18.792,0,1.2528,-5.874724E-05,18.792,0
1.2537,2.1149E-05,18.8055,0,1.2537,-2.786297E-05,18.8055,0
1.2546,4.36408E-06,18.819,0,1.2546,-1.309224E-05,18.819,0
1.2555,9.735256E-06,18.8325,0,1.2555,-2.819867E-05,18.8325,0
1.2564,1.007095E-06,18.846,0,1.2564,-2.819867E-05,18.846,0
1.2573,4.46479E-05,18.8595,0,1.2573,-2.719158E-05,18.8595,0
1.2582,-6.814679E-05,18.873,0,1.2582,-6.713969E-07,18.873,0
1.2591,-6.6804E-05,18.8865,0,1.2591,1.644922E-05,18.8865,0
1.26,2.1149E-05,18.9,0,1.26,7.721065E-06,18.9,0
1.2609,8.291753E-05,18.9135,0,1.2609,-9.063859E-06,18.9135,0
1.2618,3.726253E-05,18.927,0,1.2618,1.007095E-05,18.927,0
1.2627,4.162661E-05,18.9405,0,1.2627,-1.342794E-05,18.9405,0
1.2636,2.987716E-05,18.954,0,1.2636,-4.46479E-05,18.954,0
1.2645,-0.0001114519,18.9675,0,1.2645,-1.745632E-05,18.9675,0
1.2654,-0.0001279011,18.981,0,1.2654,7.385367E-06,18.981,0
1.2663,-2.752728E-05,18.9945,0,1.2663,-3.189136E-05,18.9945,0
1.2672,-6.915389E-05,19.008,0,1.2672,-1.242084E-05,19.008,0
1.2681,-8.258183E-05,19.0215,0,1.2681,3.021286E-06,19.0215,0
1.269,-1.846342E-05,19.035,0,1.269,-4.699779E-06,19.035,0
1.2699,0,19.0485,0,1.2699,-2.349889E-06,19.0485,0
1.2708,6.009003E-05,19.062,0,1.2708,6.378271E-06,19.062,0
1.2717,1.040665E-05,19.0755,0,1.2717,5.001907E-05,19.0755,0
1.2726,-3.591974E-05,19.089,0,1.2726,5.471885E-05,19.089,0
1.2735,-4.36408E-06,19.1025,0,1.2735,2.719158E-05,19.1025,0
1.2744,8.493171E-05,19.116,0,1.2744,1.577783E-05,19.116,0
1.2753,9.903105E-05,19.1295,0,1.2753,4.733349E-05,19.1295,0
1.2762,7.217517E-05,19.143,0,1.2762,5.471885E-05,19.143,0
1.2771,0.0001117876,19.1565,0,1.2771,5.337606E-05,19.1565,0
1.278,4.061952E-05,19.17,0,1.278,8.493171E-05,19.17,0
1.2789,5.807584E-05,19.1835,0,1.2789,5.236896E-05,19.1835,0
1.2798,0.0001151446,19.197,0,1.2798,3.390555E-05,19.197,0
1.2807,0.0001594568,19.2105,0,1.2807,9.332418E-05,19.2105,0
1.2816,7.016098E-05,19.224,0,1.2816,9.466698E-05,19.224,0
1.2825,8.392462E-05,19.2375,0,1.2825,3.625543E-05,19.2375,0
1.2834,8.291753E-05,19.251,0,1.2834,2.21561E-05,19.251,0
1.2843,9.869535E-05,19.2645,0,1.2843,-7.721065E-06,19.2645,0
1.2852,1.745632E-05,19.278,0,1.2852,4.699779E-06,19.278,0
1.2861,1.242084E-05,19.2915,0,1.2861,1.846342E-05,19.2915,0
1.287,6.64683E-05,19.305,0,1.287,-9.399558E-06,19.305,0
1.2879,3.021286E-05,19.3185,0,1.2879,-6.478981E-05,19.3185,0
1.2888,-6.243992E-05,19.332,0,1.2888,-4.53193E-05,19.332,0
1.2897,-5.471885E-05,19.3455,0,1.2897,-4.196231E-05,19.3455,0
1.2906,2.920577E-05,19.359,0,1.2906,-6.814679E-05,19.359,0
1.2915,-6.042573E-06,19.3725,0,1.2915,-4.33051E-05,19.3725,0
1.2924,-1.107805E-05,19.386,0,1.2924,-5.270466E-05,19.386,0
1.2933,-3.054856E-05,19.3995,0,1.2933,-7.586786E-05,19.3995,0
1.2942,-6.378271E-06,19.413,0,1.2942,-5.941863E-05,19.413,0
1.2951,-7.687495E-05,19.4265,0,1.2951,-5.136187E-05,19.4265,0
1.296,-2.517739E-05,19.44,0,1.296,-5.774014E-05,19.44,0
1.2969,-2.652018E-05,19.4535,0,1.2969,-4.632639E-05,19.4535,0
1.2978,-3.256275E-05,19.467,0,1.2978,-6.64683E-05,19.467,0
1.2987,-7.956054E-05,19.4805,0,1.2987,-5.404745E-05,19.4805,0
1.2996,-0.0001668421,19.494,0,1.2996,-6.881819E-05,19.494,0
1.3005,-8.123904E-05,19.5075,0,1.3005,-9.835965E-05,19.5075,0
1.3014,-2.1149E-05,19.521,0,1.3014,-0.000109102,19.521,0
1.3023,-8.661021E-05,19.5345,0,1.3023,-8.358892E-05,19.5345,0
1.3032,-7.721065E-06,19.548,0,1.3032,-9.567407E-05,19.548,0
1.3041,0.0001003738,19.5615,0,1.3041,-0.0001195087,19.5615,0
1.305,-6.713969E-07,19.575,0,1.305,-6.54612E-05,19.575,0
1.3059,3.021286E-05,19.5885,0,1.3059,-3.021286E-05,19.5885,0
1.3068,6.143282E-05,19.602,0,1.3068,-2.24918E-05,19.602,0
1.3077,3.323415E-05,19.6155,0,1.3077,3.121996E-05,19.6155,0
1.3086,-4.263371E-05,19.629,0,1.3086,5.639734E-05,19.629,0
1.3095,-2.081331E-05,19.6425,0,1.3095,6.51255E-05,19.6425,0
1.3104,1.947051E-05,19.656,0,1.3104,6.411841E-05,19.656,0
1.3113,-1.409934E-05,19.6695,0,1.3113,5.606165E-05,19.6695,0
1.3122,3.021286E-06,19.683,0,1.3122,7.620356E-05,19.683,0
1.3131,6.143282E-05,19.6965,0,1.3131,2.652018E-05,19.6965,0
1.314,1.141375E-05,19.71,0,1.314,-1.208515E-05,19.71,0
1.3149,7.049668E-06,19.7235,0,1.3149,-2.450599E-05,19.7235,0
1.3158,-1.376364E-05,19.737,0,1.3158,2.786297E-05,19.737,0
1.3167,1.510643E-05,19.7505,0,1.3167,3.826963E-05,19.7505,0
1.3176,6.210422E-05,19.764,0,1.3176,-2.349889E-05,19.764,0
1.3185,-3.021286E-05,19.7775,0,1.3185,-1.040665E-05,19.7775,0
1.3194,-4.061952E-05,19.791,0,1.3194,-1.644922E-05,19.791,0
1.3203,-5.539025E-05,19.8045,0,1.3203,-8.224613E-05,19.8045,0
1.3212,-3.927672E-05,19.818,0,1.3212,-9.298848E-05,19.818,0
1.3221,-8.090334E-05,19.8315,0,1.3221,-7.049668E-05,19.8315,0
1.323,-6.042573E-05,19.845,0,1.323,-7.687495E-05,19.845,0
1.3239,-9.063859E-06,19.8585,0,1.3239,-7.687495E-05,19.8585,0
1.3248,-2.24918E-05,19.872,0,1.3248,-9.365987E-05,19.872,0
1.3257,-3.726253E-05,19.8855,0,1.3257,-5.539025E-05,19.8855,0
1.3266,-6.378271E-06,19.899,0,1.3266,-7.150377E-05,19.899,0
1.3275,-1.678492E-06,19.9125,0,1.3275,-0.0001104448,19.9125,0
1.3284,-4.46479E-05,19.926,0,1.3284,-8.69459E-05,19.926,0
1.3293,-7.620356E-05,19.9395,0,1.3293,-4.061952E-05,19.9395,0
1.3302,-3.121996E-05,19.953,0,1.3302,-4.061952E-05,19.953,0
1.3311,7.351797E-05,19.9665,0,1.3311,-5.001907E-05,19.9665,0
1.332,1.510643E-05,19.98,0,1.332,-7.385367E-06,19.98,0
1.3329,7.452507E-05,19.9935,0,1.3329,-5.035477E-06,19.9935,0
1.3338,0.0001785916,20.007,0,1.3338,-2.652018E-05,20.007,0
1.3347,0.0001440146,20.0205,0,1.3347,-1.443504E-05,20.0205,0
1.3356,5.874724E-05,20.034,0,1.3356,-1.242084E-05,20.034,0
1.3365,6.411841E-05,20.0475,0,1.3365,-3.390555E-05,20.0475,0
1.3374,-5.270466E-05,20.061,0,1.3374,-2.618448E-05,20.061,0
1.3383,-3.894102E-05,20.0745,0,1.3383,-3.356985E-05,20.0745,0
1.3392,-8.996719E-05,20.088,0,1.3392,-2.719158E-05,20.088,0
1.3401,-0.0002514381,20.1015,0,1.3401,-2.349889E-05,20.1015,0
1.341,-0.0001514,20.115,0,1.341,-4.263371E-05,20.115,0
1.3419,-9.701686E-05,20.1285,0,1.3419,-4.901198E-05,20.1285,0
1.3428,-0.0001077592,20.142,0,1.3428,6.042573E-06,20.142,0
1.3437,-5.606165E-05,20.1555,0,1.3437,5.035477E-06,20.1555,0
1.3446,1.644922E-05,20.169,0,1.3446,-3.390555E-05,20.169,0
1.3455,-4.599069E-05,20.1825,0,1.3455,4.699779E-06,20.1825,0
1.3464,-6.210422E-05,20.196,0,1.3464,7.721065E-06,20.196,0
1.3473,3.558404E-05,20.2095,0,1.3473,-8.392462E-06,20.2095,0
1.3482,6.411841E-05,20.223,0,1.3482,3.356985E-07,20.223,0
1.3491,3.356985E-07,20.2365,0,1.3491,1.510643E-05,20.2365,0
1.35,6.344701E-05,20.25,0,1.35,-8.392462E-06,20.25,0
1.3509,8.426032E-05,20.2635,0,1.3509,-1.074235E-05,20.2635,0
1.3518,6.009003E-05,20.277,0,1.3518,-1.980621E-05,20.277,0
1.3527,5.841154E-05,20.2905,0,1.3527,1.040665E-05,20.2905,0
1.3536,6.243992E-05,20.304,0,1.3536,3.591974E-05,20.304,0
1.3545,7.183947E-05,20.3175,0,1.3545,1.275654E-05,20.3175,0
1.3554,6.948959E-05,20.331,0,1.3554,2.014191E-06,20.331,0
1.3563,-2.21561E-05,20.3445,0,1.3563,2.954147E-05,20.3445,0
1.3572,3.625543E-05,20.358,0,1.3572,3.994812E-05,20.358,0
1.3581,3.524834E-05,20.3715,0,1.3581,1.577783E-05,20.3715,0
1.359,-3.054856E-05,20.385,0,1.359,3.692683E-05,20.385,0
1.3599,2.349889E-05,20.3985,0,1.3599,1.913481E-05,20.3985,0
1.3608,2.24918E-05,20.412,0,1.3608,-7.049668E-06,20.412,0
1.3617,-2.18204E-05,20.4255,0,1.3617,4.699779E-06,20.4255,0
1.3626,-3.860533E-05,20.439,0,1.3626,3.692683E-05,20.439,0
1.3635,1.678492E-06,20.4525,0,1.3635,2.652018E-05,20.4525,0
1.3644,3.323415E-05,20.466,0,1.3644,1.980621E-05,20.466,0
1.3653,7.687495E-05,20.4795,0,1.3653,-1.040665E-05,20.4795,0
1.3662,-2.752728E-05,20.493,0,1.3662,-2.349889E-06,20.493,0
1.3671,-5.001907E-05,20.5065,0,1.3671,2.24918E-05,20.5065,0
1.368,-3.591974E-05,20.52,0,1.368,6.378271E-06,20.52,0
1.3689,-1.947051E-05,20.5335,0,1.3689,-6.378271E-06,20.5335,0
1.3698,-8.996719E-05,20.547,0,1.3698,4.53193E-05,20.547,0
1.3707,-4.867628E-05,20.5605,0,1.3707,1.712062E-05,20.5605,0
1.3716,-1.678492E-06,20.574,0,1.3716,-3.860533E-05,20.574,0
1.3725,-7.821774E-05,20.5875,0,1.3725,-1.007095E-06,20.5875,0
1.3734,3.692683E-06,20.601,0,1.3734,-1.007095E-06,20.601,0
1.3743,5.740444E-05,20.6145,0,1.3743,-3.793393E-05,20.6145,0
1.3752,-0.0001258869,20.628,0,1.3752,-3.491264E-05,20.628,0
1.3761,-0.0001379721,20.6415,0,1.3761,-7.385367E-06,20.6415,0
1.377,-3.189136E-05,20.655,0,1.377,-2.551309E-05,20.655,0
1.3779,-6.411841E-05,20.6685,0,1.3779,-5.404745E-05,20.6685,0
1.3788,-6.277562E-05,20.682,0,1.3788,-5.639734E-05,20.682,0
1.3797,-2.450599E-05,20.6955,0,1.3797,-5.001907E-05,20.6955,0
1.3806,-2.853437E-05,20.709,0,1.3806,-5.304036E-05,20.709,0
1.3815,-7.620356E-05,20.7225,0,1.3815,-6.54612E-05,20.7225,0
1.3824,-5.471885E-05,20.736,0,1.3824,-4.061952E-05,20.736,0
1.3833,-6.478981E-05,20.7495,0,1.3833,4.599069E-05,20.7495,0
1.3842,-0.0001094377,20.763,0,1.3842,3.591974E-05,20.763,0
1.3851,-3.524834E-05,20.7765,0,1.3851,-7.385367E-06,20.7765,0
1.386,-7.620356E-05,20.79,0,1.386,1.712062E-05,20.79,0
1.3869,-7.922484E-05,20.8035,0,1.3869,2.920577E-05,20.8035,0
1.3878,-4.263371E-05,20.817,0,1.3878,-1.846342E-05,20.817,0
1.3887,-0.0001527428,20.8305,0,1.3887,-5.102617E-05,20.8305,0
1.3896,-0.0001641566,20.844,0,1.3896,-6.378271E-05,20.844,0
1.3905,-8.291753E-05,20.8575,0,1.3905,-0.0001037308,20.8575,0
1.3914,-3.289845E-05,20.871,0,1.3914,-0.0001389792,20.871,0
1.3923,5.035477E-05,20.8845,0,1.3923,-0.0001668421,20.8845,0
1.3932,-6.042573E-06,20.898,0,1.3932,-0.0001292439,20.898,0
1.3941,-2.618448E-05,20.9115,0,1.3941,-0.0001030594,20.9115,0
1.395,4.666209E-05,20.925,0,1.395,-0.0001151446,20.925,0
1.3959,3.726253E-05,20.9385,0,1.3959,-0.0001134661,20.9385,0
1.3968,9.063859E-06,20.952,0,1.3968,-5.807584E-05,20.952,0
1.3977,5.069047E-05,20.9655,0,1.3977,-6.478981E-05,20.9655,0
1.3986,8.92958E-05,20.979,0,1.3986,-0.0001198444,20.979,0
1.3995,3.021286E-05,20.9925,0,1.3995,-8.157473E-05,20.9925,0
1.4004,8.560311E-05,21.006,0,1.4004,-4.867628E-05,21.006,0
1.4013,0.000109102,21.0195,0,1.4013,-6.277562E-05,21.0195,0
1.4022,2.887007E-05,21.033,0,1.4022,-3.692683E-05,21.033,0
1.4031,-1.342794E-06,21.0465,0,1.4031,1.577783E-05,21.0465,0
1.404,7.049668E-05,21.06,0,1.404,5.035477E-06,21.06,0
1.4049,5.337606E-05,21.0735,0,1.4049,-1.007095E-06,21.0735,0
1.4058,8.761731E-05,21.087,0,1.4058,7.721065E-06,21.087,0
1.4067,7.888914E-05,21.1005,0,1.4067,2.18204E-05,21.1005,0
1.4076,6.344701E-05,21.114,0,1.4076,4.263371E-05,21.114,0
1.4085,4.800488E-05,21.1275,0,1.4085,4.095522E-05,21.1275,0
1.4094,5.874724E-05,21.141,0,1.4094,4.53193E-05,21.141,0
1.4103,-1.678492E-05,21.1545,0,1.4103,6.64683E-05,21.1545,0
1.4112,7.385367E-06,21.168,0,1.4112,4.666209E-05,21.168,0
1.4121,9.198138E-05,21.1815,0,1.4121,1.040665E-05,21.1815,0
1.413,-4.46479E-05,21.195,0,1.413,4.867628E-05,21.195,0
1.4139,-1.510643E-05,21.2085,0,1.4139,3.894102E-05,21.2085,0
1.4148,8.493171E-05,21.222,0,1.4148,-1.577783E-05,21.222,0
1.4157,1.007095E-06,21.2355,0,1.4157,-1.947051E-05,21.2355,0
1.4166,-3.390555E-05,21.249,0,1.4166,-6.378271E-06,21.249,0
1.4175,4.39765E-05,21.2625,0,1.4175,-1.107805E-05,21.2625,0
1.4184,2.618448E-05,21.276,0,1.4184,-2.987716E-05,21.276,0
1.4193,-3.189136E-05,21.2895,0,1.4193,-4.33051E-05,21.2895,0
1.4202,-3.961242E-05,21.303,0,1.4202,-2.383459E-05,21.303,0
1.4211,-6.277562E-05,21.3165,0,1.4211,-1.040665E-05,21.3165,0
1.422,-4.36408E-06,21.33,0,1.422,-3.054856E-05,21.33,0
1.4229,3.155566E-05,21.3435,0,1.4229,-3.860533E-05,21.3435,0
1.4238,-7.721065E-06,21.357,0,1.4238,1.678492E-06,21.357,0
1.4247,3.726253E-05,21.3705,0,1.4247,-1.678492E-06,21.3705,0
1.4256,5.975433E-05,21.384,0,1.4256,-3.793393E-05,21.384,0
1.4265,-3.524834E-05,21.3975,0,1.4265,1.678492E-05,21.3975,0
1.4274,-5.035477E-05,21.411,0,1.4274,2.853437E-05,21.411,0
1.4283,-4.901198E-05,21.4245,0,1.4283,-2.484169E-05,21.4245,0
1.4292,-7.049668E-05,21.438,0,1.4292,-9.063859E-06,21.438,0
1.4301,-0.000105745,21.4515,0,1.4301,3.021286E-06,21.4515,0
1.431,-8.89601E-05,21.465,0,1.431,-1.577783E-05,21.465,0
1.4319,-2.383459E-05,21.4785,0,1.4319,-4.43122E-05,21.4785,0
1.4328,4.095522E-05,21.492,0,1.4328,-6.210422E-05,21.492,0
1.4337,6.378271E-05,21.5055,0,1.4337,-5.706874E-06,21.5055,0
1.4346,5.706874E-05,21.519,0,1.4346,2.24918E-05,21.519,0
1.4355,6.6804E-05,21.5325,0,1.4355,-9.063859E-06,21.5325,0
1.4364,9.231708E-05,21.546,0,1.4364,-1.242084E-05,21.546,0
1.4373,6.814679E-05,21.5595,0,1.4373,9.063859E-06,21.5595,0
1.4382,0.0001107805,21.573,0,1.4382,6.713969E-07,21.573,0
1.4391,0.000164828,21.5865,0,1.4391,-3.457694E-05,21.5865,0
1.44,-1.678492E-05,21.6,0,1.44,-6.713969E-07,21.6,0
1.4409,-4.901198E-05,21.6135,0,1.4409,3.692683E-06,21.6135,0
1.4418,-0.0001332723,21.627,0,1.4418,-1.611353E-05,21.627,0
1.4427,-0.0001779202,21.6405,0,1.4427,-1.242084E-05,21.6405,0
1.4436,-0.0002242466,21.654,0,1.4436,3.021286E-06,21.654,0
1.4445,-0.000193698,21.6675,0,1.4445,-1.980621E-05,21.6675,0
1.4454,-0.000136965,21.681,0,1.4454,-1.477073E-05,21.681,0
1.4463,1.678492E-05,21.6945,0,1.4463,-4.934768E-05,21.6945,0
1.4472,0.0001141375,21.708,0,1.4472,-3.323415E-05,21.708,0
1.4481,0.0001413291,21.7215,0,1.4481,4.699779E-06,21.7215,0
1.449,0.0002101472,21.735,0,1.449,-1.477073E-05,21.735,0
1.4499,0.0001799344,21.7485,0,1.4499,-3.659113E-05,21.7485,0
1.4508,-3.860533E-05,21.762,0,1.4508,-4.36408E-06,21.762,0
1.4517,-0.0001171588,21.7755,0,1.4517,-1.242084E-05,21.7755,0
1.4526,-5.404745E-05,21.789,0,1.4526,-3.860533E-05,21.789,0
1.4535,-0.0001705348,21.8025,0,1.4535,-5.706874E-06,21.8025,0
1.4544,-0.0002192111,21.816,0,1.4544,-3.625543E-05,21.816,0
1.4553,-0.0001322652,21.8295,0,1.4553,-7.016098E-05,21.8295,0
1.4562,-0.0002205539,21.843,0,1.4562,-5.841154E-05,21.843,0
1.4571,-0.0002537881,21.8565,0,1.4571,-4.632639E-05,21.8565,0
1.458,-0.0001279011,21.87,0,1.458,-6.277562E-05,21.87,0
1.4589,-7.956054E-05,21.8835,0,1.4589,-6.6804E-05,21.8835,0
1.4598,-1.174945E-05,21.897,0,1.4598,-8.69459E-05,21.897,0
1.4607,1.040665E-05,21.9105,0,1.4607,-5.706874E-05,21.9105,0
1.4616,1.309224E-05,21.924,0,1.4616,-4.565499E-05,21.924,0
1.4625,4.53193E-05,21.9375,0,1.4625,-5.673304E-05,21.9375,0
1.4634,5.941863E-05,21.951,0,1.4634,-6.143282E-05,21.951,0
1.4643,1.712062E-05,21.9645,0,1.4643,-1.409934E-05,21.9645,0
1.4652,2.18204E-05,21.978,0,1.4652,-1.007095E-06,21.978,0
1.4661,9.298848E-05,21.9915,0,1.4661,-1.712062E-05,21.9915,0
1.467,6.009003E-05,22.005,0,1.467,3.591974E-05,22.005,0
1.4679,5.941863E-05,22.0185,0,1.4679,3.659113E-05,22.0185,0
1.4688,0.0001097734,22.032,0,1.4688,-4.867628E-05,22.032,0
1.4697,2.450599E-05,22.0455,0,1.4697,-6.009003E-05,22.0455,0
1.4706,-3.793393E-05,22.059,0,1.4706,-6.243992E-05,22.059,0
1.4715,1.443504E-05,22.0725,0,1.4715,-6.277562E-05,22.0725,0
1.4724,3.793393E-05,22.086,0,1.4724,-1.812772E-05,22.086,0
1.4733,6.51255E-05,22.0995,0,1.4733,3.390555E-05,22.0995,0
1.4742,9.533837E-05,22.113,0,1.4742,8.560311E-05,22.113,0
1.4751,0.0001188373,22.1265,0,1.4751,2.819867E-05,22.1265,0
1.476,0.000154757,22.14,0,1.476,-1.913481E-05,22.14,0
1.4769,0.0001534142,22.1535,0,1.4769,-3.289845E-05,22.1535,0
1.4778,9.634547E-05,22.167,0,1.4778,2.584878E-05,22.167,0
1.4787,0.0001262226,22.1805,0,1.4787,3.356985E-06,22.1805,0
1.4796,0.0001322652,22.194,0,1.4796,-6.210422E-05,22.194,0
1.4805,1.443504E-05,22.2075,0,1.4805,-5.438316E-05,22.2075,0
1.4814,-1.846342E-05,22.221,0,1.4814,-5.035477E-05,22.221,0
1.4823,8.392462E-06,22.2345,0,1.4823,-8.661021E-05,22.2345,0
1.4832,-1.678492E-06,22.248,0,1.4832,-7.150377E-05,22.248,0
1.4841,-4.43122E-05,22.2615,0,1.4841,-2.450599E-05,22.2615,0
1.485,-3.256275E-05,22.275,0,1.485,-2.316319E-05,22.275,0
1.4859,-2.652018E-05,22.2885,0,1.4859,-1.174945E-05,22.2885,0
1.4868,-1.141375E-05,22.302,0,1.4868,8.392462E-06,22.302,0
1.4877,-2.450599E-05,22.3155,0,1.4877,3.793393E-05,22.3155,0
1.4886,-0.0001326009,22.329,0,1.4886,5.807584E-05,22.329,0
1.4895,-7.016098E-05,22.3425,0,1.4895,3.591974E-05,22.3425,0
1.4904,1.007095E-06,22.356,0,1.4904,1.174945E-05,22.356,0
1.4913,-8.89601E-05,22.3695,0,1.4913,1.510643E-05,22.3695,0
1.4922,-0.000119173,22.383,0,1.4922,-9.063859E-06,22.383,0
1.4931,-6.74754E-05,22.3965,0,1.4931,-2.954147E-05,22.3965,0
1.494,-9.097429E-05,22.41,0,1.494,1.107805E-05,22.41,0
1.4949,-2.652018E-05,22.4235,0,1.4949,9.399558E-06,22.4235,0
1.4958,2.24918E-05,22.437,0,1.4958,-2.652018E-05,22.437,0
1.4967,-1.913481E-05,22.4505,0,1.4967,-1.510643E-05,22.4505,0
1.4976,-0.0001040665,22.464,0,1.4976,-1.510643E-05,22.464,0
1.4985,-9.063859E-05,22.4775,0,1.4985,-2.652018E-05,22.4775,0
1.4994,-5.069047E-05,22.491,0,1.4994,-2.014191E-05,22.491,0
1.5003,-3.927672E-05,22.5045,0,1.5003,-2.24918E-05,22.5045,0
1.5012,-8.560311E-05,22.518,0,1.5012,1.107805E-05,22.518,0
1.5021,-0.0001077592,22.5315,0,1.5021,1.779202E-05,22.5315,0
1.503,-7.721065E-05,22.545,0,1.503,5.035477E-06,22.545,0
1.5039,-8.056764E-05,22.5585,0,1.5039,-1.846342E-05,22.5585,0
1.5048,-0.0001121233,22.572,0,1.5048,3.021286E-06,22.572,0
1.5057,-9.298848E-05,22.5855,0,1.5057,1.007095E-06,22.5855,0
1.5066,-2.450599E-05,22.599,0,1.5066,-4.36408E-05,22.599,0
1.5075,-9.063859E-06,22.6125,0,1.5075,6.713969E-07,22.6125,0
1.5084,4.162661E-05,22.626,0,1.5084,1.913481E-05,22.626,0
1.5093,5.841154E-05,22.6395,0,1.5093,-1.577783E-05,22.6395,0
1.5102,-3.927672E-05,22.653,0,1.5102,-1.275654E-05,22.653,0
1.5111,-7.016098E-05,22.6665,0,1.5111,-4.36408E-06,22.6665,0
1.512,-2.954147E-05,22.68,0,1.512,-2.383459E-05,22.68,0
1.5129,-3.659113E-05,22.6935,0,1.5129,-2.819867E-05,22.6935,0
1.5138,1.275654E-05,22.707,0,1.5138,-5.337606E-05,22.707,0
1.5147,-3.424125E-05,22.7205,0,1.5147,-3.927672E-05,22.7205,0
1.5156,-3.323415E-05,22.734,0,1.5156,-6.042573E-06,22.734,0
1.5165,-4.666209E-05,22.7475,0,1.5165,-2.417029E-05,22.7475,0
1.5174,-6.814679E-05,22.761,0,1.5174,-2.652018E-05,22.761,0
1.5183,-0.0001117876,22.7745,0,1.5183,-1.107805E-05,22.7745,0
1.5192,-7.016098E-05,22.788,0,1.5192,-1.846342E-05,22.788,0
1.5201,-1.913481E-05,22.8015,0,1.5201,-5.136187E-05,22.8015,0
1.521,-0.0001178302,22.815,0,1.521,-3.189136E-05,22.815,0
1.5219,-3.289845E-05,22.8285,0,1.5219,-2.987716E-05,22.8285,0
1.5228,0.0001923552,22.842,0,1.5228,-3.961242E-05,22.842,0
1.5237,0.000235996,22.8555,0,1.5237,-1.040665E-05,22.8555,0
1.5246,0.0002020905,22.869,0,1.5246,1.007095E-06,22.869,0
1.5255,0.0002521096,22.8825,0,1.5255,-2.1149E-05,22.8825,0
1.5264,0.0002205539,22.896,0,1.5264,-3.625543E-05,22.896,0
1.5273,0.000235996,22.9095,0,1.5273,-4.33051E-05,22.9095,0
1.5282,0.0001668421,22.923,0,1.5282,-9.735256E-06,22.923,0
1.5291,0.0001148089,22.9365,0,1.5291,9.735256E-06,22.9365,0
1.53,8.291753E-05,22.95,0,1.53,3.692683E-06,22.95,0
1.5309,7.217517E-05,22.9635,0,1.5309,9.399558E-06,22.9635,0
1.5318,-2.719158E-05,22.977,0,1.5318,5.673304E-05,22.977,0
1.5327,-2.719158E-05,22.9905,0,1.5327,3.189136E-05,22.9905,0
1.5336,-3.356985E-07,23.004,0,1.5336,-3.054856E-05,23.004,0
1.5345,-3.793393E-05,23.0175,0,1.5345,6.378271E-06,23.0175,0
1.5354,-5.841154E-05,23.031,0,1.5354,-9.735256E-06,23.031,0
1.5363,2.047761E-05,23.0445,0,1.5363,-3.994812E-05,23.0445,0
1.5372,6.57969E-05,23.058,0,1.5372,-3.088426E-05,23.058,0
1.5381,-2.349889E-06,23.0715,0,1.5381,-5.069047E-05,23.0715,0
1.539,-8.056763E-06,23.085,0,1.539,-6.948959E-05,23.085,0
1.5399,1.980621E-05,23.0985,0,1.5399,-7.821774E-05,23.0985,0
1.5408,-8.056763E-06,23.112,0,1.5408,-9.567407E-05,23.112,0
1.5417,-8.526741E-05,23.1255,0,1.5417,-6.411841E-05,23.1255,0
1.5426,-0.0001111162,23.139,0,1.5426,-6.176852E-05,23.139,0
1.5435,-0.0001309224,23.1525,0,1.5435,-6.74754E-05,23.1525,0
1.5444,-0.000112459,23.166,0,1.5444,-7.318227E-05,23.166,0
1.5453,-0.0001440146,23.1795,0,1.5453,-5.572595E-05,23.1795,0
1.5462,-0.0001279011,23.193,0,1.5462,-4.599069E-05,23.193,0
1.5471,-5.270466E-05,23.2065,0,1.5471,-7.452507E-05,23.2065,0
1.548,-0.0001225299,23.22,0,1.548,-3.927672E-05,23.22,0
1.5489,-0.0001211871,23.2335,0,1.5489,-1.040665E-05,23.2335,0
1.5498,-6.243992E-05,23.247,0,1.5498,-3.189136E-05,23.247,0
1.5507,5.035477E-06,23.2605,0,1.5507,-2.954147E-05,23.2605,0
1.5516,-2.316319E-05,23.274,0,1.5516,-1.275654E-05,23.274,0
1.5525,-4.800488E-05,23.2875,0,1.5525,-2.18204E-05,23.2875,0
1.5534,-5.136187E-05,23.301,0,1.5534,-7.049668E-06,23.301,0
1.5543,-7.049668E-06,23.3145,0,1.5543,-2.18204E-05,23.3145,0
1.5552,-5.941863E-05,23.328,0,1.5552,1.544213E-05,23.328,0
1.5561,-0.0001017166,23.3415,0,1.5561,4.36408E-06,23.3415,0
1.557,-5.236896E-05,23.355,0,1.557,-3.289845E-05,23.355,0
1.5579,-1.107805E-05,23.3685,0,1.5579,-4.49836E-05,23.3685,0
1.5588,-9.433127E-05,23.382,0,1.5588,-2.685588E-05,23.382,0
1.5597,-4.263371E-05,23.3955,0,1.5597,-2.450599E-05,23.3955,0
1.5606,4.699779E-05,23.409,0,1.5606,-4.39765E-05,23.409,0
1.5615,-7.418937E-05,23.4225,0,1.5615,7.721065E-06,23.4225,0
1.5624,-5.572595E-05,23.436,0,1.5624,2.652018E-05,23.436,0
1.5633,2.786297E-05,23.4495,0,1.5633,-4.36408E-06,23.4495,0
1.5642,-7.888914E-05,23.463,0,1.5642,-1.174945E-05,23.463,0
1.5651,-0.0001064164,23.4765,0,1.5651,7.049668E-06,23.4765,0
1.566,-1.107805E-05,23.49,0,1.566,-6.713969E-06,23.49,0
1.5669,-1.443504E-05,23.5035,0,1.5669,-1.879912E-05,23.5035,0
1.5678,3.054856E-05,23.517,0,1.5678,-4.061952E-05,23.517,0
1.5687,2.383459E-05,23.5305,0,1.5687,-8.392462E-06,23.5305,0
1.5696,7.888914E-05,23.544,0,1.5696,4.699779E-06,23.544,0
1.5705,6.143282E-05,23.5575,0,1.5705,-5.706874E-06,23.5575,0
1.5714,6.64683E-05,23.571,0,1.5714,1.443504E-05,23.571,0
1.5723,4.666209E-05,23.5845,0,1.5723,4.43122E-05,23.5845,0
1.5732,4.028382E-05,23.598,0,1.5732,2.954147E-05,23.598,0
1.5741,7.284657E-05,23.6115,0,1.5741,-2.719158E-05,23.6115,0
1.575,-3.356985E-07,23.625,0,1.575,-5.035477E-06,23.625,0
1.5759,-2.18204E-05,23.6385,0,1.5759,-1.712062E-05,23.6385,0
1.5768,5.606165E-05,23.652,0,1.5768,-3.692683E-05,23.652,0
1.5777,6.74754E-05,23.6655,0,1.5777,-4.699779E-06,23.6655,0
1.5786,-2.349889E-05,23.679,0,1.5786,2.685588E-06,23.679,0
1.5795,-3.021286E-06,23.6925,0,1.5795,-1.376364E-05,23.6925,0
1.5804,3.457694E-05,23.706,0,1.5804,-3.659113E-05,23.706,0
1.5813,9.466698E-05,23.7195,0,1.5813,-6.71397E-05,23.7195,0
1.5822,3.591974E-05,23.733,0,1.5822,-5.740444E-05,23.733,0
1.5831,-9.063859E-06,23.7465,0,1.5831,-5.975433E-05,23.7465,0
1.584,2.786297E-05,23.76,0,1.584,-7.653925E-05,23.76,0
1.5849,1.577783E-05,23.7735,0,1.5849,-6.64683E-05,23.7735,0
1.5858,2.014191E-06,23.787,0,1.5858,-3.591974E-05,23.787,0
1.5867,6.411841E-05,23.8005,0,1.5867,-3.256275E-05,23.8005,0
1.5876,7.586786E-05,23.814,0,1.5876,-2.920577E-05,23.814,0
1.5885,2.349889E-06,23.8275,0,1.5885,3.356985E-07,23.8275,0
1.5894,-1.577783E-05,23.841,0,1.5894,5.035477E-06,23.841,0
1.5903,-7.049668E-06,23.8545,0,1.5903,-1.980621E-05,23.8545,0
1.5912,-1.141375E-05,23.868,0,1.5912,1.309224E-05,23.868,0
1.5921,-4.632639E-05,23.8815,0,1.5921,3.927672E-05,23.8815,0
1.593,1.980621E-05,23.895,0,1.593,2.786297E-05,23.895,0
1.5939,7.049668E-06,23.9085,0,1.5939,1.477073E-05,23.9085,0
1.5948,3.994812E-05,23.922,0,1.5948,-6.713969E-07,23.922,0
1.5957,3.323415E-05,23.9355,0,1.5957,6.713969E-06,23.9355,0
1.5966,-5.807584E-05,23.949,0,1.5966,2.1149E-05,23.949,0
1.5975,1.913481E-05,23.9625,0,1.5975,0,23.9625,0
1.5984,7.922484E-05,23.976,0,1.5984,-1.376364E-05,23.976,0
1.5993,0,23.9895,0,1.5993,3.927672E-05,23.9895,0
1.6002,4.129091E-05,24.003,0,1.6002,4.061952E-05,24.003,0
1.6011,9.500267E-05,24.0165,0,1.6011,1.040665E-05,24.0165,0
1.602,-5.035477E-06,24.03,0,1.602,2.652018E-05,24.03,0
1.6029,5.404745E-05,24.0435,0,1.6029,1.980621E-05,24.0435,0
1.6038,9.903105E-05,24.057,0,1.6038,-6.713969E-07,24.057,0
1.6047,5.035477E-06,24.0705,0,1.6047,2.786297E-05,24.0705,0
1.6056,-3.927672E-05,24.084,0,1.6056,3.860533E-05,24.084,0
1.6065,4.229801E-05,24.0975,0,1.6065,2.417029E-05,24.0975,0
1.6074,5.404745E-05,24.111,0,1.6074,2.28275E-05,24.111,0
1.6083,8.89601E-05,24.1245,0,1.6083,7.049668E-06,24.1245,0
1.6092,8.96315E-05,24.138,0,1.6092,4.095522E-05,24.138,0
1.6101,1.577783E-05,24.1515,0,1.6101,3.927672E-05,24.1515,0
1.611,-1.376364E-05,24.165,0,1.611,2.383459E-05,24.165,0
1.6119,-3.692683E-06,24.1785,0,1.6119,6.042573E-06,24.1785,0
1.6128,-4.901198E-05,24.192,0,1.6128,2.954147E-05,24.192,0
1.6137,-8.627451E-05,24.2055,0,1.6137,1.577783E-05,24.2055,0
1.6146,-3.189136E-05,24.219,0,1.6146,-3.659113E-05,24.219,0
1.6155,-8.92958E-05,24.2325,0,1.6155,1.510643E-05,24.2325,0
1.6164,-1.577783E-05,24.246,0,1.6164,2.484169E-05,24.246,0
1.6173,-2.014191E-06,24.2595,0,1.6173,-2.316319E-05,24.2595,0
1.6182,-9.500267E-05,24.273,0,1.6182,-1.242084E-05,24.273,0
1.6191,-0.0001050736,24.2865,0,1.6191,1.275654E-05,24.2865,0
1.62,-8.761731E-05,24.3,0,1.62,-9.735256E-06,24.3,0
1.6209,-7.653925E-05,24.3135,0,1.6209,-7.385367E-06,24.3135,0
1.6218,-3.021286E-05,24.327,0,1.6218,-1.913481E-05,24.327,0
1.6227,-8.89601E-05,24.3405,0,1.6227,-7.049668E-06,24.3405,0
1.6236,-6.143282E-05,24.354,0,1.6236,-2.450599E-05,24.354,0
1.6245,3.726253E-05,24.3675,0,1.6245,-6.311131E-05,24.3675,0
1.6254,3.289845E-05,24.381,0,1.6254,-8.224613E-05,24.381,0
1.6263,1.040665E-05,24.3945,0,1.6263,-4.733349E-05,24.3945,0
1.6272,2.081331E-05,24.408,0,1.6272,-5.404745E-05,24.408,0
1.6281,3.759823E-05,24.4215,0,1.6281,-7.385367E-05,24.4215,0
1.629,-5.304036E-05,24.435,0,1.629,-2.853437E-05,24.435,0
1.6299,-3.021286E-06,24.4485,0,1.6299,-3.927672E-05,24.4485,0
1.6308,8.258183E-05,24.462,0,1.6308,-7.150377E-05,24.462,0
1.6317,4.666209E-05,24.4755,0,1.6317,-6.948959E-05,24.4755,0
1.6326,-1.947051E-05,24.489,0,1.6326,-3.524834E-05,24.489,0
1.6335,2.920577E-05,24.5025,0,1.6335,-2.987716E-05,24.5025,0
1.6344,-1.779202E-05,24.516,0,1.6344,-3.927672E-05,24.516,0
1.6353,1.040665E-05,24.5295,0,1.6353,-4.699779E-05,24.5295,0
1.6362,-7.721065E-06,24.543,0,1.6362,-7.385367E-06,24.543,0
1.6371,-0.0001084306,24.5565,0,1.6371,2.1149E-05,24.5565,0
1.638,-5.807584E-05,24.57,0,1.638,-6.378271E-06,24.57,0
1.6389,6.042573E-06,24.5835,0,1.6389,-8.056763E-06,24.5835,0
1.6398,-3.994812E-05,24.597,0,1.6398,4.36408E-05,24.597,0
1.6407,-2.685588E-06,24.6105,0,1.6407,1.174945E-05,24.6105,0
1.6416,6.076142E-05,24.624,0,1.6416,-2.584878E-05,24.624,0
1.6425,3.356985E-07,24.6375,0,1.6425,-1.107805E-05,24.6375,0
1.6434,-2.316319E-05,24.651,0,1.6434,-1.779202E-05,24.651,0
1.6443,1.174945E-05,24.6645,0,1.6443,-6.948959E-05,24.6645,0
1.6452,-3.289845E-05,24.678,0,1.6452,-6.277562E-05,24.678,0
1.6461,-0.0001097734,24.6915,0,1.6461,-6.64683E-05,24.6915,0
1.647,-9.298848E-05,24.705,0,1.647,-8.291753E-05,24.705,0
1.6479,-3.390555E-05,24.7185,0,1.6479,-8.82887E-05,24.7185,0
1.6488,-1.947051E-05,24.732,0,1.6488,-8.627451E-05,24.732,0
1.6497,-5.706874E-05,24.7455,0,1.6497,-5.471885E-05,24.7455,0
1.6506,-6.74754E-05,24.759,0,1.6506,-5.069047E-05,24.759,0
1.6515,-5.539025E-05,24.7725,0,1.6515,-7.452507E-05,24.7725,0
1.6524,-7.049668E-06,24.786,0,1.6524,-6.848249E-05,24.786,0
1.6533,-6.076142E-05,24.7995,0,1.6533,-5.035477E-05,24.7995,0
1.6542,4.36408E-06,24.813,0,1.6542,-5.169757E-05,24.813,0
1.6551,3.021286E-06,24.8265,0,1.6551,-8.056764E-05,24.8265,0
1.656,-9.332418E-05,24.84,0,1.656,-4.196231E-05,24.84,0
1.6569,-5.404745E-05,24.8535,0,1.6569,-2.349889E-05,24.8535,0
1.6578,-5.069047E-05,24.867,0,1.6578,-6.54612E-05,24.867,0
1.6587,-6.143282E-05,24.8805,0,1.6587,-8.493171E-05,24.8805,0
1.6596,-4.49836E-05,24.894,0,1.6596,-4.39765E-05,24.894,0
1.6605,-4.129091E-05,24.9075,0,1.6605,-5.304036E-05,24.9075,0
1.6614,-3.121996E-05,24.921,0,1.6614,-6.311131E-05,24.921,0
1.6623,5.270466E-05,24.9345,0,1.6623,-6.74754E-05,24.9345,0
1.6632,2.1149E-05,24.948,0,1.6632,-2.517739E-05,24.948,0
1.6641,3.356985E-06,24.9615,0,1.6641,1.107805E-05,24.9615,0
1.665,6.344701E-05,24.975,0,1.665,-2.819867E-05,24.975,0
1.6659,8.358892E-05,24.9885,0,1.6659,-3.793393E-05,24.9885,0
1.6668,-1.208515E-05,25.002,0,1.6668,8.728161E-06,25.002,0
1.6677,4.39765E-05,25.0155,0,1.6677,2.014191E-06,25.0155,0
1.6686,0.0001413291,25.029,0,1.6686,-3.121996E-05,25.029,0
1.6695,1.779202E-05,25.0425,0,1.6695,2.1149E-05,25.0425,0
1.6704,6.277562E-05,25.056,0,1.6704,-2.349889E-06,25.056,0
1.6713,0.0001117876,25.0695,0,1.6713,-3.558404E-05,25.0695,0
1.6722,6.311131E-05,25.083,0,1.6722,-3.021286E-06,25.083,0
1.6731,-8.392462E-06,25.0965,0,1.6731,1.309224E-05,25.0965,0
1.674,1.107805E-05,25.11,0,1.674,-1.712062E-05,25.11,0
1.6749,-2.24918E-05,25.1235,0,1.6749,-1.577783E-05,25.1235,0
1.6758,-1.443504E-05,25.137,0,1.6758,-1.779202E-05,25.137,0
1.6767,-5.169757E-05,25.1505,0,1.6767,-8.056763E-06,25.1505,0
1.6776,-6.478981E-05,25.164,0,1.6776,5.035477E-06,25.164,0
1.6785,-4.53193E-05,25.1775,0,1.6785,-1.980621E-05,25.1775,0
1.6794,-1.141375E-05,25.191,0,1.6794,-2.752728E-05,25.191,0
1.6803,-1.779202E-05,25.2045,0,1.6803,-1.342794E-06,25.2045,0
1.6812,7.049668E-06,25.218,0,1.6812,-7.385367E-06,25.218,0
1.6821,5.975433E-05,25.2315,0,1.6821,-6.277562E-05,25.2315,0
1.683,-1.745632E-05,25.245,0,1.683,-1.779202E-05,25.245,0
1.6839,-2.719158E-05,25.2585,0,1.6839,-2.18204E-05,25.2585,0
1.6848,-3.356985E-06,25.272,0,1.6848,-3.524834E-05,25.272,0
1.6857,-1.510643E-05,25.2855,0,1.6857,-1.913481E-05,25.2855,0
1.6866,-0.0001131304,25.299,0,1.6866,1.712062E-05,25.299,0
1.6875,-6.6804E-05,25.3125,0,1.6875,9.735256E-06,25.3125,0
1.6884,-4.061952E-05,25.326,0,1.6884,1.342794E-06,25.326,0
1.6893,-2.349889E-06,25.3395,0,1.6893,-2.987716E-05,25.3395,0
1.6902,-4.162661E-05,25.353,0,1.6902,-6.378271E-06,25.353,0
1.6911,-6.57969E-05,25.3665,0,1.6911,1.678492E-06,25.3665,0
1.692,-4.196231E-05,25.38,0,1.692,-1.913481E-05,25.38,0
1.6929,-3.524834E-05,25.3935,0,1.6929,-1.510643E-05,25.3935,0
1.6938,-6.74754E-05,25.407,0,1.6938,4.699779E-06,25.407,0
1.6947,-2.24918E-05,25.4205,0,1.6947,-2.349889E-06,25.4205,0
1.6956,-2.450599E-05,25.434,0,1.6956,-4.33051E-05,25.434,0
1.6965,-6.042573E-05,25.4475,0,1.6965,-1.879912E-05,25.4475,0
1.6974,6.74754E-05,25.461,0,1.6974,-6.042573E-06,25.461,0
1.6983,5.874724E-05,25.4745,0,1.6983,-4.49836E-05,25.4745,0
1.6992,3.894102E-05,25.488,0,1.6992,-3.692683E-05,25.488,0
1.7001,2.584878E-05,25.5015,0,1.7001,-2.316319E-05,25.5015,0
1.701,1.846342E-05,25.515,0,1.701,-3.826963E-05,25.515,0
1.7019,-2.18204E-05,25.5285,0,1.7019,-4.129091E-05,25.5285,0
1.7028,1.208515E-05,25.542,0,1.7028,-5.941863E-05,25.542,0
1.7037,-3.793393E-05,25.5555,0,1.7037,-3.323415E-05,25.5555,0
1.7046,-0.0001379721,25.569,0,1.7046,-6.378271E-06,25.569,0
1.7055,-4.699779E-05,25.5825,0,1.7055,-4.599069E-05,25.5825,0
1.7064,1.409934E-05,25.596,0,1.7064,-5.102617E-05,25.596,0
1.7073,-5.841154E-05,25.6095,0,1.7073,4.699779E-06,25.6095,0
1.7082,-1.846342E-05,25.623,0,1.7082,-1.644922E-05,25.623,0
1.7091,5.001907E-05,25.6365,0,1.7091,-4.33051E-05,25.6365,0
1.71,-3.424125E-05,25.65,0,1.71,-3.021286E-06,25.65,0
1.7109,-5.706874E-06,25.6635,0,1.7109,-3.356985E-07,25.6635,0
1.7118,5.337606E-05,25.677,0,1.7118,-4.028382E-06,25.677,0
1.7127,-1.577783E-05,25.6905,0,1.7127,1.510643E-05,25.6905,0
1.7136,-9.030289E-05,25.704,0,1.7136,9.063859E-06,25.704,0
1.7145,-3.088426E-05,25.7175,0,1.7145,-2.047761E-05,25.7175,0
1.7154,3.927672E-05,25.731,0,1.7154,-7.721065E-06,25.731,0
1.7163,3.457694E-05,25.7445,0,1.7163,-2.18204E-05,25.7445,0
1.7172,1.510643E-05,25.758,0,1.7172,3.356985E-06,25.758,0
1.7181,4.263371E-05,25.7715,0,1.7181,1.947051E-05,25.7715,0
1.719,1.443504E-05,25.785,0,1.719,-1.342794E-06,25.785,0
1.7199,0,25.7985,0,1.7199,-1.477073E-05,25.7985,0
1.7208,-2.652018E-05,25.812,0,1.7208,3.256275E-05,25.812,0
1.7217,-7.721065E-06,25.8255,0,1.7217,3.558404E-05,25.8255,0
1.7226,7.888914E-05,25.839,0,1.7226,-3.356985E-07,25.839,0
1.7235,7.721065E-06,25.8525,0,1.7235,4.39765E-05,25.8525,0
1.7244,1.477073E-05,25.866,0,1.7244,3.021286E-05,25.866,0
1.7253,-3.021286E-06,25.8795,0,1.7253,-6.378271E-06,25.8795,0
1.7262,-0.0001121233,25.893,0,1.7262,1.577783E-05,25.893,0
1.7271,-0.0001077592,25.9065,0,1.7271,3.155566E-05,25.9065,0
1.728,-6.344701E-05,25.92,0,1.728,-2.014191E-06,25.92,0
1.7289,-2.719158E-05,25.9335,0,1.7289,-1.275654E-05,25.9335,0
1.7298,3.155566E-05,25.947,0,1.7298,-5.471885E-05,25.947,0
1.7307,2.047761E-05,25.9605,0,1.7307,-4.599069E-05,25.9605,0
1.7316,-5.706874E-06,25.974,0,1.7316,-2.383459E-05,25.974,0
1.7325,4.39765E-05,25.9875,0,1.7325,-4.867628E-05,25.9875,0
1.7334,2.18204E-05,26.001,0,1.7334,-4.867628E-05,26.001,0
1.7343,1.040665E-05,26.0145,0,1.7343,-6.042573E-06,26.0145,0
1.7352,7.956054E-05,26.028,0,1.7352,-1.644922E-05,26.028,0
1.7361,7.754635E-05,26.0415,0,1.7361,-4.33051E-05,26.0415,0
1.737,-4.699779E-06,26.055,0,1.737,-5.035477E-06,26.055,0
1.7379,9.365987E-05,26.0685,0,1.7379,-1.309224E-05,26.0685,0
1.7388,0.000119173,26.082,0,1.7388,-4.49836E-05,26.082,0
1.7397,1.678492E-06,26.0955,0,1.7397,-1.947051E-05,26.0955,0
1.7406,-1.007095E-06,26.109,0,1.7406,2.920577E-05,26.109,0
1.7415,5.270466E-05,26.1225,0,1.7415,2.383459E-05,26.1225,0
1.7424,8.392462E-06,26.136,0,1.7424,3.390555E-05,26.136,0
1.7433,2.652018E-05,26.1495,0,1.7433,2.450599E-05,26.1495,0
1.7442,-2.719158E-05,26.163,0,1.7442,6.277562E-05,26.163,0
1.7451,-8.627451E-05,26.1765,0,1.7451,8.258183E-05,26.1765,0
1.746,-4.39765E-05,26.19,0,1.746,3.424125E-05,26.19,0
1.7469,-1.544213E-05,26.2035,0,1.7469,7.721065E-06,26.2035,0
1.7478,-8.795301E-05,26.217,0,1.7478,4.666209E-05,26.217,0
1.7487,-8.89601E-05,26.2305,0,1.7487,1.040665E-05,26.2305,0
1.7496,1.040665E-05,26.244,0,1.7496,-4.33051E-05,26.244,0
1.7505,-6.478981E-05,26.2575,0,1.7505,-2.786297E-05,26.2575,0
1.7514,-3.289845E-05,26.271,0,1.7514,-2.819867E-05,26.271,0
1.7523,3.860533E-05,26.2845,0,1.7523,-5.774014E-05,26.2845,0
1.7532,-5.539025E-05,26.298,0,1.7532,-2.987716E-05,26.298,0
1.7541,-9.500267E-05,26.3115,0,1.7541,-4.229801E-05,26.3115,0
1.755,-3.659113E-05,26.325,0,1.755,-6.243992E-05,26.325,0
1.7559,-7.217517E-05,26.3385,0,1.7559,-8.224613E-05,26.3385,0
1.7568,-5.673304E-05,26.352,0,1.7568,-8.92958E-05,26.352,0
1.7577,-4.901198E-05,26.3655,0,1.7577,-5.841154E-05,26.3655,0
1.7586,-7.016098E-05,26.379,0,1.7586,-2.920577E-05,26.379,0
1.7595,-1.577783E-05,26.3925,0,1.7595,-3.457694E-05,26.3925,0
1.7604,-9.399558E-06,26.406,0,1.7604,-4.196231E-05,26.406,0
1.7613,-5.035477E-06,26.4195,0,1.7613,-1.141375E-05,26.4195,0
1.7622,5.203327E-05,26.433,0,1.7622,3.356985E-07,26.433,0
1.7631,0.0001044022,26.4465,0,1.7631,-5.035477E-06,26.4465,0
1.764,3.726253E-05,26.46,0,1.764,3.491264E-05,26.46,0
1.7649,2.584878E-05,26.4735,0,1.7649,5.673304E-05,26.4735,0
1.7658,6.210422E-05,26.487,0,1.7658,1.779202E-05,26.487,0
1.7667,0.0001000381,26.5005,0,1.7667,1.510643E-05,26.5005,0
1.7676,4.263371E-05,26.514,0,1.7676,3.424125E-05,26.514,0
1.7685,2.1149E-05,26.5275,0,1.7685,1.947051E-05,26.5275,0
1.7694,6.948959E-05,26.541,0,1.7694,-4.36408E-06,26.541,0
1.7703,0.0001161517,26.5545,0,1.7703,-5.270466E-05,26.5545,0
1.7712,7.486076E-05,26.568,0,1.7712,-4.196231E-05,26.568,0
1.7721,5.706874E-06,26.5815,0,1.7721,-3.054856E-05,26.5815,0
1.773,6.78111E-05,26.595,0,1.773,-7.553216E-05,26.595,0
1.7739,6.6804E-05,26.6085,0,1.7739,-8.661021E-05,26.6085,0
1.7748,-6.042573E-06,26.622,0,1.7748,-5.304036E-05,26.622,0
1.7757,4.800488E-05,26.6355,0,1.7757,-8.627451E-05,26.6355,0
1.7766,0.0001151446,26.649,0,1.7766,-0.0001171588,26.649,0
1.7775,-1.577783E-05,26.6625,0,1.7775,-7.351797E-05,26.6625,0
1.7784,5.035477E-05,26.676,0,1.7784,-9.164568E-05,26.676,0
1.7793,9.835965E-05,26.6895,0,1.7793,-0.0001292439,26.6895,0
1.7802,-4.53193E-05,26.703,0,1.7802,-0.0001070878,26.703,0
1.7811,-3.994812E-05,26.7165,0,1.7811,-7.721065E-05,26.7165,0
1.782,-2.047761E-05,26.73,0,1.782,-9.332418E-05,26.73,0
1.7829,-2.18204E-05,26.7435,0,1.7829,-8.96315E-05,26.7435,0
1.7838,-4.36408E-06,26.757,0,1.7838,-8.426032E-05,26.757,0
1.7847,-1.980621E-05,26.7705,0,1.7847,-6.009003E-05,26.7705,0
1.7856,-3.256275E-05,26.784,0,1.7856,-2.786297E-05,26.784,0
1.7865,-6.143282E-05,26.7975,0,1.7865,-4.565499E-05,26.7975,0
1.7874,-3.021286E-06,26.811,0,1.7874,-3.189136E-05,26.811,0
1.7883,-2.752728E-05,26.8245,0,1.7883,2.752728E-05,26.8245,0
1.7892,-4.867628E-05,26.838,0,1.7892,2.18204E-05,26.838,0
1.7901,2.014191E-06,26.8515,0,1.7901,-2.047761E-05,26.8515,0
1.791,-6.478981E-05,26.865,0,1.791,2.853437E-05,26.865,0
1.7919,-3.558404E-05,26.8785,0,1.7919,5.270466E-05,26.8785,0
1.7928,2.014191E-05,26.892,0,1.7928,3.659113E-05,26.892,0
1.7937,1.510643E-05,26.9055,0,1.7937,2.1149E-05,26.9055,0
1.7946,-9.970245E-05,26.919,0,1.7946,3.424125E-05,26.919,0
1.7955,-4.766919E-05,26.9325,0,1.7955,3.356985E-05,26.9325,0
1.7964,-3.457694E-05,26.946,0,1.7964,1.980621E-05,26.946,0
1.7973,3.692683E-06,26.9595,0,1.7973,-3.021286E-06,26.9595,0
1.7982,-8.224613E-05,26.973,0,1.7982,1.040665E-05,26.973,0
1.7991,-0.0001218585,26.9865,0,1.7991,-1.007095E-06,26.9865,0
1.8,-9.433127E-05,27,0,1.8,-2.853437E-05,27,0
1.8009,-8.92958E-05,27.0135,0,1.8009,-2.081331E-05,27.0135,0
1.8018,-0.0001225299,27.027,0,1.8018,-5.035477E-06,27.027,0
1.8027,-0.000119173,27.0405,0,1.8027,-2.14847E-05,27.0405,0
1.8036,-9.567407E-05,27.054,0,1.8036,-3.826963E-05,27.054,0
1.8045,-0.0001329366,27.0675,0,1.8045,1.779202E-05,27.0675,0
1.8054,-5.941863E-05,27.081,0,1.8054,1.174945E-05,27.081,0
1.8063,-1.678492E-06,27.0945,0,1.8063,-8.728161E-06,27.0945,0
1.8072,-5.001907E-05,27.108,0,1.8072,5.035477E-06,27.108,0
1.8081,-4.39765E-05,27.1215,0,1.8081,1.040665E-05,27.1215,0
1.809,-4.129091E-05,27.135,0,1.809,-1.309224E-05,27.135,0
1.8099,-8.728161E-06,27.1485,0,1.8099,-2.450599E-05,27.1485,0
1.8108,4.36408E-05,27.162,0,1.8108,-3.256275E-05,27.162,0
1.8117,1.577783E-05,27.1755,0,1.8117,-2.450599E-05,27.1755,0
1.8126,4.53193E-05,27.189,0,1.8126,-2.450599E-05,27.189,0
1.8135,8.426032E-05,27.2025,0,1.8135,-5.505455E-05,27.2025,0
1.8144,9.701686E-05,27.216,0,1.8144,-5.740444E-05,27.216,0
1.8153,2.1149E-05,27.2295,0,1.8153,-2.618448E-05,27.2295,0
1.8162,6.478981E-05,27.243,0,1.8162,-4.867628E-05,27.243,0
1.8171,9.701686E-05,27.2565,0,1.8171,-6.61326E-05,27.2565,0
1.818,2.24918E-05,27.27,0,1.818,-3.591974E-05,27.27,0
1.8189,2.383459E-05,27.2835,0,1.8189,-4.061952E-05,27.2835,0
1.8198,5.908293E-05,27.297,0,1.8198,-4.46479E-05,27.297,0
