X[s],"Trigno IM sensor 3: EMG 3 (IM)",X[s],"Trigno IM sensor 3: Mag 3.Z (IM)",X[s],"Trigno IM sensor 4: EMG 4 (IM)",X[s],"Trigno IM sensor 4: Mag 4.Z (IM)"
0.000000,-9.735256E-06,0.000000,120,0.000000,-2.954147E-05,0.000000,1
0.0009,-1.510643E-05,0.0135,120,0.0009,1.107805E-05,0.0135,0
0.0018,-1.510643E-05,0.027,120,0.0018,2.383459E-05,0.027,-1
0.0027,-1.678492E-06,0.0405,121,0.0027,9.063859E-06,0.0405,0
0.0036,-1.577783E-05,0.054,119,0.0036,8.728161E-06,0.054,-3
0.0045,-1.376364E-05,0.0675,120,0.0045,3.356985E-06,0.0675,0
0.0054,-2.484169E-05,0.081,120,0.0054,7.049668E-06,0.081,-3
0.0063,-2.014191E-05,0.0945,121,0.0063,4.36408E-06,0.0945,-1
0.0072,7.721065E-06,0.108,120,0.0072,-8.392462E-06,0.108,1
0.0081,-2.014191E-06,0.1215,119,0.0081,-3.256275E-05,0.1215,-1
0.009000001,-1.846342E-05,0.135,119,0.009000001,-4.666209E-05,0.135,-1
0.0099,2.24918E-05,0.1485,119,0.0099,-4.666209E-05,0.1485,0
0.0108,2.484169E-05,0.162,121,0.0108,-2.786297E-05,0.162,-2
0.0117,-1.342794E-06,0.1755,120,0.0117,-3.558404E-05,0.1755,2
0.0126,1.779202E-05,0.189,119,0.0126,-2.987716E-05,0.189,0
0.0135,1.309224E-05,0.2025,119,0.0135,-2.316319E-05,0.2025,-1
0.0144,-4.699779E-06,0.216,118,0.0144,-4.263371E-05,0.216,0
0.0153,-3.021286E-06,0.2295,120,0.0153,-4.129091E-05,0.2295,0
0.0162,-4.699779E-06,0.243,118,0.0162,-4.196231E-05,0.243,-1
0.0171,-4.162661E-05,0.2565,121,0.0171,-4.36408E-05,0.2565,2
0.018,-5.203327E-05,0.27,117,0.018,-3.021286E-05,0.27,-1
0.0189,-2.450599E-05,0.2835,119,0.0189,-2.584878E-05,0.2835,-3
0.0198,-1.577783E-05,0.297,119,0.0198,-3.121996E-05,0.297,-2
0.0207,-3.591974E-05,0.3105,120,0.0207,-1.644922E-05,0.3105,1
0.0216,-1.443504E-05,0.324,120,0.0216,-2.987716E-05,0.324,1
0.0225,-9.735256E-06,0.3375,119,0.0225,-1.812772E-05,0.3375,0
0.0234,1.040665E-05,0.351,120,0.0234,-2.517739E-05,0.351,1
0.0243,-7.049668E-06,0.3645,118,0.0243,-4.733349E-05,0.3645,-1
0.0252,-2.987716E-05,0.378,119,0.0252,-3.524834E-05,0.378,0
0.0261,-2.047761E-05,0.3915,119,0.0261,-2.18204E-05,0.3915,0
0.027,-7.049668E-06,0.405,120,0.027,-2.652018E-05,0.405,0
0.0279,-1.107805E-05,0.4185,119,0.0279,-2.349889E-05,0.4185,-3
0.0288,-2.417029E-05,0.432,119,0.0288,-3.457694E-05,0.432,2
0.0297,-5.035477E-06,0.4455,120,0.0297,-2.28275E-05,0.4455,0
0.0306,-3.121996E-05,0.459,120,0.0306,1.644922E-05,0.459,1
0.0315,-1.644922E-05,0.4725,121,0.0315,-2.383459E-05,0.4725,0
0.0324,-3.356985E-06,0.486,119,0.0324,-3.390555E-05,0.486,-2
0.0333,-2.316319E-05,0.4995,119,0.0333,7.721065E-06,0.4995,-1
0.0342,-1.174945E-05,0.513,119,0.0342,-1.443504E-05,0.513,-1
0.0351,2.349889E-06,0.5265,119,0.0351,-5.136187E-05,0.5265,0
0.036,-3.356985E-07,0.54,119,0.036,-6.378271E-06,0.54,1
0.0369,2.584878E-05,0.5535,120,0.0369,-7.721065E-06,0.5535,2
0.0378,1.040665E-05,0.567,119,0.0378,-4.33051E-05,0.567,-1
0.0387,2.517739E-05,0.5805,120,0.0387,-1.846342E-05,0.5805,0
0.0396,5.706874E-06,0.594,119,0.0396,2.014191E-06,0.594,-1
0.0405,1.947051E-05,0.6075,119,0.0405,-9.735256E-06,0.6075,0
0.0414,2.081331E-05,0.621,120,0.0414,-1.913481E-05,0.621,-1
0.0423,1.174945E-05,0.6345,120,0.0423,-2.484169E-05,0.6345,-1
0.0432,7.721065E-06,0.648,121,0.0432,-4.028382E-06,0.648,0
0.0441,-5.438316E-05,0.6615,120,0.0441,-2.987716E-05,0.6615,0
0.045,-3.726253E-05,0.675,120,0.045,-4.934768E-05,0.675,-3
0.0459,-1.309224E-05,0.6885,119,0.0459,-5.471885E-05,0.6885,0
0.0468,-3.659113E-05,0.702,120,0.0468,-2.349889E-06,0.702,-1
0.0477,-2.28275E-05,0.7155,121,0.0477,-2.081331E-05,0.7155,0
0.0486,1.544213E-05,0.729,120,0.0486,-5.304036E-05,0.729,-1
0.0495,-2.316319E-05,0.7425,119,0.0495,1.443504E-05,0.7425,-2
0.0504,3.021286E-06,0.756,119,0.0504,2.1149E-05,0.756,-2
0.0513,-3.021286E-06,0.7695,120,0.0513,-3.054856E-05,0.7695,-3
0.0522,-3.692683E-06,0.783,120,0.0522,-5.035477E-06,0.783,0
0.0531,-1.007095E-05,0.7965,120,0.0531,1.980621E-05,0.7965,-3
0.054,-1.510643E-05,0.81,121,0.054,2.349889E-06,0.81,-2
0.0549,-5.706874E-06,0.8235,120,0.0549,5.706874E-06,0.8235,-3
0.0558,-3.021286E-06,0.837,120,0.0558,-3.256275E-05,0.837,1
0.0567,3.356985E-06,0.8505,121,0.0567,-2.349889E-06,0.8505,0
0.0576,6.713969E-06,0.864,120,0.0576,2.014191E-05,0.864,-1
0.0585,-1.644922E-05,0.8775,120,0.0585,-4.028382E-06,0.8775,0
0.0594,-1.644922E-05,0.891,122,0.0594,-5.337606E-05,0.891,0
0.0603,-1.644922E-05,0.9045,121,0.0603,-1.678492E-06,0.9045,-1
0.0612,-2.450599E-05,0.918,120,0.0612,1.678492E-06,0.918,0
0.0621,-3.356985E-07,0.9315,121,0.0621,-4.33051E-05,0.9315,0
0.063,-1.107805E-05,0.945,120,0.063,-6.378271E-06,0.945,0
0.0639,9.063859E-06,0.9585,120,0.0639,2.349889E-06,0.9585,0
0.0648,2.987716E-05,0.972,122,0.0648,-3.994812E-05,0.972,0
0.0657,1.644922E-05,0.9855,121,0.0657,-3.356985E-05,0.9855,0
0.0666,-1.577783E-05,0.999,121,0.0666,9.735256E-06,0.999,-2
0.0675,-5.035477E-06,1.0125,122,0.0675,-1.242084E-05,1.0125,-1
0.0684,6.713969E-07,1.026,122,0.0684,-2.014191E-05,1.026,-3
0.0693,1.577783E-05,1.0395,121,0.0693,-4.934768E-05,1.0395,-1
0.0702,5.706874E-06,1.053,123,0.0702,-2.18204E-05,1.053,1
0.0711,4.36408E-06,1.0665,122,0.0711,1.007095E-06,1.0665,0
0.072,1.309224E-05,1.08,122,0.072,-2.887007E-05,1.08,-1
0.0729,7.721065E-06,1.0935,122,0.0729,-5.471885E-05,1.0935,0
0.07380001,-1.141375E-05,1.107,122,0.07380001,-5.035477E-06,1.107,0
0.07470001,-4.699779E-06,1.1205,120,0.07470001,-1.745632E-05,1.1205,0
0.0756,-1.309224E-05,1.134,121,0.0756,-6.143282E-05,1.134,0
0.0765,-2.450599E-05,1.1475,120,0.0765,-1.107805E-05,1.1475,-1
0.0774,-2.21561E-05,1.161,121,0.0774,-9.063859E-06,1.161,0
0.0783,-4.666209E-05,1.1745,121,0.0783,-4.699779E-05,1.1745,0
0.0792,-3.994812E-05,1.188,122,0.0792,-3.994812E-05,1.188,0
0.0801,-2.819867E-05,1.2015,121,0.0801,-7.385367E-06,1.2015,-1
0.081,-3.155566E-05,1.215,121,0.081,-1.947051E-05,1.215,1
0.0819,-3.121996E-05,1.2285,121,0.0819,-3.155566E-05,1.2285,0
0.0828,-3.692683E-06,1.242,121,0.0828,-4.33051E-05,1.242,0
0.0837,3.021286E-06,1.2555,122,0.0837,-5.035477E-06,1.2555,-2
0.0846,3.356985E-06,1.269,121,0.0846,1.309224E-05,1.269,-1
0.0855,7.385367E-06,1.2825,121,0.0855,-1.107805E-05,1.2825,-1
0.0864,1.007095E-05,1.296,122,0.0864,-3.457694E-05,1.296,-1
0.0873,-1.409934E-05,1.3095,123,0.0873,7.385367E-06,1.3095,-1
0.0882,-2.014191E-06,1.323,122,0.0882,-1.678492E-06,1.323,-1
0.0891,1.577783E-05,1.3365,121,0.0891,-4.39765E-05,1.3365,-2
0.09,-6.713969E-06,1.35,121,0.09,-1.342794E-06,1.35,0
0.0909,-2.349889E-05,1.3635,122,0.0909,2.316319E-05,1.3635,0
0.0918,-1.342794E-05,1.377,122,0.0918,-1.376364E-05,1.377,-2
0.0927,2.786297E-05,1.3905,123,0.0927,-5.706874E-06,1.3905,0
0.0936,-6.378271E-06,1.404,121,0.0936,1.812772E-05,1.404,-3
0.09450001,-1.678492E-06,1.4175,122,0.09450001,1.879912E-05,1.4175,0
0.09540001,2.014191E-06,1.431,122,0.09540001,-3.021286E-06,1.431,1
0.09630001,-4.699779E-06,1.4445,122,0.09630001,-3.121996E-05,1.4445,0
0.0972,-1.644922E-05,1.458,122,0.0972,-2.18204E-05,1.458,1
0.0981,-1.242084E-05,1.4715,123,0.0981,-2.450599E-05,1.4715,-2
0.099,-3.692683E-06,1.485,122,0.099,-5.404745E-05,1.485,0
0.0999,5.035477E-06,1.4985,122,0.0999,-5.807584E-05,1.4985,2
0.1008,-1.443504E-05,1.512,123,0.1008,-1.678492E-06,1.512,0
0.1017,-2.920577E-05,1.5255,120,0.1017,-1.174945E-05,1.5255,0
0.1026,-2.349889E-05,1.539,123,0.1026,-4.49836E-05,1.539,1
0.1035,-1.577783E-05,1.5525,122,0.1035,-9.063859E-06,1.5525,-1
0.1044,-1.913481E-05,1.566,122,0.1044,6.378271E-06,1.566,-3
0.1053,-3.927672E-05,1.5795,122,0.1053,-3.189136E-05,1.5795,0
0.1062,-2.383459E-05,1.593,122,0.1062,-1.477073E-05,1.593,1
0.1071,-2.484169E-05,1.6065,121,0.1071,1.174945E-05,1.6065,0
0.108,-1.779202E-05,1.62,121,0.108,-1.913481E-05,1.62,0
0.1089,-1.577783E-05,1.6335,122,0.1089,-3.793393E-05,1.6335,1
0.1098,-4.699779E-06,1.647,120,0.1098,-4.901198E-05,1.647,0
0.1107,-4.36408E-06,1.6605,123,0.1107,-2.21561E-05,1.6605,-1
0.1116,1.443504E-05,1.674,121,0.1116,-1.577783E-05,1.674,-2
0.1125,1.544213E-05,1.6875,121,0.1125,-3.793393E-05,1.6875,0
0.1134,4.36408E-06,1.701,119,0.1134,-5.304036E-05,1.701,-1
0.1143,5.371176E-06,1.7145,122,0.1143,1.376364E-05,1.7145,0
0.1152,2.786297E-05,1.728,122,0.1152,-7.049668E-06,1.728,0
0.1161,3.189136E-05,1.7415,123,0.1161,-6.74754E-05,1.7415,0
0.117,7.721065E-06,1.755,122,0.117,-1.510643E-05,1.755,-1
0.1179,-1.107805E-05,1.7685,122,0.1179,6.042573E-06,1.7685,-3
0.1188,-2.383459E-05,1.782,122,0.1188,-2.450599E-05,1.782,0
0.1197,1.007095E-06,1.7955,122,0.1197,-3.323415E-05,1.7955,-1
0.1206,-1.107805E-05,1.809,122,0.1206,1.242084E-05,1.809,0
0.1215,3.356985E-06,1.8225,123,0.1215,1.040665E-05,1.8225,1
0.1224,-2.349889E-06,1.836,120,0.1224,-1.174945E-05,1.836,0
0.1233,5.035477E-06,1.8495,124,0.1233,-3.894102E-05,1.8495,0
0.1242,-1.107805E-05,1.863,122,0.1242,-9.399558E-06,1.863,-1
0.1251,-5.001907E-05,1.8765,122,0.1251,3.356985E-07,1.8765,-3
0.126,-2.786297E-05,1.89,123,0.126,-4.061952E-05,1.89,-2
0.1269,5.035477E-06,1.9035,122,0.1269,-4.196231E-05,1.9035,-1
0.1278,-1.980621E-05,1.917,123,0.1278,5.035477E-06,1.917,0
0.1287,-1.947051E-05,1.9305,122,0.1287,-9.735256E-06,1.9305,2
0.1296,1.040665E-05,1.944,123,0.1296,-5.606165E-05,1.944,2
0.1305,-1.376364E-05,1.9575,124,0.1305,9.399558E-06,1.9575,1
0.1314,-1.779202E-05,1.971,122,0.1314,-2.014191E-06,1.971,0
0.1323,7.721065E-06,1.9845,122,0.1323,-4.968337E-05,1.9845,0
0.1332,-2.584878E-05,1.998,122,0.1332,-2.987716E-05,1.998,0
0.1341,-3.793393E-05,2.0115,122,0.1341,-3.356985E-06,2.0115,0
0.135,1.678492E-06,2.025,123,0.135,-1.745632E-05,2.025,-3
0.1359,-5.706874E-06,2.0385,122,0.1359,-1.846342E-05,2.0385,1
0.1368,-1.678492E-06,2.052,121,0.1368,-4.061952E-05,2.052,0
0.1377,1.477073E-05,2.0655,123,0.1377,-1.812772E-05,2.0655,0
0.1386,1.712062E-05,2.079,123,0.1386,2.349889E-06,2.079,0
0.1395,1.309224E-05,2.0925,121,0.1395,-4.129091E-05,2.0925,0
0.1404,-9.063859E-06,2.106,122,0.1404,-4.800488E-05,2.106,-2
0.1413,-1.376364E-05,2.1195,122,0.1413,1.141375E-05,2.1195,-3
0.1422,8.728161E-06,2.133,122,0.1422,4.36408E-06,2.133,-2
0.1431,2.1149E-05,2.1465,123,0.1431,-5.136187E-05,2.1465,-1
0.144,4.632639E-05,2.16,121,0.144,3.356985E-07,2.16,0
0.1449,6.042573E-06,2.1735,122,0.1449,2.349889E-05,2.1735,-1
0.1458,-4.33051E-05,2.187,122,0.1458,-3.021286E-06,2.187,0
0.1467,-2.618448E-05,2.2005,123,0.1467,-1.376364E-05,2.2005,0
0.1476,-1.712062E-05,2.214,122,0.1476,1.544213E-05,2.214,1
0.1485,-2.752728E-05,2.2275,123,0.1485,4.36408E-06,2.2275,1
0.1494,-1.510643E-05,2.241,123,0.1494,-1.309224E-05,2.241,0
0.1503,1.141375E-05,2.2545,121,0.1503,-2.719158E-05,2.2545,-2
0.1512,1.342794E-06,2.268,122,0.1512,-2.18204E-05,2.268,-1
0.1521,-1.712062E-05,2.2815,123,0.1521,-2.517739E-05,2.2815,0
0.153,-1.007095E-06,2.295,123,0.153,-3.927672E-05,2.295,0
0.1539,-1.678492E-06,2.3085,122,0.1539,-5.035477E-05,2.3085,-1
0.1548,-1.443504E-05,2.322,121,0.1548,-9.399558E-06,2.322,2
0.1557,-2.014191E-06,2.3355,121,0.1557,-2.853437E-05,2.3355,0
0.1566,7.721065E-06,2.349,123,0.1566,-6.74754E-05,2.349,0
0.1575,-1.376364E-05,2.3625,122,0.1575,-6.378271E-06,2.3625,1
0.1584,2.1149E-05,2.376,122,0.1584,1.040665E-05,2.376,1
0.1593,1.577783E-05,2.3895,122,0.1593,-3.524834E-05,2.3895,0
0.1602,-3.289845E-05,2.403,123,0.1602,-1.879912E-05,2.403,1
0.1611,-2.18204E-05,2.4165,123,0.1611,1.712062E-05,2.4165,0
0.162,-5.706874E-06,2.43,123,0.162,5.035477E-06,2.43,0
0.1629,-1.846342E-05,2.4435,122,0.1629,-8.392462E-06,2.4435,1
0.1638,-1.309224E-05,2.457,124,0.1638,-4.46479E-05,2.457,0
0.1647,1.678492E-06,2.4705,124,0.1647,-1.544213E-05,2.4705,-1
0.1656,6.378271E-06,2.484,122,0.1656,-2.685588E-06,2.484,-1
0.1665,1.040665E-05,2.4975,122,0.1665,-2.652018E-05,2.4975,0
0.1674,4.53193E-05,2.511,122,0.1674,-3.994812E-05,2.511,0
0.1683,-1.007095E-06,2.5245,123,0.1683,1.342794E-05,2.5245,1
0.1692,-3.021286E-06,2.538,123,0.1692,5.706874E-06,2.538,0
0.1701,1.913481E-05,2.5515,121,0.1701,-5.606165E-05,2.5515,1
0.171,-1.510643E-05,2.565,122,0.171,-1.376364E-05,2.565,0
0.1719,-8.392462E-06,2.5785,121,0.1719,-1.678492E-06,2.5785,-4
0.1728,-1.040665E-05,2.592,122,0.1728,-4.129091E-05,2.592,0
0.1737,-3.961242E-05,2.6055,122,0.1737,-3.524834E-05,2.6055,-2
0.1746,-4.39765E-05,2.619,121,0.1746,6.713969E-06,2.619,0
0.1755,-4.46479E-05,2.6325,122,0.1755,-1.846342E-05,2.6325,-2
0.1764,-3.054856E-05,2.646,121,0.1764,-1.712062E-05,2.646,2
0.1773,-2.014191E-05,2.6595,122,0.1773,-4.095522E-05,2.6595,2
0.1782,-7.385367E-06,2.673,122,0.1782,-1.107805E-05,2.673,0
0.1791,1.678492E-06,2.6865,123,0.1791,-1.779202E-05,2.6865,0
0.18,-2.450599E-05,2.7,122,0.18,-4.162661E-05,2.7,-1
0.1809,-2.349889E-06,2.7135,123,0.1809,-5.203327E-05,2.7135,0
0.1818,1.678492E-06,2.727,123,0.1818,7.049668E-06,2.727,0
0.1827,-2.316319E-05,2.7405,122,0.1827,-2.081331E-05,2.7405,0
0.1836,-2.18204E-05,2.754,121,0.1836,-7.284657E-05,2.754,0
0.1845,-1.745632E-05,2.7675,122,0.1845,-1.376364E-05,2.7675,0
0.1854,-5.706874E-06,2.781,120,0.1854,1.074235E-05,2.781,0
0.1863,-3.021286E-06,2.7945,122,0.1863,-2.316319E-05,2.7945,0
0.1872,2.786297E-05,2.808,124,0.1872,-1.577783E-05,2.808,0
0.1881,3.121996E-05,2.8215,122,0.1881,2.18204E-05,2.8215,1
0.189,1.913481E-05,2.835,123,0.189,-2.685588E-06,2.835,2
0.1899,5.035477E-06,2.8485,123,0.1899,-1.846342E-05,2.8485,0
0.1908,3.088426E-05,2.862,123,0.1908,-3.659113E-05,2.862,1
0.1917,2.24918E-05,2.8755,123,0.1917,-2.786297E-05,2.8755,0
0.1926,-1.409934E-05,2.889,123,0.1926,-2.987716E-05,2.889,-1
0.1935,-8.728161E-06,2.9025,122,0.1935,-2.887007E-05,2.9025,-1
0.1944,7.049668E-06,2.916,122,0.1944,-4.196231E-05,2.916,0
0.1953,-1.577783E-05,2.9295,123,0.1953,5.706874E-06,2.9295,0
0.1962,-1.174945E-05,2.943,123,0.1962,-4.36408E-06,2.943,-1
0.1971,2.014191E-06,2.9565,122,0.1971,-5.270466E-05,2.9565,1
0.198,-1.409934E-05,2.97,123,0.198,7.721065E-06,2.97,0
0.1989,-2.316319E-05,2.9835,123,0.1989,2.1149E-05,2.9835,1
0.1998,-2.18204E-05,2.997,124,0.1998,-4.29694E-05,2.997,0
0.2007,-6.210422E-05,3.0105,124,0.2007,-3.121996E-05,3.0105,0
0.2016,-6.210422E-05,3.024,122,0.2016,5.371176E-06,3.024,-1
0.2025,-3.726253E-05,3.0375,0,0.2025,5.035477E-06,3.0375,0
0.2034,-2.517739E-05,3.051,0,0.2034,-1.779202E-05,3.051,0
0.2043,-1.644922E-05,3.0645,0,0.2043,-4.666209E-05,3.0645,0
0.2052,-4.699779E-06,3.078,0,0.2052,-5.371176E-06,3.078,0
0.2061,-1.846342E-05,3.0915,0,0.2061,-2.349889E-06,3.0915,0
0.207,-2.349889E-05,3.105,0,0.207,-3.927672E-05,3.105,0
0.2079,8.056763E-06,3.1185,0,0.2079,-4.53193E-05,3.1185,0
0.2088,-1.712062E-05,3.132,0,0.2088,-3.356985E-06,3.132,0
0.2097,-2.24918E-05,3.1455,0,0.2097,-1.678492E-05,3.1455,0
0.2106,5.035477E-06,3.159,0,0.2106,-5.404745E-05,3.159,0
0.2115,-5.035477E-06,3.1725,0,0.2115,-9.735256E-06,3.1725,0
0.2124,8.728161E-06,3.186,0,0.2124,1.007095E-06,3.186,0
0.2133,2.1149E-05,3.1995,0,0.2133,-3.759823E-05,3.1995,0
0.2142,1.174945E-05,3.213,0,0.2142,-2.450599E-05,3.213,0
0.2151,6.378271E-06,3.2265,0,0.2151,1.678492E-06,3.2265,0
0.216,9.063859E-06,3.24,0,0.216,-1.309224E-05,3.24,0
0.2169,1.040665E-05,3.2535,0,0.2169,-3.054856E-05,3.2535,0
0.2178,2.349889E-06,3.267,0,0.2178,-5.438316E-05,3.267,0
0.2187,-7.385367E-06,3.2805,0,0.2187,-2.21561E-05,3.2805,0
0.2196,-3.390555E-05,3.294,0,0.2196,-1.040665E-05,3.294,0
0.2205,-3.659113E-05,3.3075,0,0.2205,-4.46479E-05,3.3075,0
0.2214,-4.129091E-05,3.321,0,0.2214,-6.176852E-05,3.321,0
0.2223,-3.826963E-05,3.3345,0,0.2223,-3.356985E-07,3.3345,0
0.2232,-6.042573E-06,3.348,0,0.2232,-1.812772E-05,3.348,0
0.2241,-1.510643E-05,3.3615,0,0.2241,-5.740444E-05,3.3615,0
0.225,-1.275654E-05,3.375,0,0.225,-3.356985E-07,3.375,0
0.2259,4.632639E-05,3.3885,0,0.2259,9.735256E-06,3.3885,0
0.2268,3.994812E-05,3.402,0,0.2268,-3.121996E-05,3.402,0
0.2277,1.846342E-05,3.4155,0,0.2277,-1.040665E-05,3.4155,0
0.2286,1.947051E-05,3.429,0,0.2286,7.049668E-06,3.429,0
0.2295,6.378271E-06,3.4425,0,0.2295,1.678492E-06,3.4425,0
0.2304,-1.510643E-05,3.456,0,0.2304,-1.913481E-05,3.456,0
0.2313,-6.713969E-07,3.4695,0,0.2313,-3.659113E-05,3.4695,0
0.2322,-2.685588E-06,3.483,0,0.2322,3.356985E-06,3.483,0
0.2331,-7.049668E-06,3.4965,0,0.2331,-2.349889E-06,3.4965,0
0.234,-2.014191E-06,3.51,0,0.234,-3.390555E-05,3.51,0
0.2349,6.713969E-07,3.5235,0,0.2349,-4.095522E-05,3.5235,0
0.2358,-2.18204E-05,3.537,0,0.2358,-1.342794E-06,3.537,0
0.2367,-2.349889E-05,3.5505,0,0.2367,-1.611353E-05,3.5505,0
0.2376,-2.014191E-06,3.564,0,0.2376,-5.539025E-05,3.564,0
0.2385,-1.879912E-05,3.5775,0,0.2385,3.692683E-06,3.5775,0
0.2394,-3.356985E-05,3.591,0,0.2394,1.678492E-05,3.591,0
0.2403,-1.980621E-05,3.6045,0,0.2403,-3.054856E-05,3.6045,0
0.2412,-4.599069E-05,3.618,0,0.2412,1.477073E-05,3.618,0
0.2421,-5.270466E-05,3.6315,0,0.2421,1.846342E-05,3.6315,0
0.243,-1.208515E-05,3.645,0,0.243,2.349889E-06,3.645,0
0.2439,-3.323415E-05,3.6585,0,0.2439,-8.392462E-06,3.6585,0
0.2448,-3.591974E-05,3.672,0,0.2448,-3.793393E-05,3.672,0
0.2457,-1.678492E-05,3.6855,0,0.2457,-1.409934E-05,3.6855,0
0.2466,-1.174945E-05,3.699,0,0.2466,9.063859E-06,3.699,0
0.2475,-7.049668E-06,3.7125,0,0.2475,-2.853437E-05,3.7125,0
0.2484,3.021286E-06,3.726,0,0.2484,-3.558404E-05,3.726,0
0.2493,9.399558E-06,3.7395,0,0.2493,1.208515E-05,3.7395,0
0.2502,2.1149E-05,3.753,0,0.2502,6.042573E-06,3.753,0
0.2511,2.24918E-05,3.7665,0,0.2511,-5.539025E-05,3.7665,0
0.252,2.383459E-05,3.78,0,0.252,-1.107805E-05,3.78,0
0.2529,3.692683E-05,3.7935,0,0.2529,5.035477E-06,3.7935,0
0.2538,4.129091E-05,3.807,0,0.2538,-3.289845E-05,3.807,0
0.2547,3.793393E-05,3.8205,0,0.2547,-4.666209E-05,3.8205,0
0.2556,9.399558E-06,3.834,0,0.2556,-5.706874E-06,3.834,0
0.2565,-1.510643E-05,3.8475,0,0.2565,-1.947051E-05,3.8475,0
0.2574,3.692683E-06,3.861,0,0.2574,-3.289845E-05,3.861,0
0.2583,2.920577E-05,3.8745,0,0.2583,-3.961242E-05,3.8745,0
0.2592,-5.706874E-06,3.888,0,0.2592,-1.846342E-05,3.888,0
0.2601,-1.107805E-05,3.9015,0,0.2601,-7.721065E-06,3.9015,0
0.261,9.399558E-06,3.915,0,0.261,-3.826963E-05,3.915,0
0.2619,-7.049668E-06,3.9285,0,0.2619,-5.035477E-05,3.9285,0
0.2628,-2.014191E-05,3.942,0,0.2628,-1.107805E-05,3.942,0
0.2637,-6.042573E-06,3.9555,0,0.2637,-2.383459E-05,3.9555,0
0.2646,-6.042573E-06,3.969,0,0.2646,-6.042573E-05,3.969,0
0.2655,-1.846342E-05,3.9825,0,0.2655,-5.706874E-06,3.9825,0
0.2664,-2.920577E-05,3.996,0,0.2664,-1.510643E-05,3.996,0
0.2673,-4.599069E-05,4.0095,0,0.2673,-4.43122E-05,4.0095,0
0.2682,1.678492E-06,4.023,0,0.2682,-4.53193E-05,4.023,0
0.2691,-2.18204E-05,4.0365,0,0.2691,-1.040665E-05,4.0365,0
0.27,-1.107805E-05,4.05,0,0.27,-1.443504E-05,4.05,0
0.2709,-1.947051E-05,4.0635,0,0.2709,-1.980621E-05,4.0635,0
0.2718,-2.28275E-05,4.077,0,0.2718,-5.673304E-05,4.077,0
0.2727,-2.1149E-05,4.0905,0,0.2727,-2.18204E-05,4.0905,0
0.2736,-3.692683E-05,4.104,0,0.2736,-6.713969E-07,4.104,0
0.2745,-2.685588E-05,4.1175,0,0.2745,-2.014191E-05,4.1175,0
0.2754,-2.014191E-06,4.131,0,0.2754,-4.867628E-05,4.131,0
0.2763,-1.309224E-05,4.1445,0,0.2763,1.510643E-05,4.1445,0
0.2772,-1.712062E-05,4.158,0,0.2772,1.141375E-05,4.158,0
0.2781,6.042573E-06,4.1715,0,0.2781,-4.632639E-05,4.1715,0
0.279,-2.819867E-05,4.185,0,0.279,1.678492E-06,4.185,0
0.2799,-2.652018E-05,4.1985,0,0.2799,2.014191E-05,4.1985,0
0.2808,-1.007095E-06,4.212,0,0.2808,-1.510643E-05,4.212,0
0.2817,-1.309224E-05,4.2255,0,0.2817,-2.081331E-05,4.2255,0
0.2826,-1.745632E-05,4.239,0,0.2826,1.040665E-05,4.239,0
0.2835,-2.383459E-05,4.2525,0,0.2835,-1.913481E-05,4.2525,0
0.2844,-1.510643E-05,4.266,0,0.2844,-2.24918E-05,4.266,0
0.2853,0,4.2795,0,0.2853,-3.524834E-05,4.2795,0
0.2862,5.035477E-06,4.293,0,0.2862,3.356985E-06,4.293,0
0.2871,-2.014191E-06,4.3065,0,0.2871,-2.349889E-06,4.3065,0
0.288,-4.36408E-05,4.32,0,0.288,-4.33051E-05,4.32,0
0.2889,-2.1149E-05,4.3335,0,0.2889,-3.793393E-05,4.3335,0
0.2898,1.007095E-06,4.347,0,0.2898,9.735256E-06,4.347,0
0.2907,-9.735256E-06,4.3605,0,0.2907,-9.063859E-06,4.3605,0
0.2916,6.378271E-06,4.374,0,0.2916,-5.203327E-05,4.374,0
0.2925,1.980621E-05,4.3875,0,0.2925,0,4.3875,0
0.2934,5.740444E-05,4.401,0,0.2934,1.712062E-05,4.401,0
0.2943,2.752728E-05,4.4145,0,0.2943,-1.980621E-05,4.4145,0
0.2952,-1.174945E-05,4.428,0,0.2952,-9.399558E-06,4.428,0
0.2961,-4.36408E-06,4.4415,0,0.2961,1.879912E-05,4.4415,0
0.297,-7.385367E-06,4.455,0,0.297,2.349889E-06,4.455,0
0.2979,9.735256E-06,4.4685,0,0.2979,-7.721065E-06,4.4685,0
0.2988,2.014191E-06,4.482,0,0.2988,-3.121996E-05,4.482,0
0.2997,4.36408E-06,4.4955,0,0.2997,-2.18204E-05,4.4955,0
0.3006,-7.721065E-06,4.509,0,0.3006,9.399558E-06,4.509,0
0.3015,-2.517739E-05,4.5225,0,0.3015,-1.309224E-05,4.5225,0
0.3024,-2.1149E-05,4.536,0,0.3024,-4.934768E-05,4.536,0
0.3033,-2.652018E-05,4.5495,0,0.3033,6.378271E-06,4.5495,0
0.3042,-1.376364E-05,4.563,0,0.3042,-1.409934E-05,4.563,0
0.3051,2.081331E-05,4.5765,0,0.3051,-6.61326E-05,4.5765,0
0.306,5.035477E-06,4.59,0,0.306,-8.392462E-06,4.59,0
0.3069,3.256275E-05,4.6035,0,0.3069,-1.242084E-05,4.6035,0
0.3078,3.726253E-05,4.617,0,0.3078,-5.539025E-05,4.617,0
0.3087,-3.356985E-07,4.6305,0,0.3087,-4.53193E-05,4.6305,0
0.3096,6.713969E-07,4.644,0,0.3096,-7.721065E-06,4.644,0
0.3105,-1.376364E-05,4.6575,0,0.3105,-1.779202E-05,4.6575,0
0.3114,-1.812772E-05,4.671,0,0.3114,-3.659113E-05,4.671,0
0.3123,-1.678492E-06,4.6845,0,0.3123,-5.539025E-05,4.6845,0
0.3132,-2.014191E-06,4.698,0,0.3132,-1.678492E-05,4.698,0
0.3141,-3.927672E-05,4.7115,0,0.3141,-1.376364E-05,4.7115,0
0.315,-3.088426E-05,4.725,0,0.315,-3.591974E-05,4.725,0
0.3159,-2.383459E-05,4.7385,0,0.3159,-4.43122E-05,4.7385,0
0.3168,-5.371176E-06,4.752,0,0.3168,7.721065E-06,4.752,0
0.3177,2.349889E-06,4.7655,0,0.3177,-1.309224E-05,4.7655,0
0.3186,6.378271E-06,4.779,0,0.3186,-6.54612E-05,4.779,0
0.3195,-8.392462E-06,4.7925,0,0.3195,-1.107805E-05,4.7925,0
0.3204,2.685588E-05,4.806,0,0.3204,1.577783E-05,4.806,0
0.3213,3.524834E-05,4.8195,0,0.3213,-1.477073E-05,4.8195,0
0.3222,7.721065E-06,4.833,0,0.3222,9.399558E-06,4.833,0
0.3231,-3.390555E-05,4.8465,0,0.3231,1.141375E-05,4.8465,0
0.324,-3.256275E-05,4.86,0,0.324,-8.392462E-06,4.86,0
0.3249,-1.141375E-05,4.8735,0,0.3249,3.021286E-06,4.8735,0
0.3258,-1.980621E-05,4.887,0,0.3258,-3.256275E-05,4.887,0
0.3267,-3.356985E-07,4.9005,0,0.3267,-2.584878E-05,4.9005,0
0.3276,-3.356985E-06,4.914,0,0.3276,2.014191E-06,4.914,0
0.3285,-2.517739E-05,4.9275,0,0.3285,-4.129091E-05,4.9275,0
0.3294,-9.735256E-06,4.941,0,0.3294,-5.337606E-05,4.941,0
0.3303,-1.712062E-05,4.9545,0,0.3303,1.174945E-05,4.9545,0
0.3312,-1.174945E-05,4.968,0,0.3312,-1.107805E-05,4.968,0
0.3321,-1.174945E-05,4.9815,0,0.3321,-5.337606E-05,4.9815,0
0.333,-2.28275E-05,4.995,0,0.333,-1.174945E-05,4.995,0
0.3339,1.040665E-05,5.0085,0,0.3339,-1.007095E-06,5.0085,0
0.3348,-8.392462E-06,5.022,0,0.3348,-4.39765E-05,5.022,0
0.3357,1.141375E-05,5.0355,0,0.3357,-3.356985E-05,5.0355,0
0.3366,9.063859E-06,5.049,0,0.3366,-7.049668E-06,5.049,0
0.3375,6.042573E-06,5.0625,0,0.3375,-1.980621E-05,5.0625,0
0.3384,-8.392462E-06,5.076,0,0.3384,-3.894102E-05,5.076,0
0.3393,7.721065E-06,5.0895,0,0.3393,-5.941863E-05,5.0895,0
0.3402,-1.107805E-05,5.103,0,0.3402,-1.980621E-05,5.103,0
0.3411,-7.586786E-05,5.1165,0,0.3411,1.577783E-05,5.1165,0
0.342,-4.666209E-05,5.13,0,0.342,-3.692683E-06,5.13,0
0.3429,-1.107805E-05,5.1435,0,0.3429,-4.229801E-05,5.1435,0
0.3438,-4.095522E-05,5.157,0,0.3438,-1.007095E-06,5.157,0
0.3447,-8.056763E-06,5.1705,0,0.3447,-4.699779E-06,5.1705,0
0.3456,1.745632E-05,5.184,0,0.3456,-4.867628E-05,5.184,0
0.3465,-1.007095E-06,5.1975,0,0.3465,1.678492E-06,5.1975,0
0.3474,2.316319E-05,5.211,0,0.3474,-8.392462E-06,5.211,0
0.3483,2.517739E-05,5.2245,0,0.3483,-4.061952E-05,5.2245,0
0.3492,-2.349889E-05,5.238,0,0.3492,-3.491264E-05,5.238,0
0.3501,-1.644922E-05,5.2515,0,0.3501,-1.779202E-05,5.2515,0
0.351,1.174945E-05,5.265,0,0.351,-1.107805E-05,5.265,0
0.3519,-1.107805E-05,5.2785,0,0.3519,-7.049668E-06,5.2785,0
0.3528,-4.699779E-06,5.292,0,0.3528,-4.162661E-05,5.292,0
0.3537,5.035477E-06,5.3055,0,0.3537,-4.028382E-06,5.3055,0
0.3546,-1.678492E-06,5.319,0,0.3546,1.779202E-05,5.319,0
0.3555,-2.786297E-05,5.3325,0,0.3555,-3.121996E-05,5.3325,0
0.3564,-1.812772E-05,5.346,0,0.3564,-3.994812E-05,5.346,0
0.3573,-1.174945E-05,5.3595,0,0.3573,7.721065E-06,5.3595,0
0.3582,-8.392462E-06,5.373,0,0.3582,-3.692683E-06,5.373,0
0.3591,-6.713969E-06,5.3865,0,0.3591,-5.270466E-05,5.3865,0
0.36,-2.685588E-06,5.4,0,0.36,-2.349889E-06,5.4,0
0.3609,-6.042573E-06,5.4135,0,0.3609,6.713969E-06,5.4135,0
0.3618,3.356985E-07,5.427,0,0.3618,-3.558404E-05,5.427,0
0.3627,3.021286E-05,5.4405,0,0.3627,-1.510643E-05,5.4405,0
0.3636,-3.289845E-05,5.454,0,0.3636,7.385367E-06,5.454,0
0.3645,-3.457694E-05,5.4675,0,0.3645,3.356985E-07,5.4675,0
0.3654,-5.706874E-06,5.481,0,0.3654,-9.063859E-06,5.481,0
0.3663,5.706874E-06,5.4945,0,0.3663,-2.21561E-05,5.4945,0
0.3672,-7.721065E-06,5.508,0,0.3672,-1.309224E-05,5.508,0
0.3681,-3.625543E-05,5.5215,0,0.3681,-1.913481E-05,5.5215,0
0.369,-5.706874E-06,5.535,0,0.369,-3.793393E-05,5.535,0
0.3699,-2.081331E-05,5.5485,0,0.3699,-3.793393E-05,5.5485,0
0.3708,-2.417029E-05,5.562,0,0.3708,-4.699779E-06,5.562,0
0.3717,1.309224E-05,5.5755,0,0.3717,-1.040665E-05,5.5755,0
0.3726,6.713969E-07,5.589,0,0.3726,-5.371176E-05,5.589,0
0.3735,-5.035477E-06,5.6025,0,0.3735,-7.385367E-06,5.6025,0
0.3744,9.063859E-06,5.616,0,0.3744,1.107805E-05,5.616,0
0.3753,5.706874E-06,5.6295,0,0.3753,-2.450599E-05,5.6295,0
0.3762,3.256275E-05,5.643,0,0.3762,-2.18204E-05,5.643,0
0.3771,2.349889E-05,5.6565,0,0.3771,6.378271E-06,5.6565,0
0.378,4.36408E-06,5.67,0,0.378,6.378271E-06,5.67,0
0.3789,-2.584878E-05,5.6835,0,0.3789,-1.879912E-05,5.6835,0
0.3798,-1.678492E-06,5.697,0,0.3798,-4.39765E-05,5.697,0
0.3807,-4.36408E-06,5.7105,0,0.3807,-1.040665E-05,5.7105,0
0.3816,-6.74754E-05,5.724,0,0.3816,2.349889E-06,5.724,0
0.3825,-5.874724E-05,5.7375,0,0.3825,-2.719158E-05,5.7375,0
0.3834,-2.24918E-05,5.751,0,0.3834,-5.404745E-05,5.751,0
0.3843,-2.316319E-05,5.7645,0,0.3843,-7.385367E-06,5.7645,0
0.3852,8.728161E-06,5.778,0,0.3852,-6.378271E-06,5.778,0
0.3861,2.517739E-05,5.7915,0,0.3861,-6.64683E-05,5.7915,0
0.387,-2.1149E-05,5.805,0,0.387,-6.378271E-06,5.805,0
0.3879,1.309224E-05,5.8185,0,0.3879,-4.36408E-06,5.8185,0
0.3888,3.054856E-05,5.832,0,0.3888,-5.874724E-05,5.832,0
0.3897,-7.721065E-06,5.8455,0,0.3897,-3.356985E-05,5.8455,0
0.3906,-2.349889E-05,5.859,0,0.3906,-2.349889E-06,5.859,0
0.3915,-1.242084E-05,5.8725,0,0.3915,-1.644922E-05,5.8725,0
0.3924,-7.049668E-06,5.886,0,0.3924,-2.24918E-05,5.886,0
0.3933,-1.309224E-05,5.8995,0,0.3933,-4.162661E-05,5.8995,0
0.3942,1.040665E-05,5.913,0,0.3942,-3.692683E-06,5.913,0
0.3951,2.853437E-05,5.9265,0,0.3951,1.477073E-05,5.9265,0
0.396,-4.36408E-06,5.94,0,0.396,-2.316319E-05,5.94,0
0.3969,2.014191E-05,5.9535,0,0.3969,-2.652018E-05,5.9535,0
0.3978,1.107805E-05,5.967,0,0.3978,1.141375E-05,5.967,0
0.3987,-1.712062E-05,5.9805,0,0.3987,2.349889E-06,5.9805,0
0.3996,-1.007095E-06,5.994,0,0.3996,-6.478981E-05,5.994,0
0.4005,7.721065E-06,6.0075,0,0.4005,-1.309224E-05,6.0075,0
0.4014,-9.063859E-06,6.021,0,0.4014,-5.706874E-06,6.021,0
0.4023,-2.28275E-05,6.0345,0,0.4023,-5.001907E-05,6.0345,0
0.4032,-7.049668E-06,6.048,0,0.4032,-3.726253E-05,6.048,0
0.4041,-1.376364E-05,6.0615,0,0.4041,1.678492E-06,6.0615,0
0.405,-3.088426E-05,6.075,0,0.405,-2.014191E-05,6.075,0
0.4059,-3.256275E-05,6.0885,0,0.4059,-1.980621E-05,6.0885,0
0.4068,-1.275654E-05,6.102,0,0.4068,-4.699779E-05,6.102,0
0.4077,-1.947051E-05,6.1155,0,0.4077,-2.450599E-05,6.1155,0
0.4086,-5.203327E-05,6.129,0,0.4086,-5.035477E-06,6.129,0
0.4095,-4.196231E-05,6.1425,0,0.4095,-3.356985E-05,6.1425,0
0.4104,-1.309224E-05,6.156,0,0.4104,-4.53193E-05,6.156,0
0.4113,-2.920577E-05,6.1695,0,0.4113,1.342794E-06,6.1695,0
0.4122,-2.786297E-05,6.183,0,0.4122,-1.644922E-05,6.183,0
0.4131,-5.035477E-06,6.1965,0,0.4131,-5.874724E-05,6.1965,0
0.414,-2.719158E-05,6.21,0,0.414,6.378271E-06,6.21,0
0.4149,2.584878E-05,6.2235,0,0.4149,1.913481E-05,6.2235,0
0.4158,4.934768E-05,6.237,0,0.4158,-2.887007E-05,6.237,0
0.4167,-2.887007E-05,6.2505,0,0.4167,-1.980621E-05,6.2505,0
0.4176,-1.107805E-05,6.264,0,0.4176,1.980621E-05,6.264,0
0.4185,-1.107805E-05,6.2775,0,0.4185,-1.376364E-05,6.2775,0
0.4194,-2.316319E-05,6.291,0,0.4194,-2.316319E-05,6.291,0
0.4203,1.712062E-05,6.3045,0,0.4203,-3.726253E-05,6.3045,0
0.4212,3.659113E-05,6.318,0,0.4212,-3.356985E-07,6.318,0
0.4221,-1.107805E-05,6.3315,0,0.4221,-2.987716E-05,6.3315,0
0.423,-1.644922E-05,6.345,0,0.423,-4.263371E-05,6.345,0
0.4239,9.399558E-06,6.3585,0,0.4239,-3.256275E-05,6.3585,0
0.4248,-3.021286E-06,6.372,0,0.4248,1.007095E-06,6.372,0
0.4257,-1.174945E-05,6.3855,0,0.4257,-6.042573E-06,6.3855,0
0.4266,-1.007095E-06,6.399,0,0.4266,-5.539025E-05,6.399,0
0.4275,-8.728161E-06,6.4125,0,0.4275,-7.385367E-06,6.4125,0
0.4284,2.1149E-05,6.426,0,0.4284,1.309224E-05,6.426,0
0.4293,1.309224E-05,6.4395,0,0.4293,-3.894102E-05,6.4395,0
0.4302,-1.141375E-05,6.453,0,0.4302,-2.920577E-05,6.453,0
0.4311,-3.860533E-05,6.4665,0,0.4311,-3.356985E-06,6.4665,0
0.432,-2.685588E-06,6.48,0,0.432,3.356985E-07,6.48,0
0.4329,1.040665E-05,6.4935,0,0.4329,-9.735256E-06,6.4935,0
0.4338,-1.376364E-05,6.507,0,0.4338,-3.927672E-05,6.507,0
0.4347,5.035477E-06,6.5205,0,0.4347,-1.577783E-05,6.5205,0
0.4356,4.800488E-05,6.534,0,0.4356,9.063859E-06,6.534,0
0.4365,9.063859E-06,6.5475,0,0.4365,-2.752728E-05,6.5475,0
0.4374,-1.007095E-06,6.561,0,0.4374,-4.800488E-05,6.561,0
0.4383,1.678492E-05,6.5745,0,0.4383,2.349889E-06,6.5745,0
0.4392,-7.049668E-06,6.588,0,0.4392,-1.242084E-05,6.588,0
0.4401,-1.678492E-05,6.6015,0,0.4401,-6.61326E-05,6.6015,0
0.441,-1.510643E-05,6.615,0,0.441,3.021286E-06,6.615,0
0.4419,-2.047761E-05,6.6285,0,0.4419,3.961242E-05,6.6285,0
0.4428,-5.136187E-05,6.642,0,0.4428,-3.826963E-05,6.642,0
0.4437,-2.987716E-05,6.6555,0,0.4437,-4.53193E-05,6.6555,0
0.4446,-3.726253E-05,6.669,0,0.4446,5.706874E-06,6.669,0
0.4455,-2.685588E-05,6.6825,0,0.4455,-9.735256E-06,6.6825,0
0.4464,-8.392462E-06,6.696,0,0.4464,-3.189136E-05,6.696,0
0.4473,-1.678492E-06,6.7095,0,0.4473,-5.236896E-05,6.7095,0
0.4482,7.721065E-06,6.723,0,0.4482,-7.049668E-06,6.723,0
0.4491,9.399558E-06,6.7365,0,0.4491,3.356985E-06,6.7365,0
0.45,7.721065E-06,6.75,0,0.45,-2.450599E-05,6.75,0
0.4509,5.035477E-06,6.7635,0,0.4509,-5.404745E-05,6.7635,0
0.4518,-9.063859E-06,6.777,0,0.4518,-4.699779E-06,6.777,0
0.4527,8.392462E-06,6.7905,0,0.4527,-1.376364E-05,6.7905,0
0.4536,-3.356985E-06,6.804,0,0.4536,-5.874724E-05,6.804,0
0.4545,-7.721065E-06,6.8175,0,0.4545,0,6.8175,0
0.4554,4.028382E-06,6.831,0,0.4554,2.819867E-05,6.831,0
0.4563,-2.316319E-05,6.8445,0,0.4563,-2.484169E-05,6.8445,0
0.4572,-4.39765E-05,6.858,0,0.4572,-1.510643E-05,6.858,0
0.4581,-3.860533E-05,6.8715,0,0.4581,1.376364E-05,6.8715,0
0.459,-2.551309E-05,6.885,0,0.459,-7.049668E-06,6.885,0
0.4599,-1.242084E-05,6.8985,0,0.4599,-1.409934E-05,6.8985,0
0.4608,-1.947051E-05,6.912,0,0.4608,-4.33051E-05,6.912,0
0.4617,2.349889E-06,6.9255,0,0.4617,-1.409934E-05,6.9255,0
0.4626,-1.779202E-05,6.939,0,0.4626,9.063859E-06,6.939,0
0.4635,-2.887007E-05,6.9525,0,0.4635,-3.256275E-05,6.9525,0
0.4644,3.256275E-05,6.966,0,0.4644,-4.061952E-05,6.966,0
0.4653,-1.644922E-05,6.9795,0,0.4653,-3.021286E-06,6.9795,0
0.4662,-2.685588E-05,6.993,0,0.4662,-3.692683E-06,6.993,0
0.4671,2.719158E-05,7.0065,0,0.4671,-5.572595E-05,7.0065,0
0.468,8.392462E-06,7.02,0,0.468,-1.141375E-05,7.02,0
0.4689,1.376364E-05,7.0335,0,0.4689,8.728161E-06,7.0335,0
0.4698,2.652018E-05,7.047,0,0.4698,-4.162661E-05,7.047,0
0.4707,-2.24918E-05,7.0605,0,0.4707,-3.793393E-05,7.0605,0
0.4716,-1.913481E-05,7.074,0,0.4716,-4.36408E-06,7.074,0
0.4725,-7.721065E-06,7.0875,0,0.4725,-5.035477E-06,7.0875,0
0.4734,5.035477E-06,7.101,0,0.4734,-1.510643E-05,7.101,0
0.4743,-1.342794E-06,7.1145,0,0.4743,-3.759823E-05,7.1145,0
0.4752,-8.392462E-06,7.128,0,0.4752,-4.36408E-05,7.128,0
0.4761,3.994812E-05,7.1415,0,0.4761,-3.323415E-05,7.1415,0
0.477,3.524834E-05,7.155,0,0.477,-4.129091E-05,7.155,0
0.4779,3.021286E-06,7.1685,0,0.4779,-5.203327E-05,7.1685,0
0.4788,4.699779E-06,7.182,0,0.4788,3.356985E-07,7.182,0
0.4797,2.349889E-05,7.1955,0,0.4797,3.356985E-07,7.1955,0
0.4806,1.275654E-05,7.209,0,0.4806,-4.129091E-05,7.209,0
0.4815,-1.007095E-06,7.2225,0,0.4815,-4.36408E-06,7.2225,0
0.4824,-3.054856E-05,7.236,0,0.4824,1.443504E-05,7.236,0
0.4833,-3.558404E-05,7.2495,0,0.4833,-2.18204E-05,7.2495,0
0.4842,-2.21561E-05,7.263,0,0.4842,-9.399558E-06,7.263,0
0.4851,-8.056763E-06,7.2765,0,0.4851,2.450599E-05,7.2765,0
0.486,-1.712062E-05,7.29,0,0.486,2.349889E-05,7.29,0
0.4869,-2.618448E-05,7.3035,0,0.4869,-2.014191E-06,7.3035,0
0.4878,-2.786297E-05,7.317,0,0.4878,-2.920577E-05,7.317,0
0.4887,-2.014191E-06,7.3305,0,0.4887,3.356985E-07,7.3305,0
0.4896,2.887007E-05,7.344,0,0.4896,9.063859E-06,7.344,0
0.4905,7.049668E-06,7.3575,0,0.4905,-2.652018E-05,7.3575,0
0.4914,-5.706874E-06,7.371,0,0.4914,-3.323415E-05,7.371,0
0.4923,-2.920577E-05,7.3845,0,0.4923,1.443504E-05,7.3845,0
0.4932,1.007095E-06,7.398,0,0.4932,6.042573E-06,7.398,0
0.4941,3.826963E-05,7.4115,0,0.4941,-5.203327E-05,7.4115,0
0.495,-7.721065E-06,7.425,0,0.495,-1.040665E-05,7.425,0
0.4959,-4.061952E-05,7.4385,0,0.4959,1.242084E-05,7.4385,0
0.4968,-1.174945E-05,7.452,0,0.4968,-3.659113E-05,7.452,0
0.4977,3.323415E-05,7.4655,0,0.4977,-2.18204E-05,7.4655,0
0.4986,-1.712062E-05,7.479,0,0.4986,-1.477073E-05,7.479,0
0.4995,-1.577783E-05,7.4925,0,0.4995,-2.618448E-05,7.4925,0
0.5004,-8.392462E-06,7.506,0,0.5004,-3.692683E-05,7.506,0
0.5013,-6.378271E-06,7.5195,0,0.5013,-5.304036E-05,7.5195,0
0.5022,7.049668E-06,7.533,0,0.5022,-2.047761E-05,7.533,0
0.5031,-2.24918E-05,7.5465,0,0.5031,-1.779202E-05,7.5465,0
0.504,-1.879912E-05,7.56,0,0.504,-4.666209E-05,7.56,0
0.5049,2.349889E-06,7.5735,0,0.5049,-4.867628E-05,7.5735,0
0.5058,-9.399558E-06,7.587,0,0.5058,-1.443504E-05,7.587,0
0.5067,-4.46479E-05,7.6005,0,0.5067,-3.659113E-05,7.6005,0
0.5076,-1.477073E-05,7.614,0,0.5076,-7.553216E-05,7.614,0
0.5085,-1.007095E-06,7.6275,0,0.5085,-1.980621E-05,7.6275,0
0.5094,-1.309224E-05,7.641,0,0.5094,3.021286E-06,7.641,0
0.5103,-3.524834E-05,7.6545,0,0.5103,-5.740444E-05,7.6545,0
0.5112,-1.275654E-05,7.668,0,0.5112,-3.256275E-05,7.668,0
0.5121,-2.652018E-05,7.6815,0,0.5121,4.867628E-05,7.6815,0
0.513,-2.24918E-05,7.695,0,0.513,1.477073E-05,7.695,0
0.5139,-1.510643E-05,7.7085,0,0.5139,-1.879912E-05,7.7085,0
0.5148,-1.980621E-05,7.722,0,0.5148,-4.733349E-05,7.722,0
0.5157,-1.846342E-05,7.7355,0,0.5157,-5.035477E-06,7.7355,0
0.5166,-1.544213E-05,7.749,0,0.5166,4.46479E-05,7.749,0
0.5175,-1.644922E-05,7.7625,0,0.5175,1.779202E-05,7.7625,0
0.5184,-1.007095E-05,7.776,0,0.5184,-2.987716E-05,7.776,0
0.5193,-2.081331E-05,7.7895,0,0.5193,-3.356985E-07,7.7895,0
0.5202,1.678492E-06,7.803,0,0.5202,-2.047761E-05,7.803,0
0.5211,-1.510643E-05,7.8165,0,0.5211,-7.150377E-05,7.8165,0
0.522,-2.618448E-05,7.83,0,0.522,3.356985E-07,7.83,0
0.5229,-1.510643E-05,7.8435,0,0.5229,-2.349889E-06,7.8435,0
0.5238,-1.007095E-05,7.857,0,0.5238,-5.471885E-05,7.857,0
0.5247,-4.666209E-05,7.8705,0,0.5247,-5.001907E-05,7.8705,0
0.5256,-2.987716E-05,7.884,0,0.5256,1.007095E-06,7.884,0
0.5265,-3.256275E-05,7.8975,0,0.5265,-1.947051E-05,7.8975,0
0.5274,-1.712062E-05,7.911,0,0.5274,-4.968337E-05,7.911,0
0.5283,4.36408E-06,7.9245,0,0.5283,-6.411841E-05,7.9245,0
0.5292,4.36408E-06,7.938,0,0.5292,-2.853437E-05,7.938,0
0.5301,-1.611353E-05,7.9515,0,0.5301,-4.36408E-06,7.9515,0
0.531,-2.316319E-05,7.965,0,0.531,-3.994812E-05,7.965,0
0.5319,9.063859E-06,7.9785,0,0.5319,-5.337606E-05,7.9785,0
0.5328,-6.713969E-07,7.992,0,0.5328,-5.706874E-06,7.992,0
0.5337,-9.399558E-06,8.0055,0,0.5337,-5.035477E-06,8.0055,0
0.5346,1.779202E-05,8.019,0,0.5346,-5.136187E-05,8.019,0
0.5355,1.510643E-05,8.0325,0,0.5355,3.356985E-07,8.0325,0
0.5364,4.196231E-05,8.046,0,0.5364,7.385367E-06,8.046,0
0.5373,5.874724E-05,8.0595,0,0.5373,-2.987716E-05,8.0595,0
0.5382,4.39765E-05,8.073,0,0.5382,-2.047761E-05,8.073,0
0.5391,2.450599E-05,8.0865,0,0.5391,1.007095E-06,8.0865,0
0.54,2.652018E-05,8.1,0,0.54,-9.399558E-06,8.1,0
0.5409,1.443504E-05,8.1135,0,0.5409,-1.510643E-05,8.1135,0
0.5418,8.056763E-06,8.127,0,0.5418,-4.39765E-05,8.127,0
0.5427,-1.007095E-06,8.1405,0,0.5427,-1.040665E-05,8.1405,0
0.5436,-3.021286E-05,8.154,0,0.5436,1.309224E-05,8.154,0
0.5445,-4.196231E-05,8.1675,0,0.5445,-2.954147E-05,8.1675,0
0.5454,-2.719158E-05,8.181,0,0.5454,-4.061952E-05,8.181,0
0.5463,-8.728161E-06,8.1945,0,0.5463,5.035477E-06,8.1945,0
0.5472,-6.378271E-06,8.208,0,0.5472,-5.706874E-06,8.208,0
0.5481,4.699779E-06,8.2215,0,0.5481,-6.411841E-05,8.2215,0
0.549,-9.399558E-06,8.235,0,0.549,-2.450599E-05,8.235,0
0.5499,-1.107805E-05,8.2485,0,0.5499,3.021286E-06,8.2485,0
0.5508,-2.047761E-05,8.262,0,0.5508,-4.632639E-05,8.262,0
0.5517,1.779202E-05,8.2755,0,0.5517,-5.438316E-05,8.2755,0
0.5526,-5.706874E-06,8.289,0,0.5526,-1.174945E-05,8.289,0
0.5535,-1.174945E-05,8.3025,0,0.5535,-1.980621E-05,8.3025,0
0.5544,-8.728161E-06,8.316,0,0.5544,-2.853437E-05,8.316,0
0.5553,2.920577E-05,8.3295,0,0.5553,-4.129091E-05,8.3295,0
0.5562,3.256275E-05,8.343,0,0.5562,1.309224E-05,8.343,0
0.5571,-2.1149E-05,8.3565,0,0.5571,4.129091E-05,8.3565,0
0.558,-4.867628E-05,8.37,0,0.558,-1.208515E-05,8.37,0
0.5589,-1.812772E-05,8.3835,0,0.5589,-3.222705E-05,8.3835,0
0.5598,-3.189136E-05,8.397,0,0.5598,2.28275E-05,8.397,0
0.5607,-1.409934E-05,8.4105,0,0.5607,3.021286E-06,8.4105,0
0.5616,-1.141375E-05,8.424,0,0.5616,-3.289845E-05,8.424,0
0.5625,-2.21561E-05,8.4375,0,0.5625,9.735256E-06,8.4375,0
0.5634,2.786297E-05,8.451,0,0.5634,2.652018E-05,8.451,0
0.5643,-1.409934E-05,8.4645,0,0.5643,-2.517739E-05,8.4645,0
0.5652,-7.049668E-06,8.478,0,0.5652,-3.323415E-05,8.478,0
0.5661,-3.356985E-07,8.4915,0,0.5661,-2.349889E-06,8.4915,0
0.567,-6.378271E-06,8.505,0,0.567,-2.887007E-05,8.505,0
0.5679,-2.752728E-05,8.5185,0,0.5679,-4.934768E-05,8.5185,0
0.5688,-1.577783E-05,8.532,0,0.5688,-8.358892E-05,8.532,0
0.5697,0,8.5455,0,0.5697,-3.524834E-05,8.5455,0
0.5706,-3.021286E-06,8.559,0,0.5706,-2.28275E-05,8.559,0
0.5715,-1.275654E-05,8.5725,0,0.5715,-4.49836E-05,8.5725,0
0.5724,1.712062E-05,8.586,0,0.5724,-2.987716E-05,8.586,0
0.5733,-1.510643E-05,8.5995,0,0.5733,4.53193E-05,8.5995,0
0.5742,-1.712062E-05,8.613,0,0.5742,3.994812E-05,8.613,0
0.5751,7.721065E-06,8.6265,0,0.5751,-9.063859E-06,8.6265,0
0.576,1.342794E-06,8.64,0,0.576,5.035477E-05,8.64,0
0.5769,-3.424125E-05,8.6535,0,0.5769,6.948959E-05,8.6535,0
0.5778,-3.121996E-05,8.667,0,0.5778,2.752728E-05,8.667,0
0.5787,1.040665E-05,8.6805,0,0.5787,1.074235E-05,8.6805,0
0.5796,-1.174945E-05,8.694,0,0.5796,1.141375E-05,8.694,0
0.5805,-7.049668E-06,8.7075,0,0.5805,-1.342794E-05,8.7075,0
0.5814,-3.021286E-06,8.721,0,0.5814,-2.987716E-05,8.721,0
0.5823,3.356985E-06,8.7345,0,0.5823,-3.088426E-05,8.7345,0
0.5832,1.846342E-05,8.748,0,0.5832,-3.356985E-07,8.748,0
0.5841,-1.107805E-05,8.7615,0,0.5841,1.409934E-05,8.7615,0
0.585,-3.356985E-07,8.775,0,0.585,-7.049668E-06,8.775,0
0.5859,-3.692683E-06,8.7885,0,0.5859,-3.390555E-05,8.7885,0
0.5868,-3.692683E-06,8.802,0,0.5868,-1.040665E-05,8.802,0
0.5877,4.699779E-06,8.8155,0,0.5877,-2.853437E-05,8.8155,0
0.5886,2.014191E-06,8.829,0,0.5886,-9.399557E-05,8.829,0
0.5895,-1.812772E-05,8.8425,0,0.5895,-5.337606E-05,8.8425,0
0.5904,3.457694E-05,8.856,0,0.5904,-5.606165E-05,8.856,0
0.5913,2.517739E-05,8.8695,0,0.5913,-0.0001077592,8.8695,0
0.5922,-6.713969E-06,8.883,0,0.5922,-0.0001178302,8.883,0
0.5931,-5.706874E-06,8.8965,0,0.5931,-8.325322E-05,8.8965,0
0.594,-7.049668E-06,8.91,0,0.594,-7.553216E-05,8.91,0
0.5949,-1.443504E-05,8.9235,0,0.5949,-0.0001030594,8.9235,0
0.5958,-7.721065E-06,8.937,0,0.5958,-0.000102388,8.937,0
0.5967,-2.417029E-05,8.9505,0,0.5967,-6.042573E-05,8.9505,0
0.5976,-3.793393E-05,8.964,0,0.5976,1.644922E-05,8.964,0
0.5985,9.063859E-06,8.9775,0,0.5985,2.887007E-05,8.9775,0
0.5994,-9.735256E-06,8.991,0,0.5994,7.049668E-05,8.991,0
0.6003,-7.083238E-05,9.0045,0,0.6003,0.0001433432,9.0045,0
0.6012,-4.666209E-05,9.018,0,0.6012,0.0001131304,9.018,0
0.6021,-1.544213E-05,9.0315,0,0.6021,9.735256E-06,9.0315,0
0.603,-2.1149E-05,9.045,0,0.603,-6.713969E-07,9.045,0
0.6039,1.879912E-05,9.0585,0,0.6039,-5.706874E-06,9.0585,0
0.6048,3.323415E-05,9.072001,0,0.6048,-4.968337E-05,9.072001,0
0.6057,9.735256E-06,9.0855,0,0.6057,-4.699779E-06,9.0855,0
0.6066,2.920577E-05,9.099,0,0.6066,-3.356985E-07,9.099,0
0.6075,3.256275E-05,9.1125,0,0.6075,-2.954147E-05,9.1125,0
0.6084,-2.28275E-05,9.126,0,0.6084,-2.349889E-05,9.126,0
0.6093,-6.378271E-06,9.1395,0,0.6093,-4.061952E-05,9.1395,0
0.6102,-5.706874E-06,9.153,0,0.6102,-2.484169E-05,9.153,0
0.6111,-2.21561E-05,9.1665,0,0.6111,-1.913481E-05,9.1665,0
0.612,5.035477E-06,9.18,0,0.612,-4.263371E-05,9.18,0
0.6129,4.36408E-06,9.1935,0,0.6129,-4.263371E-05,9.1935,0
0.6138,-1.107805E-05,9.207,0,0.6138,-1.342794E-06,9.207,0
0.6147,-4.36408E-06,9.2205,0,0.6147,-2.18204E-05,9.2205,0
0.6156,1.510643E-05,9.234,0,0.6156,-5.975433E-05,9.234,0
0.6165,9.735256E-06,9.2475,0,0.6165,-9.735256E-06,9.2475,0
0.6174,-3.021286E-05,9.261,0,0.6174,-2.383459E-05,9.261,0
0.6183,-9.735256E-06,9.2745,0,0.6183,-6.210422E-05,9.2745,0
0.6192,-2.18204E-05,9.288,0,0.6192,-3.155566E-05,9.288,0
0.6201,-5.807584E-05,9.3015,0,0.6201,-9.063859E-06,9.3015,0
0.621,-3.121996E-05,9.315,0,0.621,7.721065E-06,9.315,0
0.6219,-3.692683E-06,9.3285,0,0.6219,2.652018E-05,9.3285,0
0.6228,-4.39765E-05,9.342,0,0.6228,-3.793393E-05,9.342,0
0.6237,-7.284657E-05,9.3555,0,0.6237,-5.539025E-05,9.3555,0
0.6246,-6.915389E-05,9.369,0,0.6246,-4.263371E-05,9.369,0
0.6255,-5.740444E-05,9.3825,0,0.6255,-9.466698E-05,9.3825,0
0.6264,-7.049668E-06,9.396,0,0.6264,-9.500267E-05,9.396,0
0.6273,-3.356985E-07,9.4095,0,0.6273,-4.49836E-05,9.4095,0
0.6282,1.174945E-05,9.423,0,0.6282,-6.74754E-05,9.423,0
0.6291,3.692683E-06,9.4365,0,0.6291,-8.090334E-05,9.4365,0
0.63,-7.049668E-06,9.45,0,0.63,-4.028382E-06,9.45,0
0.6309,3.155566E-05,9.4635,0,0.6309,3.994812E-05,9.4635,0
0.6318,2.752728E-05,9.477,0,0.6318,6.71397E-05,9.477,0
0.6327,6.6804E-05,9.4905,0,0.6327,0.000102388,9.4905,0
0.6336,3.793393E-05,9.504,0,0.6336,0.000109102,9.504,0
0.6345,1.174945E-05,9.5175,0,0.6345,2.383459E-05,9.5175,0
0.6354,6.042573E-06,9.531,0,0.6354,-2.18204E-05,9.531,0
0.6363,-9.063859E-06,9.5445,0,0.6363,-4.39765E-05,9.5445,0
0.6372,-4.196231E-05,9.558,0,0.6372,-4.33051E-05,9.558,0
0.6381,-1.846342E-05,9.5715,0,0.6381,-2.584878E-05,9.5715,0
0.639,2.24918E-05,9.585,0,0.639,-1.107805E-05,9.585,0
0.6399,6.277562E-05,9.5985,0,0.6399,-3.726253E-05,9.5985,0
0.6408,2.551309E-05,9.612,0,0.6408,-3.927672E-05,9.612,0
0.6417,9.063859E-06,9.6255,0,0.6417,-4.33051E-05,9.6255,0
0.6426,1.678492E-06,9.639,0,0.6426,-6.344701E-05,9.639,0
0.6435,-4.196231E-05,9.6525,0,0.6435,3.054856E-05,9.6525,0
0.6444,-4.934768E-05,9.666,0,0.6444,7.183947E-05,9.666,0
0.6453,-3.189136E-05,9.6795,0,0.6453,-2.517739E-05,9.6795,0
0.6462,-4.196231E-05,9.693,0,0.6462,-7.318227E-05,9.693,0
0.6471,-1.913481E-05,9.7065,0,0.6471,-6.076142E-05,9.7065,0
0.648,7.721065E-06,9.72,0,0.648,-8.69459E-05,9.72,0
0.6489,-3.088426E-05,9.7335,0,0.6489,-0.000105745,9.7335,0
0.6498,-5.673304E-05,9.747,0,0.6498,-0.0001232013,9.747,0
0.6507,-2.517739E-05,9.7605,0,0.6507,-7.989624E-05,9.7605,0
0.6516,-3.524834E-05,9.774,0,0.6516,-2.584878E-05,9.774,0
0.6525,-1.174945E-05,9.7875,0,0.6525,-1.644922E-05,9.7875,0
0.6534,2.14847E-05,9.801,0,0.6534,3.356985E-06,9.801,0
0.6543,-2.920577E-05,9.8145,0,0.6543,6.109713E-05,9.8145,0
0.6552,-5.941863E-05,9.828,0,0.6552,7.620356E-05,9.828,0
0.6561,-6.378271E-06,9.8415,0,0.6561,1.577783E-05,9.8415,0
0.657,1.040665E-05,9.855,0,0.657,5.236896E-05,9.855,0
0.6579,3.558404E-05,9.8685,0,0.6579,8.593881E-05,9.8685,0
0.6588,2.349889E-06,9.882,0,0.6588,1.745632E-05,9.882,0
0.6597,2.383459E-05,9.8955,0,0.6597,4.028382E-05,9.8955,0
0.6606,1.275654E-05,9.909,0,0.6606,4.800488E-05,9.909,0
0.6615,-4.36408E-06,9.9225,0,0.6615,-3.021286E-06,9.9225,0
0.6624,7.721065E-06,9.936,0,0.6624,-6.378271E-06,9.936,0
0.6633,-2.819867E-05,9.9495,0,0.6633,-5.069047E-05,9.9495,0
0.6642,-5.136187E-05,9.963,0,0.6642,-5.270466E-05,9.963,0
0.6651,-5.337606E-05,9.976501,0,0.6651,-3.021286E-06,9.976501,0
0.666,-2.316319E-05,9.99,0,0.666,1.678492E-06,9.99,0
0.6669,-3.356985E-06,10.0035,0,0.6669,-2.685588E-05,10.0035,0
0.6678,-7.385367E-06,10.017,0,0.6678,1.577783E-05,10.017,0
0.6687,7.385367E-06,10.0305,0,0.6687,-1.745632E-05,10.0305,0
0.6696,2.450599E-05,10.044,0,0.6696,-7.284657E-05,10.044,0
0.6705,-5.706874E-06,10.0575,0,0.6705,-4.934768E-05,10.0575,0
0.6714,3.424125E-05,10.071,0,0.6714,-2.786297E-05,10.071,0
0.6723,7.721065E-06,10.0845,0,0.6723,-6.54612E-05,10.0845,0
0.6732,-3.054856E-05,10.098,0,0.6732,-4.766919E-05,10.098,0
0.6741,-2.1149E-05,10.1115,0,0.6741,-2.786297E-05,10.1115,0
0.675,-1.577783E-05,10.125,0,0.675,-5.136187E-05,10.125,0
0.6759,-2.349889E-06,10.1385,0,0.6759,-3.121996E-05,10.1385,0
0.6768,8.392462E-06,10.152,0,0.6768,-3.054856E-05,10.152,0
0.6777,9.735256E-06,10.1655,0,0.6777,-3.692683E-06,10.1655,0
0.6786,-2.349889E-06,10.179,0,0.6786,-8.056763E-06,10.179,0
0.6795,1.107805E-05,10.1925,0,0.6795,-2.618448E-05,10.1925,0
0.6804,9.063859E-06,10.206,0,0.6804,-2.719158E-05,10.206,0
0.6813,-3.726253E-05,10.2195,0,0.6813,3.860533E-05,10.2195,0
0.6822,-2.584878E-05,10.233,0,0.6822,-3.457694E-05,10.233,0
0.6831,1.040665E-05,10.2465,0,0.6831,-7.754635E-05,10.2465,0
0.684,-1.644922E-05,10.26,0,0.684,-5.102617E-05,10.26,0
0.6849,-1.443504E-05,10.2735,0,0.6849,-9.433127E-05,10.2735,0
0.6858,-3.424125E-05,10.287,0,0.6858,-0.0001487144,10.287,0
0.6867,-4.800488E-05,10.3005,0,0.6867,-0.0001453574,10.3005,0
0.6876,-4.196231E-05,10.314,0,0.6876,-5.941863E-05,10.314,0
0.6885,2.719158E-05,10.3275,0,0.6885,-2.316319E-05,10.3275,0
0.6894,4.666209E-05,10.341,0,0.6894,2.28275E-05,10.341,0
0.6903,3.659113E-05,10.3545,0,0.6903,3.356985E-07,10.3545,0
0.6912,3.390555E-05,10.368,0,0.6912,2.887007E-05,10.368,0
0.6921,4.599069E-05,10.3815,0,0.6921,3.457694E-05,10.3815,0
0.693,4.733349E-05,10.395,0,0.693,-2.014191E-06,10.395,0
0.6939,1.443504E-05,10.4085,0,0.6939,-3.659113E-05,10.4085,0
0.6948,-2.316319E-05,10.422,0,0.6948,-1.107805E-05,10.422,0
0.6957,-1.678492E-06,10.4355,0,0.6957,-1.678492E-06,10.4355,0
0.6966,3.793393E-05,10.449,0,0.6966,-2.18204E-05,10.449,0
0.6975,8.392462E-06,10.4625,0,0.6975,2.517739E-05,10.4625,0
0.6984,3.356985E-07,10.476,0,0.6984,3.625543E-05,10.476,0
0.6993,-6.713969E-07,10.4895,0,0.6993,-6.378271E-06,10.4895,0
0.7002,2.349889E-06,10.503,0,0.7002,3.088426E-05,10.503,0
0.7011,-8.728161E-06,10.5165,0,0.7011,5.706874E-06,10.5165,0
0.702,-3.591974E-05,10.53,0,0.702,-5.639734E-05,10.53,0
0.7029,-1.678492E-06,10.5435,0,0.7029,-4.196231E-05,10.5435,0
0.7038,1.913481E-05,10.557,0,0.7038,-1.812772E-05,10.557,0
0.7047,-1.309224E-05,10.5705,0,0.7047,6.713969E-06,10.5705,0
0.7056,-5.673304E-05,10.584,0,0.7056,7.083238E-05,10.584,0
0.7065,-2.920577E-05,10.5975,0,0.7065,-6.042573E-06,10.5975,0
0.7074,-4.196231E-05,10.611,0,0.7074,-9.231708E-05,10.611,0
0.7083,-4.934768E-05,10.6245,0,0.7083,-7.788205E-05,10.6245,0
0.7092,-4.733349E-05,10.638,0,0.7092,-0.0001383078,10.638,0
0.7101,-6.51255E-05,10.6515,0,0.7101,-0.0001473716,10.6515,0
0.711,-8.358892E-05,10.665,0,0.711,-3.692683E-05,10.665,0
0.7119,-3.524834E-05,10.6785,0,0.7119,-1.812772E-05,10.6785,0
0.7128,2.652018E-05,10.692,0,0.7128,-1.745632E-05,10.692,0
0.7137,1.342794E-06,10.7055,0,0.7137,7.754635E-05,10.7055,0
0.7146,1.007095E-06,10.719,0,0.7146,0.0001406577,10.719,0
0.7155,2.786297E-05,10.7325,0,0.7155,0.0001554284,10.7325,0
0.7164,3.424125E-05,10.746,0,0.7164,0.0001037308,10.746,0
0.7173,2.652018E-05,10.7595,0,0.7173,-3.356985E-06,10.7595,0
0.7182,1.376364E-05,10.773,0,0.7182,-1.812772E-05,10.773,0
0.7191,2.987716E-05,10.7865,0,0.7191,-9.735256E-06,10.7865,0
0.72,3.726253E-05,10.8,0,0.72,-5.035477E-05,10.8,0
0.7209,6.344701E-05,10.8135,0,0.7209,-9.164568E-05,10.8135,0
0.7218,2.752728E-05,10.827,0,0.7218,-5.404745E-05,10.827,0
0.7227,5.035477E-06,10.8405,0,0.7227,-3.793393E-05,10.8405,0
0.7236,-9.735256E-06,10.854,0,0.7236,-6.344701E-05,10.854,0
0.7245,-4.129091E-05,10.8675,0,0.7245,1.141375E-05,10.8675,0
0.7254,-3.860533E-05,10.881,0,0.7254,8.358892E-05,10.881,0
0.7263,-2.853437E-05,10.8945,0,0.7263,3.189136E-05,10.8945,0
0.7272,-2.752728E-05,10.908,0,0.7272,5.035477E-06,10.908,0
0.7281,-2.853437E-05,10.9215,0,0.7281,5.035477E-06,10.9215,0
0.729,4.36408E-06,10.935,0,0.729,-1.275654E-05,10.935,0
0.7299,-3.323415E-05,10.9485,0,0.7299,-2.1149E-05,10.9485,0
0.7308,-2.450599E-05,10.962,0,0.7308,-6.948959E-05,10.962,0
0.7317,3.189136E-05,10.9755,0,0.7317,-5.606165E-05,10.9755,0
0.7326,5.539025E-05,10.989,0,0.7326,-3.323415E-05,10.989,0
0.7335,1.174945E-05,11.0025,0,0.7335,-5.975433E-05,11.0025,0
0.7344,-9.735256E-06,11.016,0,0.7344,-8.89601E-05,11.016,0
0.7353,-1.376364E-05,11.0295,0,0.7353,-5.639734E-05,11.0295,0
0.7362,-3.289845E-05,11.043,0,0.7362,-5.572595E-05,11.043,0
0.7371,-8.325322E-05,11.0565,0,0.7371,-0.0001010452,11.0565,0
0.738,-9.298848E-05,11.07,0,0.738,-5.304036E-05,11.07,0
0.7389,-7.016098E-05,11.0835,0,0.7389,-2.517739E-05,11.0835,0
0.7398,1.242084E-05,11.097,0,0.7398,-5.270466E-05,11.097,0
0.7407,1.577783E-05,11.1105,0,0.7407,-2.014191E-05,11.1105,0
0.7416,4.263371E-05,11.124,0,0.7416,3.558404E-05,11.124,0
0.7425,-1.242084E-05,11.1375,0,0.7425,4.867628E-05,11.1375,0
0.7434,-5.471885E-05,11.151,0,0.7434,5.404745E-05,11.151,0
0.7443,-6.814679E-05,11.1645,0,0.7443,0,11.1645,0
0.7452,-5.673304E-05,11.178,0,0.7452,2.014191E-06,11.178,0
0.7461,-1.913481E-05,11.1915,0,0.7461,-2.18204E-05,11.1915,0
0.747,1.812772E-05,11.205,0,0.747,-4.196231E-05,11.205,0
0.7479,3.323415E-05,11.2185,0,0.7479,-3.659113E-05,11.2185,0
0.7488,2.316319E-05,11.232,0,0.7488,9.399558E-06,11.232,0
0.7497,4.867628E-05,11.2455,0,0.7497,1.174945E-05,11.2455,0
0.7506,-3.692683E-06,11.259,0,0.7506,-9.030289E-05,11.259,0
0.7515,-1.846342E-05,11.2725,0,0.7515,-2.24918E-05,11.2725,0
0.7524,-1.644922E-05,11.286,0,0.7524,3.356985E-05,11.286,0
0.7533,-8.89601E-05,11.2995,0,0.7533,-9.063859E-06,11.2995,0
0.7542,-8.224613E-05,11.313,0,0.7542,-2.584878E-05,11.313,0
0.7551,-0.0001044022,11.3265,0,0.7551,-2.719158E-05,11.3265,0
0.756,-4.53193E-05,11.34,0,0.756,-5.438316E-05,11.34,0
0.7569,-1.309224E-05,11.3535,0,0.7569,-5.471885E-05,11.3535,0
0.7578,2.18204E-05,11.367,0,0.7578,-8.996719E-05,11.367,0
0.7587,7.083238E-05,11.3805,0,0.7587,-7.821774E-05,11.3805,0
0.7596,5.841154E-05,11.394,0,0.7596,-6.478981E-05,11.394,0
0.7605,2.316319E-05,11.4075,0,0.7605,-7.116808E-05,11.4075,0
0.7614,6.243992E-05,11.421,0,0.7614,-2.584878E-05,11.421,0
0.7623,8.291753E-05,11.4345,0,0.7623,6.915389E-05,11.4345,0
0.7632,4.095522E-05,11.448,0,0.7632,4.666209E-05,11.448,0
0.7641,4.53193E-05,11.4615,0,0.7641,1.174945E-05,11.4615,0
0.765,1.779202E-05,11.475,0,0.765,4.028382E-05,11.475,0
0.7659,-1.107805E-05,11.4885,0,0.7659,6.713969E-07,11.4885,0
0.7668,-1.309224E-05,11.502,0,0.7668,-8.291753E-05,11.502,0
0.7677,-2.349889E-06,11.5155,0,0.7677,-2.450599E-05,11.5155,0
0.7686,-3.524834E-05,11.529,0,0.7686,3.424125E-05,11.529,0
0.7695,-4.061952E-05,11.5425,0,0.7695,3.457694E-05,11.5425,0
0.7704,-1.477073E-05,11.556,0,0.7704,2.18204E-05,11.556,0
0.7713,2.450599E-05,11.5695,0,0.7713,2.652018E-05,11.5695,0
0.7722,1.107805E-05,11.583,0,0.7722,4.095522E-05,11.583,0
0.7731,4.699779E-05,11.5965,0,0.7731,3.424125E-05,11.5965,0
0.774,9.164568E-05,11.61,0,0.774,3.994812E-05,11.61,0
0.7749,4.46479E-05,11.6235,0,0.7749,-2.014191E-05,11.6235,0
0.7758,-2.24918E-05,11.637,0,0.7758,5.706874E-06,11.637,0
0.7767,-3.323415E-05,11.6505,0,0.7767,9.063859E-06,11.6505,0
0.7776,-4.800488E-05,11.664,0,0.7776,-8.89601E-05,11.664,0
0.7785,-4.028382E-05,11.6775,0,0.7785,-7.351797E-05,11.6775,0
0.7794,-6.009003E-05,11.691,0,0.7794,-4.800488E-05,11.691,0
0.7803,-5.572595E-05,11.7045,0,0.7803,-8.023193E-05,11.7045,0
0.7812,-4.53193E-05,11.718,0,0.7812,-5.505455E-05,11.718,0
0.7821,-5.673304E-05,11.7315,0,0.7821,-3.726253E-05,11.7315,0
0.783,-2.18204E-05,11.745,0,0.783,-3.692683E-05,11.745,0
0.7839,-2.786297E-05,11.7585,0,0.7839,1.980621E-05,11.7585,0
0.7848,-2.584878E-05,11.772,0,0.7848,1.409934E-05,11.772,0
0.7857,-1.141375E-05,11.7855,0,0.7857,3.860533E-05,11.7855,0
0.7866,3.692683E-06,11.799,0,0.7866,-1.342794E-05,11.799,0
0.7875,-8.392462E-06,11.8125,0,0.7875,-5.471885E-05,11.8125,0
0.7884,3.356985E-06,11.826,0,0.7884,-5.404745E-05,11.826,0
0.7893,2.24918E-05,11.8395,0,0.7893,4.095522E-05,11.8395,0
0.7902,2.047761E-05,11.853,0,0.7902,4.263371E-05,11.853,0
0.7911,2.24918E-05,11.8665,0,0.7911,-6.344701E-05,11.8665,0
0.792,-1.510643E-05,11.88,0,0.792,-2.987716E-05,11.88,0
0.7929,-1.947051E-05,11.8935,0,0.7929,-4.666209E-05,11.8935,0
0.7938,7.385367E-06,11.907,0,0.7938,-0.0001900053,11.907,0
0.7947,-5.706874E-06,11.9205,0,0.7947,-0.0001953765,11.9205,0
0.7956,-8.392462E-06,11.934,0,0.7956,-0.0001554284,11.934,0
0.7965,5.337606E-05,11.9475,0,0.7965,-0.0001299153,11.9475,0
0.7974,6.61326E-05,11.961,0,0.7974,-2.21561E-05,11.961,0
0.7983,1.040665E-05,11.9745,0,0.7983,4.196231E-05,11.9745,0
0.7992,-1.376364E-05,11.988,0,0.7992,0.0001352865,11.988,0
0.8001,-4.129091E-05,12.0015,0,0.8001,0.0001967193,12.0015,0
0.801,-8.627451E-05,12.015,0,0.801,0.0001943694,12.015,0
0.8019,-4.934768E-05,12.0285,0,0.8019,0.0001215228,12.0285,0
0.8028,-2.24918E-05,12.042,0,0.8028,0.0001238727,12.042,0
0.8037,-4.028382E-06,12.0555,0,0.8037,4.867628E-05,12.0555,0
0.8046,-2.24918E-05,12.069,0,0.8046,-4.867628E-05,12.069,0
0.8055,-5.270466E-05,12.0825,0,0.8055,-3.189136E-05,12.0825,0
0.8064,-1.443504E-05,12.096,0,0.8064,-3.994812E-05,12.096,0
0.8073,2.349889E-06,12.1095,0,0.8073,-7.016098E-05,12.1095,0
0.8082,5.606165E-05,12.123,0,0.8082,-6.076142E-05,12.123,0
0.8091,-9.399558E-06,12.1365,0,0.8091,-1.309224E-05,12.1365,0
0.81,-3.659113E-05,12.15,0,0.81,-3.054856E-05,12.15,0
0.8109,-1.913481E-05,12.1635,0,0.8109,-6.61326E-05,12.1635,0
0.8118,6.042573E-06,12.177,0,0.8118,-0.0001131304,12.177,0
0.8127,-1.712062E-05,12.1905,0,0.8127,-8.661021E-05,12.1905,0
0.8136,-1.141375E-05,12.204,0,0.8136,-3.155566E-05,12.204,0
0.8145,-2.1149E-05,12.2175,0,0.8145,-6.210422E-05,12.2175,0
0.8154,2.719158E-05,12.231,0,0.8154,-7.150377E-05,12.231,0
0.8163,0.0001326009,12.2445,0,0.8163,-7.049668E-06,12.2445,0
0.8172,0.0001487144,12.258,0,0.8172,-2.920577E-05,12.258,0
0.8181,0.0001097734,12.2715,0,0.8181,-6.64683E-05,12.2715,0
0.819,5.304036E-05,12.285,0,0.819,-7.049668E-06,12.285,0
0.8199,7.721065E-06,12.2985,0,0.8199,1.577783E-05,12.2985,0
0.8208,-7.821774E-05,12.312,0,0.8208,-4.733349E-05,12.312,0
0.8217,-0.0002091402,12.3255,0,0.8217,-4.46479E-05,12.3255,0
0.8226,-0.000252781,12.339,0,0.8226,-4.699779E-05,12.339,0
0.8235,-0.0001762417,12.3525,0,0.8235,-0.0001151446,12.3525,0
0.8244,-8.627451E-05,12.366,0,0.8244,-0.0001500572,12.366,0
0.8253,-3.793393E-05,12.3795,0,0.8253,-0.0001386435,12.3795,0
0.8262,-2.719158E-05,12.393,0,0.8262,-9.097429E-05,12.393,0
0.8271,-4.800488E-05,12.4065,0,0.8271,-3.021286E-06,12.4065,0
0.828,-5.606165E-05,12.42,0,0.828,5.606165E-05,12.42,0
0.8289,-1.007095E-05,12.4335,0,0.8289,7.888914E-05,12.4335,0
0.8298,-7.721065E-06,12.447,0,0.8298,0.0001829557,12.447,0
0.8307,4.263371E-05,12.4605,0,0.8307,0.0001218585,12.4605,0
0.8316,0.0001037308,12.474,0,0.8316,3.021286E-06,12.474,0
0.8325,9.097429E-05,12.4875,0,0.8325,4.263371E-05,12.4875,0
0.8334,6.54612E-05,12.501,0,0.8334,6.51255E-05,12.501,0
0.8343,8.392462E-06,12.5145,0,0.8343,5.035477E-06,12.5145,0
0.8352,3.994812E-05,12.528,0,0.8352,5.035477E-06,12.528,0
0.8361,1.342794E-06,12.5415,0,0.8361,8.056763E-06,12.5415,0
0.837,1.678492E-06,12.555,0,0.837,-4.968337E-05,12.555,0
0.8379,-8.392462E-06,12.5685,0,0.8379,-6.243992E-05,12.5685,0
0.8388,1.275654E-05,12.582,0,0.8388,-7.217517E-05,12.582,0
0.8397,6.109713E-05,12.5955,0,0.8397,-4.632639E-05,12.5955,0
0.8406,2.517739E-05,12.609,0,0.8406,-6.51255E-05,12.609,0
0.8415,7.385367E-06,12.6225,0,0.8415,-8.157473E-05,12.6225,0
0.8424,-7.049668E-06,12.636,0,0.8424,-6.78111E-05,12.636,0
0.8433,4.028382E-06,12.6495,0,0.8433,-5.001907E-05,12.6495,0
0.8442,3.860533E-05,12.663,0,0.8442,-0.0001087663,12.663,0
0.8451,-9.063859E-06,12.6765,0,0.8451,-0.0001356222,12.6765,0
0.846,-5.706874E-06,12.69,0,0.846,-7.452507E-05,12.69,0
0.8469,4.800488E-05,12.7035,0,0.8469,-4.196231E-05,12.7035,0
0.8478,3.625543E-05,12.717,0,0.8478,-3.289845E-05,12.717,0
0.8487,3.155566E-05,12.7305,0,0.8487,1.947051E-05,12.7305,0
0.8496,0.0001138018,12.744,0,0.8496,0.0001010452,12.744,0
0.8505,5.337606E-05,12.7575,0,0.8505,9.231708E-05,12.7575,0
0.8514,-8.123904E-05,12.771,0,0.8514,3.591974E-05,12.771,0
0.8523,-0.0001225299,12.7845,0,0.8523,-6.042573E-05,12.7845,0
0.8532,-0.0001258869,12.798,0,0.8532,-4.53193E-05,12.798,0
0.8541,-0.0001067521,12.8115,0,0.8541,3.256275E-05,12.8115,0
0.855,-6.143282E-05,12.825,0,0.855,2.28275E-05,12.825,0
0.8559,-4.800488E-05,12.8385,0,0.8559,3.054856E-05,12.8385,0
0.8568,-3.054856E-05,12.852,0,0.8568,8.82887E-05,12.852,0
0.8577,1.040665E-05,12.8655,0,0.8577,4.867628E-05,12.8655,0
0.8586,3.491264E-05,12.879,0,0.8586,-2.719158E-05,12.879,0
0.8595001,3.054856E-05,12.8925,0,0.8595001,1.376364E-05,12.8925,0
0.8604,-1.342794E-06,12.906,0,0.8604,-1.107805E-05,12.906,0
0.8613,-2.21561E-05,12.9195,0,0.8613,-0.000115816,12.9195,0
0.8622,-1.107805E-05,12.933,0,0.8622,-0.0001527428,12.933,0
0.8631,-5.807584E-05,12.9465,0,0.8631,-0.0001185016,12.9465,0
0.864,-5.740444E-05,12.96,0,0.864,-9.030289E-05,12.96,0
0.8649,-2.316319E-05,12.9735,0,0.8649,-4.867628E-05,12.9735,0
0.8658,-2.047761E-05,12.987,0,0.8658,-2.047761E-05,12.987,0
0.8667,-9.063859E-06,13.0005,0,0.8667,3.289845E-05,13.0005,0
0.8676,-5.471885E-05,13.014,0,0.8676,9.164568E-05,13.014,0
0.8685,-1.376364E-05,13.0275,0,0.8685,0.0001003738,13.0275,0
0.8694,1.779202E-05,13.041,0,0.8694,5.102617E-05,13.041,0
0.8703,4.196231E-05,13.0545,0,0.8703,2.316319E-05,13.0545,0
0.8712,3.659113E-05,13.068,0,0.8712,-2.752728E-05,13.068,0
0.8721,-1.007095E-06,13.0815,0,0.8721,-7.049668E-05,13.0815,0
0.873,-4.699779E-06,13.095,0,0.873,-7.721065E-06,13.095,0
0.8739,2.316319E-05,13.1085,0,0.8739,1.510643E-05,13.1085,0
0.8748,3.289845E-05,13.122,0,0.8748,-3.189136E-05,13.122,0
0.8757,6.277562E-05,13.1355,0,0.8757,-5.035477E-05,13.1355,0
0.8766,2.954147E-05,13.149,0,0.8766,3.692683E-06,13.149,0
0.8775,-1.007095E-05,13.1625,0,0.8775,-2.24918E-05,13.1625,0
0.8784,-3.927672E-05,13.176,0,0.8784,-3.659113E-05,13.176,0
0.8793,3.054856E-05,13.1895,0,0.8793,-3.860533E-05,13.1895,0
0.8802,5.706874E-05,13.203,0,0.8802,-3.457694E-05,13.203,0
0.8811,7.049668E-06,13.2165,0,0.8811,-4.162661E-05,13.2165,0
0.882,-8.92958E-05,13.23,0,0.882,-9.030289E-05,13.23,0
0.8829,-9.399557E-05,13.2435,0,0.8829,-9.231708E-05,13.2435,0
0.8838,-7.351797E-05,13.257,0,0.8838,-5.807584E-05,13.257,0
0.8847,-5.069047E-05,13.2705,0,0.8847,-7.284657E-05,13.2705,0
0.8856,2.786297E-05,13.284,0,0.8856,-5.069047E-05,13.284,0
0.8865,4.49836E-05,13.2975,0,0.8865,4.36408E-05,13.2975,0
0.8874,1.510643E-05,13.311,0,0.8874,4.53193E-05,13.311,0
0.8883,-8.392462E-06,13.3245,0,0.8883,-2.484169E-05,13.3245,0
0.8892,-3.021286E-06,13.338,0,0.8892,-3.927672E-05,13.338,0
0.8901,2.652018E-05,13.3515,0,0.8901,1.141375E-05,13.3515,0
0.891,-3.524834E-05,13.365,0,0.891,-1.007095E-06,13.365,0
0.8919,-9.869535E-05,13.3785,0,0.8919,-2.014191E-05,13.3785,0
0.8928,-4.33051E-05,13.392,0,0.8928,-7.083238E-05,13.392,0
0.8937,-1.980621E-05,13.4055,0,0.8937,-5.740444E-05,13.4055,0
0.8946,6.143282E-05,13.419,0,0.8946,-2.24918E-05,13.419,0
0.8955,9.869535E-05,13.4325,0,0.8955,-2.987716E-05,13.4325,0
0.8964,7.620356E-05,13.446,0,0.8964,-2.316319E-05,13.446,0
0.8973,1.510643E-05,13.4595,0,0.8973,2.551309E-05,13.4595,0
0.8982,-1.678492E-06,13.473,0,0.8982,2.1149E-05,13.473,0
0.8991,-1.712062E-05,13.4865,0,0.8991,-2.316319E-05,13.4865,0
0.9,-7.687495E-05,13.5,0,0.9,1.678492E-05,13.5,0
0.9009,-7.150377E-05,13.5135,0,0.9009,1.376364E-05,13.5135,0
0.9018,-1.409934E-05,13.527,0,0.9018,-4.162661E-05,13.527,0
0.9027,2.954147E-05,13.5405,0,0.9027,-2.920577E-05,13.5405,0
0.9036,-5.706874E-06,13.554,0,0.9036,-3.860533E-05,13.554,0
0.9045,1.309224E-05,13.5675,0,0.9045,-8.69459E-05,13.5675,0
0.9054,1.577783E-05,13.581,0,0.9054,-0.0001453574,13.581,0
0.9063,0.0001178302,13.5945,0,0.9063,-0.0002098116,13.5945,0
0.9072,0.0002615091,13.608,0,0.9072,-0.0001990692,13.608,0
0.9081,0.0002668803,13.6215,0,0.9081,-0.0002044404,13.6215,0
0.909,0.0001889983,13.635,0,0.909,-0.0001467002,13.635,0
0.9099,3.189136E-05,13.6485,0,0.9099,-0.0001010452,13.6485,0
0.9108,-0.0001332723,13.662,0,0.9108,7.754635E-05,13.662,0
0.9117,-0.0002940719,13.6755,0,0.9117,0.0002490883,13.6755,0
0.9126,-0.0003769894,13.689,0,0.9126,0.0002339818,13.689,0
0.9135,-0.0003296559,13.7025,0,0.9135,0.0002776226,13.7025,0
0.9144,-0.0001265583,13.716,0,0.9144,0.0002796368,13.716,0
0.9153,-1.107805E-05,13.7295,0,0.9153,0.0001245441,13.7295,0
0.9162,-1.712062E-05,13.743,0,0.9162,7.217517E-05,13.743,0
0.9171,-6.6804E-05,13.7565,0,0.9171,9.063859E-05,13.7565,0
0.918,-5.471885E-05,13.77,0,0.918,3.121996E-05,13.77,0
0.9189,-8.728161E-06,13.7835,0,0.9189,3.021286E-06,13.7835,0
0.9198,-3.256275E-05,13.797,0,0.9198,-4.061952E-05,13.797,0
0.9207,-8.392462E-05,13.8105,0,0.9207,-3.491264E-05,13.8105,0
0.9216,-9.399558E-06,13.824,0,0.9216,-8.728161E-06,13.824,0
0.9225,7.049668E-06,13.8375,0,0.9225,-5.539025E-05,13.8375,0
0.9234,1.980621E-05,13.851,0,0.9234,-9.433127E-05,13.851,0
0.9243,3.323415E-05,13.8645,0,0.9243,-5.203327E-05,13.8645,0
0.9252,5.572595E-05,13.878,0,0.9252,-6.277562E-05,13.878,0
0.9261,9.634547E-05,13.8915,0,0.9261,-0.0001326009,13.8915,0
0.927,0.000126894,13.905,0,0.927,-8.89601E-05,13.905,0
0.9279,0.0001483787,13.9185,0,0.9279,-5.874724E-05,13.9185,0
0.9288,0.0001017166,13.932,0,0.9288,-8.291753E-05,13.932,0
0.9297,4.263371E-05,13.9455,0,0.9297,-7.855344E-05,13.9455,0
0.9306,7.821774E-05,13.959,0,0.9306,-5.975433E-05,13.959,0
0.9315,-1.812772E-05,13.9725,0,0.9315,-5.807584E-05,13.9725,0
0.9324,-0.0001406577,13.986,0,0.9324,-2.349889E-06,13.986,0
0.9333,-0.0001111162,13.9995,0,0.9333,-1.678492E-06,13.9995,0
0.9342,-3.524834E-05,14.013,0,0.9342,1.174945E-05,14.013,0
0.9351,-2.584878E-05,14.0265,0,0.9351,1.846342E-05,14.0265,0
0.936,3.256275E-05,14.04,0,0.936,4.263371E-05,14.04,0
0.9369,0.0001275654,14.0535,0,0.9369,3.793393E-05,14.0535,0
0.9378,4.229801E-05,14.067,0,0.9378,7.653925E-05,14.067,0
0.9387,-8.358892E-05,14.0805,0,0.9387,2.014191E-06,14.0805,0
0.9396001,-0.000119173,14.094,0,0.9396001,-8.82887E-05,14.094,0
0.9405,-0.0001514,14.1075,0,0.9405,-3.054856E-05,14.1075,0
0.9414001,-0.0001373007,14.121,0,0.9414001,4.36408E-06,14.121,0
0.9423,-3.793393E-05,14.1345,0,0.9423,-4.599069E-05,14.1345,0
0.9432001,-6.042573E-06,14.148,0,0.9432001,-2.719158E-05,14.148,0
0.9441,-4.263371E-05,14.1615,0,0.9441,6.378271E-06,14.1615,0
0.9450001,-8.728161E-06,14.175,0,0.9450001,-1.846342E-05,14.175,0
0.9459,1.040665E-05,14.1885,0,0.9459,-7.385367E-06,14.1885,0
0.9468,1.644922E-05,14.202,0,0.9468,-3.994812E-05,14.202,0
0.9477,5.606165E-05,14.2155,0,0.9477,-2.18204E-05,14.2155,0
0.9486,0.0001708705,14.229,0,0.9486,-1.678492E-05,14.229,0
0.9495,8.69459E-05,14.2425,0,0.9495,-2.316319E-05,14.2425,0
0.9504,3.088426E-05,14.256,0,0.9504,-3.625543E-05,14.256,0
0.9513,2.887007E-05,14.2695,0,0.9513,-3.356985E-06,14.2695,0
0.9522,3.189136E-05,14.283,0,0.9522,-2.18204E-05,14.283,0
0.9531,8.056763E-06,14.2965,0,0.9531,-5.908293E-05,14.2965,0
0.954,-4.867628E-05,14.31,0,0.954,-8.526741E-05,14.31,0
0.9549,1.678492E-05,14.3235,0,0.9549,-0.0001205158,14.3235,0
0.9558,2.1149E-05,14.337,0,0.9558,-0.0001409934,14.337,0
0.9567,-3.054856E-05,14.3505,0,0.9567,-0.0001376364,14.3505,0
0.9576,-7.083238E-05,14.364,0,0.9576,-6.61326E-05,14.364,0
0.9585,1.007095E-06,14.3775,0,0.9585,-2.819867E-05,14.3775,0
0.9594,1.947051E-05,14.391,0,0.9594,1.376364E-05,14.391,0
0.9603,-1.342794E-05,14.4045,0,0.9603,3.289845E-05,14.4045,0
0.9612,1.107805E-05,14.418,0,0.9612,6.243992E-05,14.418,0
0.9621,-4.699779E-05,14.4315,0,0.9621,9.903105E-05,14.4315,0
0.963,-7.217517E-05,14.445,0,0.963,4.53193E-05,14.445,0
0.9639,-5.941863E-05,14.4585,0,0.9639,-1.510643E-05,14.4585,0
0.9648,-2.517739E-05,14.472,0,0.9648,2.987716E-05,14.472,0
0.9657,1.007095E-05,14.4855,0,0.9657,2.047761E-05,14.4855,0
0.9666,-1.174945E-05,14.499,0,0.9666,-7.620356E-05,14.499,0
0.9675,-3.793393E-05,14.5125,0,0.9675,-5.606165E-05,14.5125,0
0.9684,2.349889E-06,14.526,0,0.9684,-8.191043E-05,14.526,0
0.9693,-1.510643E-05,14.5395,0,0.9693,-0.0001258869,14.5395,0
0.9702,-9.164568E-05,14.553,0,0.9702,-0.0001141375,14.553,0
0.9711,-1.980621E-05,14.5665,0,0.9711,-1.678492E-06,14.5665,0
0.972,1.644922E-05,14.58,0,0.972,6.009003E-05,14.58,0
0.9729,-2.14847E-05,14.5935,0,0.9729,8.526741E-05,14.5935,0
0.9738,1.141375E-05,14.607,0,0.9738,7.452507E-05,14.607,0
0.9747,3.860533E-05,14.6205,0,0.9747,9.332418E-05,14.6205,0
0.9756,4.39765E-05,14.634,0,0.9756,0.0001044022,14.634,0
0.9765,4.263371E-05,14.6475,0,0.9765,-1.141375E-05,14.6475,0
0.9774,4.43122E-05,14.661,0,0.9774,-7.620356E-05,14.661,0
0.9783,1.678492E-06,14.6745,0,0.9783,-7.116808E-05,14.6745,0
0.9792,0,14.688,0,0.9792,-0.0001467002,14.688,0
0.9801,6.042573E-06,14.7015,0,0.9801,-0.000239353,14.7015,0
0.981,-1.812772E-05,14.715,0,0.981,-9.970245E-05,14.715,0
0.9819,-3.356985E-06,14.7285,0,0.9819,3.994812E-05,14.7285,0
0.9828,2.719158E-05,14.742,0,0.9828,7.956054E-05,14.742,0
0.9837,3.558404E-05,14.7555,0,0.9837,8.090334E-05,14.7555,0
0.9846,1.913481E-05,14.769,0,0.9846,0.0001900053,14.769,0
0.9855,4.263371E-05,14.7825,0,0.9855,0.0001822843,14.7825,0
0.9864,3.155566E-05,14.796,0,0.9864,4.599069E-05,14.796,0
0.9873,-9.298848E-05,14.8095,0,0.9873,-6.61326E-05,14.8095,0
0.9882,-0.0001292439,14.823,0,0.9882,-2.853437E-05,14.823,0
0.9891,-8.392462E-05,14.8365,0,0.9891,3.558404E-05,14.8365,0
0.99,-2.551309E-05,14.85,0,0.99,-1.644922E-05,14.85,0
0.9909,-4.36408E-06,14.8635,0,0.9909,-4.129091E-05,14.8635,0
0.9918,1.879912E-05,14.877,0,0.9918,2.1149E-05,14.877,0
0.9927,-1.275654E-05,14.8905,0,0.9927,-7.721065E-06,14.8905,0
0.9936,-7.385367E-06,14.904,0,0.9936,-7.888914E-05,14.904,0
0.9945,1.040665E-05,14.9175,0,0.9945,-5.471885E-05,14.9175,0
0.9954,7.083238E-05,14.931,0,0.9954,-1.779202E-05,14.931,0
0.9963,3.894102E-05,14.9445,0,0.9963,-5.169757E-05,14.9445,0
0.9972,7.721065E-06,14.958,0,0.9972,-5.471885E-05,14.958,0
0.9981,-2.786297E-05,14.9715,0,0.9981,-3.927672E-05,14.9715,0
0.999,-2.719158E-05,14.985,0,0.999,-5.673304E-05,14.985,0
0.9999,-6.61326E-05,14.9985,0,0.9999,-7.855344E-05,14.9985,0
1.0008,-5.606165E-05,15.012,0,1.0008,-5.471885E-05,15.012,0
1.0017,-7.049668E-05,15.0255,0,1.0017,-5.404745E-05,15.0255,0
1.0026,-8.056764E-05,15.039,0,1.0026,-6.814679E-05,15.039,0
1.0035,-5.304036E-05,15.0525,0,1.0035,-7.418937E-05,15.0525,0
1.0044,-4.666209E-05,15.066,0,1.0044,-6.948959E-05,15.066,0
1.0053,-6.61326E-05,15.0795,0,1.0053,2.047761E-05,15.0795,0
1.0062,-4.196231E-05,15.093,0,1.0062,1.477073E-05,15.093,0
1.0071,0.0001688563,15.1065,0,1.0071,-3.591974E-05,15.1065,0
1.008,0.0002880293,15.12,0,1.008,2.517739E-05,15.12,0
1.0089,0.0003595331,15.1335,0,1.0089,2.24918E-05,15.1335,0
1.0098,0.0002326391,15.147,0,1.0098,-3.793393E-05,15.147,0
1.0107,3.692683E-06,15.1605,0,1.0107,-5.740444E-05,15.1605,0
1.0116,-0.0001658351,15.174,0,1.0116,-7.385367E-05,15.174,0
1.0125,-0.0002719158,15.1875,0,1.0125,-0.0001282368,15.1875,0
1.0134,-0.0001957122,15.201,0,1.0134,-7.754635E-05,15.201,0
1.0143,-0.0001658351,15.2145,0,1.0143,-1.980621E-05,15.2145,0
1.0152,-0.000161471,15.228,0,1.0152,3.189136E-05,15.228,0
1.0161,-1.644922E-05,15.2415,0,1.0161,4.766919E-05,15.2415,0
1.017,4.43122E-05,15.255,0,1.017,1.477073E-05,15.255,0
1.0179,5.404745E-05,15.2685,0,1.0179,-9.735256E-06,15.2685,0
1.0188,4.229801E-05,15.282,0,1.0188,6.009003E-05,15.282,0
1.0197,1.242084E-05,15.2955,0,1.0197,7.116808E-05,15.2955,0
1.0206,1.846342E-05,15.309,0,1.0206,-9.399558E-06,15.309,0
1.0215,-0.0001232013,15.3225,0,1.0215,-7.721065E-06,15.3225,0
1.0224,-0.000190341,15.336,0,1.0224,-2.1149E-05,15.336,0
1.0233,-8.627451E-05,15.3495,0,1.0233,-5.841154E-05,15.3495,0
1.0242,-3.121996E-05,15.363,0,1.0242,-4.39765E-05,15.363,0
1.0251,-3.558404E-05,15.3765,0,1.0251,6.713969E-06,15.3765,0
1.026,3.155566E-05,15.39,0,1.026,1.712062E-05,15.39,0
1.0269,9.399558E-06,15.4035,0,1.0269,-1.544213E-05,15.4035,0
1.0278,-3.021286E-05,15.417,0,1.0278,-0.0001188373,15.417,0
1.0287,8.392462E-06,15.4305,0,1.0287,-0.000115816,15.4305,0
1.0296,-3.860533E-05,15.444,0,1.0296,-9.231708E-05,15.444,0
1.0305,-6.411841E-05,15.4575,0,1.0305,-0.0001326009,15.4575,0
1.0314,-5.136187E-05,15.471,0,1.0314,-0.0001245441,15.471,0
1.0323,-1.745632E-05,15.4845,0,1.0323,-1.947051E-05,15.4845,0
1.0332,1.510643E-05,15.498,0,1.0332,4.36408E-06,15.498,0
1.0341,6.378271E-05,15.5115,0,1.0341,6.176852E-05,15.5115,0
1.035,9.567407E-05,15.525,0,1.035,0.0001806058,15.525,0
1.0359,0.0001164874,15.5385,0,1.0359,0.0001238727,15.5385,0
1.0368,0.0001054093,15.552,0,1.0368,5.337606E-05,15.552,0
1.0377,9.298848E-05,15.5655,0,1.0377,5.706874E-06,15.5655,0
1.0386,-5.706874E-06,15.579,0,1.0386,8.056763E-06,15.579,0
1.0395,-8.72816E-05,15.5925,0,1.0395,8.392462E-06,15.5925,0
1.0404,-1.913481E-05,15.606,0,1.0404,6.713969E-07,15.606,0
1.0413,3.457694E-05,15.6195,0,1.0413,-1.611353E-05,15.6195,0
1.0422,7.721065E-06,15.633,0,1.0422,-4.934768E-05,15.633,0
1.0431,-3.692683E-06,15.6465,0,1.0431,-6.210422E-05,15.6465,0
1.044,8.392462E-06,15.66,0,1.044,-0.0001151446,15.66,0
1.0449,5.102617E-05,15.6735,0,1.0449,-0.0001470359,15.6735,0
1.0458,3.356985E-07,15.687,0,1.0458,-9.701686E-05,15.687,0
1.0467,3.155566E-05,15.7005,0,1.0467,-6.009003E-05,15.7005,0
1.0476,8.761731E-05,15.714,0,1.0476,-5.606165E-05,15.714,0
1.0485,8.392462E-06,15.7275,0,1.0485,2.24918E-05,15.7275,0
1.0494,-1.644922E-05,15.741,0,1.0494,7.217517E-05,15.741,0
1.0503,5.136187E-05,15.7545,0,1.0503,6.411841E-05,15.7545,0
1.0512,0.000144686,15.768,0,1.0512,2.383459E-05,15.768,0
1.0521,8.392462E-06,15.7815,0,1.0521,2.316319E-05,15.7815,0
1.053,-8.92958E-05,15.795,0,1.053,1.980621E-05,15.795,0
1.0539,-3.793393E-05,15.8085,0,1.0539,1.409934E-05,15.8085,0
1.0548,-5.606165E-05,15.822,0,1.0548,2.316319E-05,15.822,0
1.0557,-0.0001379721,15.8355,0,1.0557,5.572595E-05,15.8355,0
1.0566,-0.0002054475,15.849,0,1.0566,3.927672E-05,15.849,0
1.0575,-0.0001164874,15.8625,0,1.0575,3.155566E-05,15.8625,0
1.0584,-1.477073E-05,15.876,0,1.0584,9.399558E-06,15.876,0
1.0593,-2.24918E-05,15.8895,0,1.0593,5.069047E-05,15.8895,0
1.0602,2.450599E-05,15.903,0,1.0602,2.417029E-05,15.903,0
1.0611,2.920577E-05,15.9165,0,1.0611,-4.263371E-05,15.9165,0
1.062,1.007095E-06,15.93,0,1.062,-2.21561E-05,15.93,0
1.0629,1.846342E-05,15.9435,0,1.0629,-2.551309E-05,15.9435,0
1.0638,1.174945E-05,15.957,0,1.0638,-0.0001114519,15.957,0
1.0647,2.1149E-05,15.9705,0,1.0647,-0.0001000381,15.9705,0
1.0656,-3.659113E-05,15.984,0,1.0656,-7.083238E-05,15.984,0
1.0665,-4.36408E-06,15.9975,0,1.0665,-7.989624E-05,15.9975,0
1.0674,2.014191E-05,16.011,0,1.0674,-3.356985E-05,16.011,0
1.0683,4.229801E-05,16.0245,0,1.0683,-1.107805E-05,16.0245,0
1.0692,5.035477E-06,16.038,0,1.0692,2.081331E-05,16.038,0
1.0701,1.779202E-05,16.0515,0,1.0701,3.726253E-05,16.0515,0
1.071,0.0001597925,16.065,0,1.071,-1.107805E-05,16.065,0
1.0719,0.000312871,16.0785,0,1.0719,-5.807584E-05,16.0785,0
1.0728,0.0003165637,16.092,0,1.0728,-1.879912E-05,16.092,0
1.0737,0.0002554666,16.1055,0,1.0737,-7.586786E-05,16.1055,0
1.0746,8.291753E-05,16.119,0,1.0746,-0.0001493858,16.119,0
1.0755,-0.0001886625,16.1325,0,1.0755,-6.143282E-05,16.1325,0
1.0764,-0.0004095522,16.146,0,1.0764,-4.061952E-05,16.146,0
1.0773,-0.0004548714,16.1595,0,1.0773,-9.466698E-05,16.1595,0
1.0782,-0.0003528191,16.173,0,1.0782,-6.54612E-05,16.173,0
1.0791,-0.0001208515,16.1865,0,1.0791,-3.390555E-05,16.1865,0
1.08,-5.572595E-05,16.2,0,1.08,-1.611353E-05,16.2,0
1.0809,-6.378271E-05,16.2135,0,1.0809,-1.846342E-05,16.2135,0
1.0818,6.713969E-06,16.227,0,1.0818,-7.418937E-05,16.227,0
1.0827,8.761731E-05,16.2405,0,1.0827,-7.284657E-05,16.2405,0
1.0836,4.36408E-05,16.254,0,1.0836,-0.0001295796,16.254,0
1.0845,2.450599E-05,16.2675,0,1.0845,-0.0001040665,16.2675,0
1.0854,-4.733349E-05,16.281,0,1.0854,-3.356985E-05,16.281,0
1.0863,-6.881819E-05,16.2945,0,1.0863,-1.376364E-05,16.2945,0
1.0872,-5.001907E-05,16.308,0,1.0872,2.349889E-06,16.308,0
1.0881,-2.383459E-05,16.3215,0,1.0881,8.157473E-05,16.3215,0
1.089,9.735256E-06,16.335,0,1.089,0.0002155184,16.335,0
1.0899,-1.678492E-06,16.3485,0,1.0899,0.0001889983,16.3485,0
1.0908,-3.692683E-06,16.362,0,1.0908,9.164568E-05,16.362,0
1.0917,3.692683E-06,16.3755,0,1.0917,5.740444E-05,16.3755,0
1.0926,-2.819867E-05,16.389,0,1.0926,3.356985E-05,16.389,0
1.0935,-1.040665E-05,16.4025,0,1.0935,2.349889E-06,16.4025,0
1.0944,2.887007E-05,16.416,0,1.0944,-4.36408E-06,16.416,0
1.0953,3.994812E-05,16.4295,0,1.0953,-3.625543E-05,16.4295,0
1.0962,2.047761E-05,16.443,0,1.0962,-4.33051E-05,16.443,0
1.0971,-5.069047E-05,16.4565,0,1.0971,-8.89601E-05,16.4565,0
1.098,-1.174945E-05,16.47,0,1.098,-0.000148043,16.47,0
1.0989,2.383459E-05,16.4835,0,1.0989,-0.0001426719,16.4835,0
1.0998,3.356985E-06,16.497,0,1.0998,-9.533837E-05,16.497,0
1.1007,2.652018E-05,16.5105,0,1.1007,-6.210422E-05,16.5105,0
1.1016,0.0001010452,16.524,0,1.1016,-2.551309E-05,16.524,0
1.1025,0.0001174945,16.5375,0,1.1025,7.721065E-05,16.5375,0
1.1034,0.0001379721,16.551,0,1.1034,0.0001185016,16.551,0
1.1043,9.231708E-05,16.5645,0,1.1043,2.853437E-05,16.5645,0
1.1052,4.028382E-06,16.578,0,1.1052,-8.72816E-05,16.578,0
1.1061,3.927672E-05,16.5915,0,1.1061,-5.001907E-05,16.5915,0
1.107,0.0001044022,16.605,0,1.107,-6.74754E-05,16.605,0
1.1079,-4.43122E-05,16.6185,0,1.1079,-9.500267E-05,16.6185,0
1.1088,-0.0001117876,16.632,0,1.1088,-7.351797E-05,16.632,0
1.1097,4.028382E-05,16.6455,0,1.1097,1.510643E-05,16.6455,0
1.1106,9.097429E-05,16.659,0,1.1106,9.231708E-05,16.659,0
1.1115,4.36408E-06,16.6725,0,1.1115,1.174945E-05,16.6725,0
1.1124,-1.107805E-05,16.686,0,1.1124,-8.258183E-05,16.686,0
1.1133,5.606165E-05,16.6995,0,1.1133,-4.028382E-06,16.6995,0
1.1142,2.652018E-05,16.713,0,1.1142,-7.385367E-06,16.713,0
1.1151,-0.0001440146,16.7265,0,1.1151,-2.920577E-05,16.7265,0
1.116,-8.627451E-05,16.74,0,1.116,9.701686E-05,16.74,0
1.1169,-8.627451E-05,16.7535,0,1.1169,7.217517E-05,16.7535,0
1.1178,-0.0001255512,16.767,0,1.1178,-5.270466E-05,16.767,0
1.1187,-6.848249E-05,16.7805,0,1.1187,-6.54612E-05,16.7805,0
1.1196,6.713969E-06,16.794,0,1.1196,-1.846342E-05,16.794,0
1.1205,9.970245E-05,16.8075,0,1.1205,-9.063859E-06,16.8075,0
1.1214,0.0001527428,16.821,0,1.1214,1.141375E-05,16.821,0
1.1223,7.620356E-05,16.8345,0,1.1223,-1.443504E-05,16.8345,0
1.1232,-0.0001010452,16.848,0,1.1232,-2.1149E-05,16.848,0
1.1241,-0.0001963836,16.8615,0,1.1241,-1.007095E-06,16.8615,0
1.125,-0.0002168612,16.875,0,1.125,-4.632639E-05,16.875,0
1.1259,-0.0001886625,16.8885,0,1.1259,-3.155566E-05,16.8885,0
1.1268,-2.987716E-05,16.902,0,1.1268,-2.081331E-05,16.902,0
1.1277,-2.316319E-05,16.9155,0,1.1277,-7.956054E-05,16.9155,0
1.1286,-0.0001000381,16.929,0,1.1286,-0.0001074235,16.929,0
1.1295,3.021286E-06,16.9425,0,1.1295,-1.376364E-05,16.9425,0
1.1304,3.524834E-05,16.956,0,1.1304,2.24918E-05,16.956,0
1.1313,3.289845E-05,16.9695,0,1.1313,-3.424125E-05,16.9695,0
1.1322,2.719158E-05,16.983,0,1.1322,-3.927672E-05,16.983,0
1.1331,-2.719158E-05,16.9965,0,1.1331,2.1149E-05,16.9965,0
1.134,1.107805E-05,17.01,0,1.134,-5.471885E-05,17.01,0
1.1349,-1.779202E-05,17.0235,0,1.1349,-0.0001000381,17.0235,0
1.1358,-7.049668E-06,17.037,0,1.1358,-0.0001362936,17.037,0
1.1367,4.129091E-05,17.0505,0,1.1367,-0.000112459,17.0505,0
1.1376,-1.678492E-05,17.064,0,1.1376,-5.874724E-05,17.064,0
1.1385,4.666209E-05,17.0775,0,1.1385,-4.196231E-05,17.0775,0
1.1394,0.0001698634,17.091,0,1.1394,3.054856E-05,17.091,0
1.1403,9.869535E-05,17.1045,0,1.1403,0.0001047379,17.1045,0
1.1412,-2.21561E-05,17.118,0,1.1412,1.040665E-05,17.118,0
1.1421,-4.867628E-05,17.1315,0,1.1421,-3.961242E-05,17.1315,0
1.143,-4.061952E-05,17.145,0,1.143,-6.378271E-06,17.145,0
1.1439,-0.0001077592,17.1585,0,1.1439,-5.035477E-06,17.1585,0
1.1448,-3.356985E-07,17.172,0,1.1448,-3.659113E-05,17.172,0
1.1457,0.000109102,17.1855,0,1.1457,-2.349889E-06,17.1855,0
1.1466,5.001907E-05,17.199,0,1.1466,0.0001003738,17.199,0
1.1475,6.378271E-06,17.2125,0,1.1475,8.82887E-05,17.2125,0
1.1484,-1.376364E-05,17.226,0,1.1484,4.800488E-05,17.226,0
1.1493,-3.457694E-05,17.2395,0,1.1493,1.007095E-06,17.2395,0
1.1502,-7.821774E-05,17.253,0,1.1502,-1.409934E-05,17.253,0
1.1511,-0.0001292439,17.2665,0,1.1511,-4.36408E-06,17.2665,0
1.152,-4.46479E-05,17.28,0,1.152,-5.169757E-05,17.28,0
1.1529,-9.063859E-06,17.2935,0,1.1529,-7.586786E-05,17.2935,0
1.1538,-1.007095E-05,17.307,0,1.1538,3.021286E-06,17.307,0
1.1547,4.934768E-05,17.3205,0,1.1547,-5.975433E-05,17.3205,0
1.1556,6.411841E-05,17.334,0,1.1556,-0.0001500572,17.334,0
1.1565,1.913481E-05,17.3475,0,1.1565,-5.908293E-05,17.3475,0
1.1574,3.860533E-05,17.361,0,1.1574,-1.007095E-06,17.361,0
1.1583,2.920577E-05,17.3745,0,1.1583,-3.457694E-05,17.3745,0
1.1592,-7.016098E-05,17.388,0,1.1592,-2.349889E-06,17.388,0
1.1601,-0.0001232013,17.4015,0,1.1601,9.735256E-05,17.4015,0
1.161,-5.505455E-05,17.415,0,1.161,0.0001262226,17.415,0
1.1619,6.378271E-06,17.4285,0,1.1619,2.685588E-05,17.4285,0
1.1628,-7.049668E-06,17.442,0,1.1628,-3.323415E-05,17.442,0
1.1637,1.913481E-05,17.4555,0,1.1637,-1.309224E-05,17.4555,0
1.1646,4.263371E-05,17.469,0,1.1646,-6.74754E-05,17.469,0
1.1655,3.524834E-05,17.4825,0,1.1655,-0.000115816,17.4825,0
1.1664,5.337606E-05,17.496,0,1.1664,-8.023193E-05,17.496,0
1.1673,4.43122E-05,17.5095,0,1.1673,-3.054856E-05,17.5095,0
1.1682,3.054856E-05,17.523,0,1.1682,-3.927672E-05,17.523,0
1.1691,0.0001906767,17.5365,0,1.1691,3.994812E-05,17.5365,0
1.17,0.000126894,17.55,0,1.17,0.0001413291,17.55,0
1.1709,-8.526741E-05,17.5635,0,1.1709,1.443504E-05,17.5635,0
1.1718,-0.0001312581,17.577,0,1.1718,-0.0001597925,17.577,0
1.1727,-0.0001675135,17.5905,0,1.1727,-0.0001054093,17.5905,0
1.1736,-0.0001668421,17.604,0,1.1736,-7.620356E-05,17.604,0
1.1745,-5.270466E-05,17.6175,0,1.1745,-3.860533E-05,17.6175,0
1.1754,5.471885E-05,17.631,0,1.1754,5.035477E-05,17.631,0
1.1763,8.157473E-05,17.6445,0,1.1763,9.231708E-05,17.6445,0
1.1772,9.634547E-05,17.658,0,1.1772,8.72816E-05,17.658,0
1.1781,9.634547E-05,17.6715,0,1.1781,0.0001030594,17.6715,0
1.179,-1.678492E-05,17.685,0,1.179,2.920577E-05,17.685,0
1.1799,-7.486076E-05,17.6985,0,1.1799,-1.309224E-05,17.6985,0
1.1808,-3.793393E-05,17.712,0,1.1808,1.443504E-05,17.712,0
1.1817,1.678492E-05,17.7255,0,1.1817,-1.712062E-05,17.7255,0
1.1826,3.726253E-05,17.739,0,1.1826,-7.553216E-05,17.739,0
1.1835,-1.208515E-05,17.7525,0,1.1835,-3.927672E-05,17.7525,0
1.1844,-0.000119173,17.766,0,1.1844,-1.745632E-05,17.766,0
1.1853,-9.466698E-05,17.7795,0,1.1853,-5.572595E-05,17.7795,0
1.1862,-6.51255E-05,17.793,0,1.1862,-5.572595E-05,17.793,0
1.1871,-4.699779E-06,17.8065,0,1.1871,-3.424125E-05,17.8065,0
1.188,4.43122E-05,17.82,0,1.188,-6.61326E-05,17.82,0
1.1889,5.001907E-05,17.8335,0,1.1889,-6.143282E-05,17.8335,0
1.1898,7.486076E-05,17.847,0,1.1898,-6.076142E-05,17.847,0
1.1907,0.0001285725,17.8605,0,1.1907,-5.270466E-05,17.8605,0
1.1916,0.0001607996,17.874,0,1.1916,-4.39765E-05,17.874,0
1.1925,0.0002178683,17.8875,0,1.1925,-6.411841E-05,17.8875,0
1.1934,0.0001352865,17.901,0,1.1934,-0.0001144732,17.901,0
1.1943,-3.424125E-05,17.9145,0,1.1943,-0.0001299153,17.9145,0
1.1952,-0.000161471,17.928,0,1.1952,-0.0001332723,17.928,0
1.1961,-0.0002641947,17.9415,0,1.1961,-0.0001433432,17.9415,0
1.197,-0.0003424124,17.955,0,1.197,-0.0001067521,17.955,0
1.1979,-0.0003011215,17.9685,0,1.1979,-3.021286E-05,17.9685,0
1.1988,-7.821774E-05,17.982,0,1.1988,4.39765E-05,17.982,0
1.1997,4.263371E-05,17.9955,0,1.1997,0.000123537,17.9955,0
1.2006,2.18204E-05,18.009,0,1.2006,0.0001279011,18.009,0
1.2015,-1.678492E-06,18.0225,0,1.2015,0.0001279011,18.0225,0
1.2024,1.644922E-05,18.036,0,1.2024,0.0001366293,18.036,0
1.2033,-1.913481E-05,18.0495,0,1.2033,7.183947E-05,18.0495,0
1.2042,2.081331E-05,18.063,0,1.2042,3.860533E-05,18.063,0
1.2051,-1.409934E-05,18.0765,0,1.2051,2.987716E-05,18.0765,0
1.206,-3.424125E-05,18.09,0,1.206,-1.644922E-05,18.09,0
1.2069,-6.57969E-05,18.1035,0,1.2069,-5.270466E-05,18.1035,0
1.2078,-6.64683E-05,18.117,0,1.2078,-1.678492E-06,18.117,0
1.2087,-3.591974E-05,18.1305,0,1.2087,-3.692683E-06,18.1305,0
1.2096,3.189136E-05,18.144,0,1.2096,-6.982528E-05,18.144,0
1.2105,4.699779E-05,18.1575,0,1.2105,-4.028382E-06,18.1575,0
1.2114,0.0001138018,18.171,0,1.2114,2.1149E-05,18.171,0
1.2123,6.54612E-05,18.1845,0,1.2123,-8.023193E-05,18.1845,0
1.2132,5.035477E-06,18.198,0,1.2132,-0.000112459,18.198,0
1.2141,8.493171E-05,18.2115,0,1.2141,-5.471885E-05,18.2115,0
1.215,0.0001275654,18.225,0,1.215,-0.0001641566,18.225,0
1.2159,0.0001198444,18.2385,0,1.2159,-0.0002400244,18.2385,0
1.2168,1.376364E-05,18.252,0,1.2168,-0.0002511025,18.252,0
1.2177,2.014191E-05,18.2655,0,1.2177,-0.0001537499,18.2655,0
1.2186,7.083238E-05,18.279,0,1.2186,-4.33051E-05,18.279,0
1.2195,3.356985E-07,18.2925,0,1.2195,-3.692683E-06,18.2925,0
1.2204,-3.054856E-05,18.306,0,1.2204,0.0001393149,18.306,0
1.2213,-1.712062E-05,18.3195,0,1.2213,0.0003414054,18.3195,0
1.2222,-0.0001097734,18.333,0,1.2222,0.0002611734,18.333,0
1.2231,-0.0001198444,18.3465,0,1.2231,0.0001292439,18.3465,0
1.224,-0.000123537,18.36,0,1.224,6.478981E-05,18.36,0
1.2249,-6.61326E-05,18.3735,0,1.2249,2.047761E-05,18.3735,0
1.2258,-1.242084E-05,18.387,0,1.2258,-2.383459E-05,18.387,0
1.2267,-1.913481E-05,18.4005,0,1.2267,-2.551309E-05,18.4005,0
1.2276,2.014191E-06,18.414,0,1.2276,-1.342794E-06,18.414,0
1.2285,4.46479E-05,18.4275,0,1.2285,-2.887007E-05,18.4275,0
1.2294,6.57969E-05,18.441,0,1.2294,-5.841154E-05,18.441,0
1.2303,6.54612E-05,18.4545,0,1.2303,-7.318227E-05,18.4545,0
1.2312,2.417029E-05,18.468,0,1.2312,-8.728161E-06,18.468,0
1.2321,-2.383459E-05,18.4815,0,1.2321,1.712062E-05,18.4815,0
1.233,-2.18204E-05,18.495,0,1.233,-3.155566E-05,18.495,0
1.2339,-2.853437E-05,18.5085,0,1.2339,-0.0001084306,18.5085,0
1.2348,-4.263371E-05,18.522,0,1.2348,-7.553216E-05,18.522,0
1.2357,-2.853437E-05,18.5355,0,1.2357,-6.210422E-05,18.5355,0
1.2366,3.323415E-05,18.549,0,1.2366,-0.000119173,18.549,0
1.2375,6.277562E-05,18.5625,0,1.2375,-6.6804E-05,18.5625,0
1.2384,5.001907E-05,18.576,0,1.2384,-1.913481E-05,18.576,0
1.2393,3.894102E-05,18.5895,0,1.2393,3.356985E-07,18.5895,0
1.2402,-5.706874E-06,18.603,0,1.2402,5.740444E-05,18.603,0
1.2411,-3.625543E-05,18.6165,0,1.2411,3.927672E-05,18.6165,0
1.242,-3.692683E-06,18.63,0,1.242,-3.692683E-06,18.63,0
1.2429,8.89601E-05,18.6435,0,1.2429,1.510643E-05,18.6435,0
1.2438,0.000119173,18.657,0,1.2438,-5.841154E-05,18.657,0
1.2447,9.164568E-05,18.6705,0,1.2447,-0.0001853056,18.6705,0
1.2456,-1.712062E-05,18.684,0,1.2456,-0.0002823224,18.684,0
1.2465,-9.835965E-05,18.6975,0,1.2465,-0.0003400626,18.6975,0
1.2474,-7.284657E-05,18.711,0,1.2474,-0.0003249561,18.711,0
1.2483,-0.0001587854,18.7245,0,1.2483,-0.0001745632,18.7245,0
1.2492,-0.0001534142,18.738,0,1.2492,-5.874724E-05,18.738,0
1.2501,-0.0001493858,18.7515,0,1.2501,0.0001262226,18.7515,0
1.251,-0.0001420005,18.765,0,1.251,0.0004505074,18.765,0
1.2519,-0.0002084688,18.7785,0,1.2519,0.0003756466,18.7785,0
1.2528,-8.392462E-05,18.792,0,1.2528,0.0001685206,18.792,0
1.2537,7.721065E-06,18.8055,0,1.2537,8.526741E-05,18.8055,0
1.2546,-2.014191E-06,18.819,0,1.2546,7.116808E-05,18.819,0
1.2555,-5.706874E-06,18.8325,0,1.2555,6.344701E-05,18.8325,0
1.2564,2.383459E-05,18.846,0,1.2564,6.411841E-05,18.846,0
1.2573,2.1149E-05,18.8595,0,1.2573,-3.356985E-07,18.8595,0
1.2582,1.208515E-05,18.873,0,1.2582,-3.189136E-05,18.873,0
1.2591,5.203327E-05,18.8865,0,1.2591,-1.040665E-05,18.8865,0
1.26,0.0001040665,18.9,0,1.26,-4.263371E-05,18.9,0
1.2609,7.016098E-05,18.9135,0,1.2609,-7.083238E-05,18.9135,0
1.2618,1.779202E-05,18.927,0,1.2618,-3.692683E-06,18.927,0
1.2627,-1.779202E-05,18.9405,0,1.2627,-6.378271E-06,18.9405,0
1.2636,-6.78111E-05,18.954,0,1.2636,-0.0001312581,18.954,0
1.2645,-3.860533E-05,18.9675,0,1.2645,-0.0001607996,18.9675,0
1.2654,-1.913481E-05,18.981,0,1.2654,-0.0001900053,18.981,0
1.2663,-8.392462E-06,18.9945,0,1.2663,-0.0002124971,18.9945,0
1.2672,4.129091E-05,19.008,0,1.2672,-0.0001795987,19.008,0
1.2681,0.000115816,19.0215,0,1.2681,-3.390555E-05,19.0215,0
1.269,0.0002064546,19.035,0,1.269,9.466698E-05,19.035,0
1.2699,0.0001809415,19.0485,0,1.2699,0.0001967193,19.0485,0
1.2708,8.89601E-05,19.062,0,1.2708,0.0001520714,19.062,0
1.2717,-6.009003E-05,19.0755,0,1.2717,8.89601E-05,19.0755,0
1.2726,-0.0001436789,19.089,0,1.2726,7.855344E-05,19.089,0
1.2735,-9.231708E-05,19.1025,0,1.2735,2.752728E-05,19.1025,0
1.2744,-9.701686E-05,19.116,0,1.2744,-3.457694E-05,19.116,0
1.2753,-0.0001134661,19.1295,0,1.2753,2.383459E-05,19.1295,0
1.2762,-6.713969E-07,19.143,0,1.2762,-1.342794E-05,19.143,0
1.2771,0.0001117876,19.1565,0,1.2771,-0.0001238727,19.1565,0
1.278,0.0001178302,19.17,0,1.278,-9.634547E-05,19.17,0
1.2789,9.298848E-05,19.1835,0,1.2789,-0.000112459,19.1835,0
1.2798,7.183947E-05,19.197,0,1.2798,-0.0001779202,19.197,0
1.2807,-7.486076E-05,19.2105,0,1.2807,-0.000102388,19.2105,0
1.2816,-0.0001252155,19.224,0,1.2816,2.349889E-06,19.224,0
1.2825,-0.0001198444,19.2375,0,1.2825,4.49836E-05,19.2375,0
1.2834,-0.0001178302,19.251,0,1.2834,0.0001359579,19.251,0
1.2843,-9.869535E-05,19.2645,0,1.2843,1.040665E-05,19.2645,0
1.2852,-4.33051E-05,19.278,0,1.2852,-8.96315E-05,19.278,0
1.2861,8.560311E-05,19.2915,0,1.2861,-0.0001037308,19.2915,0
1.287,0.0002484169,19.305,0,1.287,-0.0001393149,19.305,0
1.2879,0.0002326391,19.3185,0,1.2879,-0.0001527428,19.3185,0
1.2888,0.000169192,19.332,0,1.2888,-8.728161E-06,19.332,0
1.2897,3.155566E-05,19.3455,0,1.2897,2.1149E-05,19.3455,0
1.2906,-5.539025E-05,19.359,0,1.2906,-2.349889E-05,19.359,0
1.2915,-0.000126894,19.3725,0,1.2915,7.418937E-05,19.3725,0
1.2924,-0.0001594568,19.386,0,1.2924,8.96315E-05,19.386,0
1.2933,-0.0002098116,19.3995,0,1.2933,-1.107805E-05,19.3995,0
1.2942,-0.0001332723,19.413,0,1.2942,-2.853437E-05,19.413,0
1.2951,3.591974E-05,19.4265,0,1.2951,-4.36408E-06,19.4265,0
1.296,8.392462E-05,19.44,0,1.296,6.378271E-06,19.44,0
1.2969,7.284657E-05,19.4535,0,1.2969,2.450599E-05,19.4535,0
1.2978,1.275654E-05,19.467,0,1.2978,-9.365987E-05,19.467,0
1.2987,3.121996E-05,19.4805,0,1.2987,-0.0001467002,19.4805,0
1.2996,-4.263371E-05,19.494,0,1.2996,-0.0001406577,19.494,0
1.3005,-0.0001238727,19.5075,0,1.3005,-0.0001373007,19.5075,0
1.3014,-0.0001453574,19.521,0,1.3014,-0.0001080949,19.521,0
1.3023,-4.196231E-05,19.5345,0,1.3023,3.356985E-07,19.5345,0
1.3032,-1.007095E-06,19.548,0,1.3032,8.392462E-05,19.548,0
1.3041,-9.869535E-05,19.5615,0,1.3041,0.0001698634,19.5615,0
1.305,-0.0001775845,19.575,0,1.305,0.0001755703,19.575,0
1.3059,-7.183947E-05,19.5885,0,1.3059,0.0002279393,19.5885,0
1.3068,3.256275E-05,19.602,0,1.3068,0.0001010452,19.602,0
1.3077,-5.706874E-06,19.6155,0,1.3077,2.484169E-05,19.6155,0
1.3086,-2.047761E-05,19.629,0,1.3086,2.920577E-05,19.629,0
1.3095,1.947051E-05,19.6425,0,1.3095,3.692683E-06,19.6425,0
1.3104,5.069047E-05,19.656,0,1.3104,-7.721065E-06,19.656,0
1.3113,2.887007E-05,19.6695,0,1.3113,-6.076142E-05,19.6695,0
1.3122,6.478981E-05,19.683,0,1.3122,-7.553216E-05,19.683,0
1.3131,4.666209E-05,19.6965,0,1.3131,-0.0001138018,19.6965,0
1.314,2.652018E-05,19.71,0,1.314,-0.0001654994,19.71,0
1.3149,3.189136E-05,19.7235,0,1.3149,-0.0001728847,19.7235,0
1.3158,3.860533E-05,19.737,0,1.3158,-9.701686E-05,19.737,0
1.3167,1.678492E-06,19.7505,0,1.3167,-4.263371E-05,19.7505,0
1.3176,-3.289845E-05,19.764,0,1.3176,-6.009003E-05,19.764,0
1.3185,3.793393E-05,19.7775,0,1.3185,0.0001362936,19.7775,0
1.3194,0.0001910124,19.791,0,1.3194,0.0001856413,19.791,0
1.3203,0.0001473716,19.8045,0,1.3203,8.728161E-06,19.8045,0
1.3212,0.0001070878,19.818,0,1.3212,-1.712062E-05,19.818,0
1.3221,-1.846342E-05,19.8315,0,1.3221,-3.390555E-05,19.8315,0
1.323,-0.0001198444,19.845,0,1.323,-6.143282E-05,19.845,0
1.3239,-0.0001762417,19.8585,0,1.3239,-6.210422E-05,19.8585,0
1.3248,-0.0002151827,19.872,0,1.3248,-4.867628E-05,19.872,0
1.3257,-3.524834E-05,19.8855,0,1.3257,8.392462E-06,19.8855,0
1.3266,-3.994812E-05,19.899,0,1.3266,3.726253E-05,19.899,0
1.3275,-5.471885E-05,19.9125,0,1.3275,-5.706874E-06,19.9125,0
1.3284,-2.349889E-06,19.926,0,1.3284,-4.095522E-05,19.926,0
1.3293,-3.860533E-05,19.9395,0,1.3293,-2.920577E-05,19.9395,0
1.3302,-2.685588E-06,19.953,0,1.3302,-4.129091E-05,19.953,0
1.3311,1.040665E-05,19.9665,0,1.3311,-5.941863E-05,19.9665,0
1.332,-1.007095E-06,19.98,0,1.332,-3.860533E-05,19.98,0
1.3329,7.721065E-06,19.9935,0,1.3329,-5.941863E-05,19.9935,0
1.3338,8.392462E-06,20.007,0,1.3338,-9.533837E-05,20.007,0
1.3347,4.867628E-05,20.0205,0,1.3347,-3.659113E-05,20.0205,0
1.3356,5.740444E-05,20.034,0,1.3356,2.047761E-05,20.034,0
1.3365,-3.088426E-05,20.0475,0,1.3365,2.786297E-05,20.0475,0
1.3374,-9.164568E-05,20.061,0,1.3374,-2.719158E-05,20.061,0
1.3383,-7.687495E-05,20.0745,0,1.3383,-5.740444E-05,20.0745,0
1.3392,-9.030289E-05,20.088,0,1.3392,-4.33051E-05,20.088,0
1.3401,4.36408E-05,20.1015,0,1.3401,-6.61326E-05,20.1015,0
1.341,7.049668E-05,20.115,0,1.341,-8.761731E-05,20.115,0
1.3419,7.351797E-05,20.1285,0,1.3419,-0.0001010452,20.1285,0
1.3428,6.378271E-05,20.142,0,1.3428,-5.337606E-05,20.142,0
1.3437,6.64683E-05,20.1555,0,1.3437,-7.821774E-05,20.1555,0
1.3446,7.721065E-06,20.169,0,1.3446,-0.0001279011,20.169,0
1.3455,1.007095E-06,20.1825,0,1.3455,4.028382E-06,20.1825,0
1.3464,-1.174945E-05,20.196,0,1.3464,3.692683E-06,20.196,0
1.3473,-3.894102E-05,20.2095,0,1.3473,-3.457694E-05,20.2095,0
1.3482,9.399558E-06,20.223,0,1.3482,5.304036E-05,20.223,0
1.3491,1.678492E-06,20.2365,0,1.3491,1.947051E-05,20.2365,0
1.35,4.800488E-05,20.25,0,1.35,-3.323415E-05,20.25,0
1.3509,0.0001188373,20.2635,0,1.3509,-1.477073E-05,20.2635,0
1.3518,0.0001111162,20.277,0,1.3518,-3.256275E-05,20.277,0
1.3527,9.298848E-05,20.2905,0,1.3527,6.881819E-05,20.2905,0
1.3536,6.378271E-05,20.304,0,1.3536,0.0001188373,20.304,0
1.3545,6.143282E-05,20.3175,0,1.3545,-1.846342E-05,20.3175,0
1.3554,-3.793393E-05,20.331,0,1.3554,-6.848249E-05,20.331,0
1.3563,-8.291753E-05,20.3445,0,1.3563,3.356985E-07,20.3445,0
1.3572,7.721065E-06,20.358,0,1.3572,8.358892E-05,20.358,0
1.3581,-2.819867E-05,20.3715,0,1.3581,7.452507E-05,20.3715,0
1.359,-6.277562E-05,20.385,0,1.359,0.0001080949,20.385,0
1.3599,-0.0001812772,20.3985,0,1.3599,7.183947E-05,20.3985,0
1.3608,-0.0001436789,20.412,0,1.3608,1.913481E-05,20.412,0
1.3617,-1.107805E-05,20.4255,0,1.3617,-2.752728E-05,20.4255,0
1.3626,-0.0001171588,20.439,0,1.3626,-1.443504E-05,20.439,0
1.3635,-0.0001819486,20.4525,0,1.3635,-5.035477E-05,20.4525,0
1.3644,-6.243992E-05,20.466,0,1.3644,-7.385367E-05,20.466,0
1.3653,-5.539025E-05,20.4795,0,1.3653,-6.814679E-05,20.4795,0
1.3662,-0.0001406577,20.493,0,1.3662,3.021286E-06,20.493,0
1.3671,-6.143282E-05,20.5065,0,1.3671,3.793393E-05,20.5065,0
1.368,2.685588E-05,20.52,0,1.368,-8.526741E-05,20.52,0
1.3689,1.409934E-05,20.5335,0,1.3689,-0.0001433432,20.5335,0
1.3698,3.524834E-05,20.547,0,1.3698,-7.888914E-05,20.547,0
1.3707,5.874724E-05,20.5605,0,1.3707,-4.800488E-05,20.5605,0
1.3716,9.903105E-05,20.574,0,1.3716,-3.860533E-05,20.574,0
1.3725,0.0001107805,20.5875,0,1.3725,0.0001174945,20.5875,0
1.3734,-1.275654E-05,20.601,0,1.3734,0.0002074617,20.601,0
1.3743,1.242084E-05,20.6145,0,1.3743,3.558404E-05,20.6145,0
1.3752,5.236896E-05,20.628,0,1.3752,-8.728161E-06,20.628,0
1.3761,-3.256275E-05,20.6415,0,1.3761,-1.678492E-06,20.6415,0
1.377,-8.224613E-05,20.655,0,1.377,-3.961242E-05,20.655,0
1.3779,-8.023193E-05,20.6685,0,1.3779,-5.807584E-05,20.6685,0
1.3788,-1.779202E-05,20.682,0,1.3788,-5.505455E-05,20.682,0
1.3797,-6.009003E-05,20.6955,0,1.3797,-2.517739E-05,20.6955,0
1.3806,-3.591974E-05,20.709,0,1.3806,-4.36408E-06,20.709,0
1.3815,0.0002400244,20.7225,0,1.3815,-6.378271E-06,20.7225,0
1.3824,0.000404181,20.736,0,1.3824,-1.678492E-06,20.736,0
1.3833,0.000172549,20.7495,0,1.3833,1.779202E-05,20.7495,0
1.3842,-7.620356E-05,20.763,0,1.3842,-1.443504E-05,20.763,0
1.3851,-0.0001799344,20.7765,0,1.3851,-0.0001185016,20.7765,0
1.386,-0.0002799725,20.79,0,1.386,-9.231708E-05,20.79,0
1.3869,-0.0001846342,20.8035,0,1.3869,-8.157473E-05,20.8035,0
1.3878,5.236896E-05,20.817,0,1.3878,-8.224613E-05,20.817,0
1.3887,7.754635E-05,20.8305,0,1.3887,-5.673304E-05,20.8305,0
1.3896,0.0001080949,20.844,0,1.3896,-4.39765E-05,20.844,0
1.3905,4.733349E-05,20.8575,0,1.3905,-8.493171E-05,20.8575,0
1.3914,-1.007095E-06,20.871,0,1.3914,-5.404745E-05,20.871,0
1.3923,-6.243992E-05,20.8845,0,1.3923,-4.196231E-05,20.8845,0
1.3932,-2.450599E-05,20.898,0,1.3932,-4.028382E-06,20.898,0
1.3941,0.0001295796,20.9115,0,1.3941,-1.644922E-05,20.9115,0
1.395,0.0002168612,20.925,0,1.395,-0.0001201801,20.925,0
1.3959,9.567407E-05,20.9385,0,1.3959,-0.0002312963,20.9385,0
1.3968,6.54612E-05,20.952,0,1.3968,-0.0002326391,20.952,0
1.3977,-0.0001356222,20.9655,0,1.3977,-0.0002480812,20.9655,0
1.3986,-0.0002803082,20.979,0,1.3986,-0.0001994049,20.979,0
1.3995,-0.0003387198,20.9925,0,1.3995,7.486076E-05,20.9925,0
1.4004,-0.0001628138,21.006,0,1.4004,0.0003588617,21.006,0
1.4013,-3.692683E-06,21.0195,0,1.4013,0.0003145495,21.0195,0
1.4022,-2.652018E-05,21.033,0,1.4022,0.000197055,21.033,0
1.4031,-4.263371E-05,21.0465,0,1.4031,0.0001728847,21.0465,0
1.404,-3.927672E-05,21.06,0,1.404,0.0001607996,21.06,0
1.4049,-6.243992E-05,21.0735,0,1.4049,6.009003E-05,21.0735,0
1.4058,-9.533837E-05,21.087,0,1.4058,-3.826963E-05,21.087,0
1.4067,1.577783E-05,21.1005,0,1.4067,-2.28275E-05,21.1005,0
1.4076,4.46479E-05,21.114,0,1.4076,-9.735256E-06,21.114,0
1.4085,4.934768E-05,21.1275,0,1.4085,-2.652018E-05,21.1275,0
1.4094,5.404745E-05,21.141,0,1.4094,-3.994812E-05,21.141,0
1.4103,3.793393E-05,21.1545,0,1.4103,3.289845E-05,21.1545,0
1.4112,3.692683E-05,21.168,0,1.4112,-4.33051E-05,21.168,0
1.4121,5.337606E-05,21.1815,0,1.4121,-0.0001641566,21.1815,0
1.413,-1.644922E-05,21.195,0,1.413,-9.433127E-05,21.195,0
1.4139,-3.390555E-05,21.2085,0,1.4139,-5.471885E-05,21.2085,0
1.4148,8.795301E-05,21.222,0,1.4148,-6.277562E-05,21.222,0
1.4157,7.150377E-05,21.2355,0,1.4157,-7.452507E-05,21.2355,0
1.4166,7.116808E-05,21.249,0,1.4166,-7.821774E-05,21.249,0
1.4175,0.000197055,21.2625,0,1.4175,-9.533837E-05,21.2625,0
1.4184,8.69459E-05,21.276,0,1.4184,-0.0001258869,21.276,0
1.4193,-0.0001111162,21.2895,0,1.4193,-0.0001430075,21.2895,0
1.4202,-0.0001366293,21.303,0,1.4202,-9.768826E-05,21.303,0
1.4211,-0.0002017548,21.3165,0,1.4211,-6.74754E-05,21.3165,0
1.422,-0.0002098116,21.33,0,1.422,-3.994812E-05,21.33,0
1.4229,2.920577E-05,21.3435,0,1.4229,0.0001144732,21.3435,0
1.4238,9.198138E-05,21.357,0,1.4238,0.0002628519,21.357,0
1.4247,5.001907E-05,21.3705,0,1.4247,0.0001453574,21.3705,0
1.4256,3.894102E-05,21.384,0,1.4256,1.007095E-05,21.384,0
1.4265,-7.721065E-06,21.3975,0,1.4265,5.941863E-05,21.3975,0
1.4274,1.275654E-05,21.411,0,1.4274,3.189136E-05,21.411,0
1.4283,3.054856E-05,21.4245,0,1.4283,-4.901198E-05,21.4245,0
1.4292,-5.471885E-05,21.438,0,1.4292,-5.035477E-06,21.438,0
1.4301,-2.920577E-05,21.4515,0,1.4301,2.24918E-05,21.4515,0
1.431,6.009003E-05,21.465,0,1.431,-1.644922E-05,21.465,0
1.4319,4.766919E-05,21.4785,0,1.4319,-2.517739E-05,21.4785,0
1.4328,-6.478981E-05,21.492,0,1.4328,-2.786297E-05,21.492,0
1.4337,-3.927672E-05,21.5055,0,1.4337,-1.443504E-05,21.5055,0
1.4346,-9.567407E-05,21.519,0,1.4346,-6.78111E-05,21.519,0
1.4355,-0.0001000381,21.5325,0,1.4355,-0.0001134661,21.5325,0
1.4364,5.539025E-05,21.546,0,1.4364,-0.0001473716,21.546,0
1.4373,8.560311E-05,21.5595,0,1.4373,-0.0001916838,21.5595,0
1.4382,5.069047E-05,21.573,0,1.4382,-0.0002500954,21.573,0
1.4391,-7.486076E-05,21.5865,0,1.4391,-0.0003326772,21.5865,0
1.44,-7.821774E-05,21.6,0,1.44,-0.0002507668,21.6,0
1.4409,3.323415E-05,21.6135,0,1.4409,-0.0001040665,21.6135,0
1.4418,5.539025E-05,21.627,0,1.4418,9.097429E-05,21.627,0
1.4427,0.0001238727,21.6405,0,1.4427,0.0003665827,21.6405,0
1.4436,7.687495E-05,21.654,0,1.4436,0.000449836,21.654,0
1.4445,3.155566E-05,21.6675,0,1.4445,0.000295079,21.6675,0
1.4454,5.035477E-05,21.681,0,1.4454,0.000158114,21.681,0
1.4463,5.639734E-05,21.6945,0,1.4463,4.53193E-05,21.6945,0
1.4472,4.196231E-05,21.708,0,1.4472,3.356985E-07,21.708,0
1.4481,7.888914E-05,21.7215,0,1.4481,-2.987716E-05,21.7215,0
1.449,5.001907E-05,21.735,0,1.449,-6.042573E-05,21.735,0
1.4499,-0.0001117876,21.7485,0,1.4499,-7.956054E-05,21.7485,0
1.4508,-0.0001863127,21.762,0,1.4508,1.980621E-05,21.762,0
1.4517,-7.049668E-06,21.7755,0,1.4517,2.18204E-05,21.7755,0
1.4526,2.24918E-05,21.789,0,1.4526,-3.524834E-05,21.789,0
1.4535,-7.049668E-05,21.8025,0,1.4535,4.632639E-05,21.8025,0
1.4544,-2.584878E-05,21.816,0,1.4544,5.102617E-05,21.816,0
1.4553,-0.0001087663,21.8295,0,1.4553,-2.349889E-05,21.8295,0
1.4562,-0.0001641566,21.843,0,1.4562,-1.242084E-05,21.843,0
1.4571,-0.0001453574,21.8565,0,1.4571,-8.392462E-06,21.8565,0
1.458,-0.0001322652,21.87,0,1.458,-0.0001013809,21.87,0
1.4589,-7.083238E-05,21.8835,0,1.4589,-0.0001544213,21.8835,0
1.4598,-4.599069E-05,21.897,0,1.4598,-0.0001567712,21.897,0
1.4607,1.712062E-05,21.9105,0,1.4607,-0.000126894,21.9105,0
1.4616,1.309224E-05,21.924,0,1.4616,-8.224613E-05,21.924,0
1.4625,4.36408E-06,21.9375,0,1.4625,-0.000102388,21.9375,0
1.4634,-3.256275E-05,21.951,0,1.4634,-0.0001315938,21.951,0
1.4643,-1.040665E-05,21.9645,0,1.4643,-8.728161E-06,21.9645,0
1.4652,-6.042573E-06,21.978,0,1.4652,3.961242E-05,21.978,0
1.4661,4.129091E-05,21.9915,0,1.4661,2.417029E-05,21.9915,0
1.467,5.069047E-05,22.005,0,1.467,5.673304E-05,22.005,0
1.4679,2.349889E-06,22.0185,0,1.4679,-1.275654E-05,22.0185,0
1.4688,0.0001097734,22.032,0,1.4688,-5.136187E-05,22.032,0
1.4697,0.000257145,22.0455,0,1.4697,-3.927672E-05,22.0455,0
1.4706,0.000144686,22.059,0,1.4706,-6.54612E-05,22.059,0
1.4715,4.129091E-05,22.0725,0,1.4715,-0.0001171588,22.0725,0
1.4724,4.36408E-06,22.086,0,1.4724,-7.318227E-05,22.086,0
1.4733,-0.0001030594,22.0995,0,1.4733,-9.063859E-05,22.0995,0
1.4742,-5.203327E-05,22.113,0,1.4742,-2.853437E-05,22.113,0
1.4751,0.0001430075,22.1265,0,1.4751,5.740444E-05,22.1265,0
1.476,7.620356E-05,22.14,0,1.476,2.24918E-05,22.14,0
1.4769,-5.539025E-05,22.1535,0,1.4769,-4.699779E-06,22.1535,0
1.4778,-0.000115816,22.167,0,1.4778,4.229801E-05,22.167,0
1.4787,-0.000102388,22.1805,0,1.4787,4.196231E-05,22.1805,0
1.4796,-0.0002554666,22.194,0,1.4796,2.551309E-05,22.194,0
1.4805,-0.0001537499,22.2075,0,1.4805,5.102617E-05,22.2075,0
1.4814,8.224613E-05,22.221,0,1.4814,8.056763E-06,22.221,0
1.4823,6.378271E-06,22.2345,0,1.4823,-3.894102E-05,22.2345,0
1.4832,5.069047E-05,22.248,0,1.4832,-6.848249E-05,22.248,0
1.4841,6.881819E-05,22.2615,0,1.4841,-7.553216E-05,22.2615,0
1.485,5.236896E-05,22.275,0,1.485,-3.323415E-05,22.275,0
1.4859,-2.752728E-05,22.2885,0,1.4859,-1.980621E-05,22.2885,0
1.4868,6.076142E-05,22.302,0,1.4868,-4.29694E-05,22.302,0
1.4877,0.0002487526,22.3155,0,1.4877,-1.376364E-05,22.3155,0
1.4886,0.000144686,22.329,0,1.4886,-6.009003E-05,22.329,0
1.4895,6.6804E-05,22.3425,0,1.4895,-2.047761E-05,22.3425,0
1.4904,3.558404E-05,22.356,0,1.4904,-8.392462E-06,22.356,0
1.4913,-0.0001507286,22.3695,0,1.4913,-0.0001188373,22.3695,0
1.4922,-0.0003810178,22.383,0,1.4922,-0.0002178683,22.383,0
1.4931,-0.0002722515,22.3965,0,1.4931,-0.000235996,22.3965,0
1.494,-1.712062E-05,22.41,0,1.494,-5.874724E-05,22.41,0
1.4949,3.894102E-05,22.4235,0,1.4949,5.471885E-05,22.4235,0
1.4958,6.143282E-05,22.437,0,1.4958,0.0001889983,22.437,0
1.4967,4.934768E-05,22.4505,0,1.4967,0.0003850462,22.4505,0
1.4976,-4.53193E-05,22.464,0,1.4976,0.0002420386,22.464,0
1.4985,1.007095E-06,22.4775,0,1.4985,8.325322E-05,22.4775,0
1.4994,8.560311E-05,22.491,0,1.4994,6.814679E-05,22.491,0
1.5003,7.016098E-05,22.5045,0,1.5003,3.692683E-06,22.5045,0
1.5012,-9.869535E-05,22.518,0,1.5012,2.1149E-05,22.518,0
1.5021,-0.0002232395,22.5315,0,1.5021,7.721065E-06,22.5315,0
1.503,-0.0001514,22.545,0,1.503,-5.639734E-05,22.545,0
1.5039,-0.000102388,22.5585,0,1.5039,-0.0001245441,22.5585,0
1.5048,-0.0001356222,22.572,0,1.5048,-9.030289E-05,22.572,0
1.5057,-5.035477E-05,22.5855,0,1.5057,-8.493171E-05,22.5855,0
1.5066,2.28275E-05,22.599,0,1.5066,-0.0001064164,22.599,0
1.5075,4.766919E-05,22.6125,0,1.5075,-2.618448E-05,22.6125,0
1.5084,6.51255E-05,22.626,0,1.5084,3.726253E-05,22.626,0
1.5093,8.96315E-05,22.6395,0,1.5093,1.376364E-05,22.6395,0
1.5102,8.023193E-05,22.653,0,1.5102,-2.014191E-06,22.653,0
1.5111,-2.685588E-06,22.6665,0,1.5111,2.987716E-05,22.6665,0
1.512,1.913481E-05,22.68,0,1.512,-3.659113E-05,22.68,0
1.5129,4.666209E-05,22.6935,0,1.5129,-0.0001433432,22.6935,0
1.5138,4.867628E-05,22.707,0,1.5138,-0.0001950408,22.707,0
1.5147,4.46479E-05,22.7205,0,1.5147,-0.0001584497,22.7205,0
1.5156,5.438316E-05,22.734,0,1.5156,-7.486076E-05,22.734,0
1.5165,-7.049668E-06,22.7475,0,1.5165,-7.855344E-05,22.7475,0
1.5174,3.625543E-05,22.761,0,1.5174,-1.510643E-05,22.761,0
1.5183,2.349889E-06,22.7745,0,1.5183,8.82887E-05,22.7745,0
1.5192,-2.18204E-05,22.788,0,1.5192,7.519646E-05,22.788,0
1.5201,-2.014191E-06,22.8015,0,1.5201,3.088426E-05,22.8015,0
1.521,1.242084E-05,22.815,0,1.521,1.678492E-05,22.815,0
1.5219,0.0002124971,22.8285,0,1.5219,3.457694E-05,22.8285,0
1.5228,0.0002487526,22.842,0,1.5228,-5.706874E-06,22.842,0
1.5237,6.713969E-07,22.8555,0,1.5237,-6.61326E-05,22.8555,0
1.5246,-4.934768E-05,22.869,0,1.5246,-4.968337E-05,22.869,0
1.5255,-9.130999E-05,22.8825,0,1.5255,-8.89601E-05,22.8825,0
1.5264,-0.0001738918,22.896,0,1.5264,-8.89601E-05,22.896,0
1.5273,-2.18204E-05,22.9095,0,1.5273,-9.835965E-05,22.9095,0
1.5282,3.524834E-05,22.923,0,1.5282,-3.659113E-05,22.923,0
1.5291,-0.0001540856,22.9365,0,1.5291,-4.53193E-05,22.9365,0
1.53,-4.901198E-05,22.95,0,1.53,1.141375E-05,22.95,0
1.5309,0.0001050736,22.9635,0,1.5309,0.0001420005,22.9635,0
1.5318,0.0001775845,22.977,0,1.5318,0.0001393149,22.977,0
1.5327,3.356985E-07,22.9905,0,1.5327,-3.558404E-05,22.9905,0
1.5336,-9.802396E-05,23.004,0,1.5336,-0.0001413291,23.004,0
1.5345,-8.426032E-05,23.0175,0,1.5345,-0.0001285725,23.0175,0
1.5354,4.263371E-05,23.031,0,1.5354,-0.0001211871,23.031,0
1.5363,0.0001963836,23.0445,0,1.5363,-0.0001201801,23.0445,0
1.5372,0.0001591211,23.058,0,1.5372,-2.349889E-05,23.058,0
1.5381,0.0001272297,23.0715,0,1.5381,0.000105745,23.0715,0
1.539,2.752728E-05,23.085,0,1.539,0.0001359579,23.085,0
1.5399,-0.0001668421,23.0985,0,1.5399,0.0001275654,23.0985,0
1.5408,-0.0004535287,23.112,0,1.5408,5.874724E-05,23.112,0
1.5417,-0.0004209659,23.1255,0,1.5417,5.438316E-05,23.1255,0
1.5426,-0.0002960861,23.139,0,1.5426,6.78111E-05,23.139,0
1.5435,-0.000161471,23.1525,0,1.5435,-3.222705E-05,23.1525,0
1.5444,-2.28275E-05,23.166,0,1.5444,-5.941863E-05,23.166,0
1.5453,1.779202E-05,23.1795,0,1.5453,-2.987716E-05,23.1795,0
1.5462,3.457694E-05,23.193,0,1.5462,-4.46479E-05,23.193,0
1.5471,5.706874E-05,23.2065,0,1.5471,-0.0001188373,23.2065,0
1.548,6.411841E-05,23.22,0,1.548,-4.028382E-05,23.22,0
1.5489,-6.713969E-06,23.2335,0,1.5489,2.1149E-05,23.2335,0
1.5498,2.652018E-05,23.247,0,1.5498,6.713969E-06,23.247,0
1.5507,6.042573E-05,23.2605,0,1.5507,5.203327E-05,23.2605,0
1.5516,-8.728161E-06,23.274,0,1.5516,-1.577783E-05,23.274,0
1.5525,4.699779E-06,23.2875,0,1.5525,-8.224613E-05,23.2875,0
1.5534,5.639734E-05,23.301,0,1.5534,-0.0002484169,23.301,0
1.5543,8.023193E-05,23.3145,0,1.5543,-0.0003669185,23.3145,0
1.5552,6.948959E-05,23.328,0,1.5552,-0.0003044785,23.328,0
1.5561,5.975433E-05,23.3415,0,1.5561,-0.0001440146,23.3415,0
1.557,0.0001070878,23.355,0,1.557,3.558404E-05,23.355,0
1.5579,-1.443504E-05,23.3685,0,1.5579,0.0001258869,23.3685,0
1.5588,-9.298848E-05,23.382,0,1.5588,0.0002594949,23.382,0
1.5597,-7.083238E-05,23.3955,0,1.5597,0.0001822843,23.3955,0
1.5606,-4.800488E-05,23.409,0,1.5606,0.0001134661,23.409,0
1.5615,-8.392462E-06,23.4225,0,1.5615,0.0001285725,23.4225,0
1.5624,7.553216E-05,23.436,0,1.5624,0.0001708705,23.436,0
1.5633,4.901198E-05,23.4495,0,1.5633,0.0001607996,23.4495,0
1.5642,5.572595E-05,23.463,0,1.5642,0.0001352865,23.463,0
1.5651,3.054856E-05,23.4765,0,1.5651,3.289845E-05,23.4765,0
1.566,-6.713969E-07,23.49,0,1.566,-2.786297E-05,23.49,0
1.5669,-5.539025E-05,23.5035,0,1.5669,-1.107805E-05,23.5035,0
1.5678,-1.074235E-05,23.517,0,1.5678,-7.418937E-05,23.517,0
1.5687,-2.316319E-05,23.5305,0,1.5687,-8.493171E-05,23.5305,0
1.5696,-3.961242E-05,23.544,0,1.5696,-7.351797E-05,23.544,0
1.5705,4.53193E-05,23.5575,0,1.5705,-0.0001148089,23.5575,0
1.5714,0.0001456931,23.571,0,1.5714,-0.0001020523,23.571,0
1.5723,0.0001151446,23.5845,0,1.5723,-5.203327E-05,23.5845,0
1.5732,5.337606E-05,23.598,0,1.5732,-7.620356E-05,23.598,0
1.5741,5.404745E-05,23.6115,0,1.5741,-7.788205E-05,23.6115,0
1.575,5.740444E-05,23.625,0,1.575,-1.141375E-05,23.625,0
1.5759,-1.208515E-05,23.6385,0,1.5759,2.1149E-05,23.6385,0
1.5768,-0.0001060807,23.652,0,1.5768,-7.016098E-05,23.652,0
1.5777,-6.176852E-05,23.6655,0,1.5777,-0.0001487144,23.6655,0
1.5786,0.0001312581,23.679,0,1.5786,-0.0001396506,23.679,0
1.5795,0.000144686,23.6925,0,1.5795,-0.0001228656,23.6925,0
1.5804,0.0001312581,23.706,0,1.5804,-7.620356E-05,23.706,0
1.5813,-2.584878E-05,23.7195,0,1.5813,-0.0001900053,23.7195,0
1.5822,-0.0002044404,23.733,0,1.5822,-0.0001812772,23.733,0
1.5831,-0.0001279011,23.7465,0,1.5831,-6.210422E-05,23.7465,0
1.584,-0.0001819486,23.76,0,1.584,-0.0001309224,23.76,0
1.5849,-0.0002168612,23.7735,0,1.5849,-0.0001440146,23.7735,0
1.5858,-0.0002205539,23.787,0,1.5858,-9.097429E-05,23.787,0
1.5867,-0.0001393149,23.8005,0,1.5867,5.673304E-05,23.8005,0
1.5876,-9.433127E-05,23.814,0,1.5876,0.0001373007,23.814,0
1.5885,-2.18204E-05,23.8275,0,1.5885,0.0001745632,23.8275,0
1.5894,3.323415E-05,23.841,0,1.5894,0.0002823224,23.841,0
1.5903,-1.678492E-06,23.8545,0,1.5903,0.0002910506,23.8545,0
1.5912,-0.0001228656,23.868,0,1.5912,0.000133608,23.868,0
1.5921,-5.035477E-05,23.8815,0,1.5921,8.023193E-05,23.8815,0
1.593,5.035477E-06,23.895,0,1.593,2.1149E-05,23.895,0
1.5939,2.920577E-05,23.9085,0,1.5939,1.074235E-05,23.9085,0
1.5948,8.560311E-05,23.922,0,1.5948,-7.049668E-06,23.922,0
1.5957,0.0001164874,23.9355,0,1.5957,7.721065E-06,23.9355,0
1.5966,9.701686E-05,23.949,0,1.5966,6.6804E-05,23.949,0
1.5975,2.383459E-05,23.9625,0,1.5975,3.323415E-05,23.9625,0
1.5984,-6.009003E-05,23.976,0,1.5984,-3.927672E-05,23.976,0
1.5993,-5.774014E-05,23.9895,0,1.5993,-3.222705E-05,23.9895,0
1.6002,-3.524834E-05,24.003,0,1.6002,-6.6804E-05,24.003,0
1.6011,3.994812E-05,24.0165,0,1.6011,-8.761731E-05,24.0165,0
1.602,9.735256E-06,24.03,0,1.602,-3.356985E-07,24.03,0
1.6029,5.606165E-05,24.0435,0,1.6029,-2.987716E-05,24.0435,0
1.6038,6.009003E-05,24.057,0,1.6038,-0.0002735943,24.057,0
1.6047,2.652018E-05,24.0705,0,1.6047,-0.0003370413,24.0705,0
1.6056,9.164568E-05,24.084,0,1.6056,-0.0002796368,24.084,0
1.6065,0.0002024262,24.0975,0,1.6065,-0.0001983978,24.0975,0
1.6074,0.0002373388,24.111,0,1.6074,-6.74754E-05,24.111,0
1.6083,4.901198E-05,24.1245,0,1.6083,0.0001097734,24.1245,0
1.6092,-6.109713E-05,24.138,0,1.6092,0.0003085069,24.138,0
1.6101,-3.021286E-05,24.1515,0,1.6101,0.0002101472,24.1515,0
1.611,-6.713969E-07,24.165,0,1.611,-0.0001752346,24.165,0
1.6119,6.143282E-05,24.1785,0,1.6119,-0.0003118639,24.1785,0
1.6128,8.090334E-05,24.192,0,1.6128,-0.0002635233,24.192,0
1.6137,-5.539025E-05,24.2055,0,1.6137,-0.000197055,24.2055,0
1.6146,-5.102617E-05,24.219,0,1.6146,-0.000105745,24.219,0
1.6155,-1.040665E-05,24.2325,0,1.6155,0.0001232013,24.2325,0
1.6164,-0.0002437171,24.246,0,1.6164,0.0003910887,24.246,0
1.6173,-0.0002218967,24.2595,0,1.6173,0.0004354009,24.2595,0
1.6182,-6.411841E-05,24.273,0,1.6182,0.0003017929,24.273,0
1.6191,-0.0001665064,24.2865,0,1.6191,0.0001755703,24.2865,0
1.62,-0.0001399863,24.3,0,1.62,2.920577E-05,24.3,0
1.6209,-5.136187E-05,24.3135,0,1.6209,2.24918E-05,24.3135,0
1.6218,-2.786297E-05,24.327,0,1.6218,1.007095E-06,24.327,0
1.6227,-4.33051E-05,24.3405,0,1.6227,-2.719158E-05,24.3405,0
1.6236,-6.143282E-05,24.354,0,1.6236,-3.793393E-05,24.354,0
1.6245,1.678492E-06,24.3675,0,1.6245,-4.095522E-05,24.3675,0
1.6254,2.786297E-05,24.381,0,1.6254,-8.157473E-05,24.381,0
1.6263,-1.678492E-05,24.3945,0,1.6263,-3.121996E-05,24.3945,0
1.6272,2.786297E-05,24.408,0,1.6272,-1.544213E-05,24.408,0
1.6281,0.0001386435,24.4215,0,1.6281,-7.653925E-05,24.4215,0
1.629,0.0002500954,24.435,0,1.629,-0.0001285725,24.435,0
1.6299,0.0003568475,24.4485,0,1.6299,-0.0002077974,24.4485,0
1.6308,0.0002239109,24.462,0,1.6308,-0.000235996,24.462,0
1.6317,-2.081331E-05,24.4755,0,1.6317,-0.0001943694,24.4755,0
1.6326,-0.0001886625,24.489,0,1.6326,-0.0001550927,24.489,0
1.6335,-0.0002658732,24.5025,0,1.6335,-6.076142E-05,24.5025,0
1.6344,-0.0002688945,24.516,0,1.6344,8.795301E-05,24.516,0
1.6353,-0.0002420386,24.5295,0,1.6353,4.733349E-05,24.5295,0
1.6362,-0.0001460288,24.543,0,1.6362,8.358892E-05,24.543,0
1.6371,-1.544213E-05,24.5565,0,1.6371,2.383459E-05,24.5565,0
1.638,3.356985E-06,24.57,0,1.638,-3.961242E-05,24.57,0
1.6389,-1.376364E-05,24.5835,0,1.6389,-9.735256E-05,24.5835,0
1.6398,4.699779E-06,24.597,0,1.6398,-3.256275E-05,24.597,0
1.6407,4.934768E-05,24.6105,0,1.6407,5.438316E-05,24.6105,0
1.6416,0.0001138018,24.624,0,1.6416,2.954147E-05,24.624,0
1.6425,0.0001164874,24.6375,0,1.6425,8.560311E-05,24.6375,0
1.6434,0.0001574426,24.651,0,1.6434,2.081331E-05,24.651,0
1.6443,0.0001399863,24.6645,0,1.6443,-0.0001554284,24.6645,0
1.6452,8.89601E-05,24.678,0,1.6452,-0.0001601282,24.678,0
1.6461,0.0002302892,24.6915,0,1.6461,-0.0001681849,24.6915,0
1.647,0.0002574807,24.705,0,1.647,-0.000102388,24.705,0
1.6479,-3.692683E-05,24.7185,0,1.6479,1.242084E-05,24.7185,0
1.6488,-0.0001762417,24.732,0,1.6488,0.0001695277,24.732,0
1.6497,-0.0002077974,24.7455,0,1.6497,0.000228275,24.7455,0
1.6506,-0.0002890364,24.759,0,1.6506,2.316319E-05,24.759,0
1.6515,-0.0003293202,24.7725,0,1.6515,-4.934768E-05,24.7725,0
1.6524,-0.0001362936,24.786,0,1.6524,-8.82887E-05,24.786,0
1.6533,-3.826963E-05,24.7995,0,1.6533,-8.560311E-05,24.7995,0
1.6542,3.356985E-05,24.813,0,1.6542,-6.311131E-05,24.813,0
1.6551,3.659113E-05,24.8265,0,1.6551,-3.222705E-05,24.8265,0
1.656,-5.706874E-06,24.84,0,1.656,7.284657E-05,24.84,0
1.6569,1.779202E-05,24.8535,0,1.6569,0.0001151446,24.8535,0
1.6578,-1.443504E-05,24.867,0,1.6578,4.968337E-05,24.867,0
1.6587,4.061952E-05,24.8805,0,1.6587,3.591974E-05,24.8805,0
1.6596,0.0002218967,24.894,0,1.6596,7.083238E-05,24.894,0
1.6605,0.0002668803,24.9075,0,1.6605,-1.376364E-05,24.9075,0
1.6614,0.0002252537,24.921,0,1.6614,-0.000115816,24.921,0
1.6623,0.0001252155,24.9345,0,1.6623,-0.0001292439,24.9345,0
1.6632,-0.0002652018,24.948,0,1.6632,-8.023193E-05,24.948,0
1.6641,-0.0003722896,24.9615,0,1.6641,-4.33051E-05,24.9615,0
1.665,-0.0001426719,24.975,0,1.665,-1.409934E-05,24.975,0
1.6659,-0.0001221943,24.9885,0,1.6659,3.189136E-05,24.9885,0
1.6668,7.653925E-05,25.002,0,1.6668,0.0001037308,25.002,0
1.6677,0.000112459,25.0155,0,1.6677,-8.392462E-06,25.0155,0
1.6686,3.021286E-06,25.029,0,1.6686,-7.620356E-05,25.029,0
1.6695,-0.0001154803,25.0425,0,1.6695,-2.014191E-05,25.0425,0
1.6704,-3.356985E-06,25.056,0,1.6704,5.706874E-06,25.056,0
1.6713,5.874724E-05,25.0695,0,1.6713,-7.821774E-05,25.0695,0
1.6722,0.0001487144,25.083,0,1.6722,-6.411841E-05,25.083,0
1.6731,8.761731E-05,25.0965,0,1.6731,-9.802396E-05,25.0965,0
1.674,3.356985E-05,25.11,0,1.674,-0.0002155184,25.11,0
1.6749,-8.661021E-05,25.1235,0,1.6749,-0.0002840009,25.1235,0
1.6758,-0.0001930266,25.137,0,1.6758,-0.0002756084,25.137,0
1.6767,-0.000102388,25.1505,0,1.6767,-0.0001829557,25.1505,0
1.6776,2.786297E-05,25.164,0,1.6776,-7.754635E-05,25.164,0
1.6785,2.887007E-05,25.1775,0,1.6785,8.291753E-05,25.1775,0
1.6794,3.189136E-05,25.191,0,1.6794,0.0002406958,25.191,0
1.6803,7.721065E-06,25.2045,0,1.6803,0.0002682231,25.2045,0
1.6812,-1.644922E-05,25.218,0,1.6812,0.000119173,25.218,0
1.6821,0.0001305867,25.2315,0,1.6821,-3.793393E-05,25.2315,0
1.683,0.0003205921,25.245,0,1.683,4.196231E-05,25.245,0
1.6839,0.0003363699,25.2585,0,1.6839,7.452507E-05,25.2585,0
1.6848,0.0001953765,25.272,0,1.6848,4.263371E-05,25.272,0
1.6857,6.076142E-05,25.2855,0,1.6857,1.544213E-05,25.2855,0
1.6866,-0.0002306248,25.299,0,1.6866,2.920577E-05,25.299,0
1.6875,-0.0003494621,25.3125,0,1.6875,4.39765E-05,25.3125,0
1.6884,-0.0003246204,25.326,0,1.6884,5.673304E-05,25.326,0
1.6893,-8.82887E-05,25.3395,0,1.6893,-3.356985E-07,25.3395,0
1.6902,-6.51255E-05,25.353,0,1.6902,1.678492E-06,25.353,0
1.6911,-0.0001433432,25.3665,0,1.6911,-0.0001000381,25.3665,0
1.692,-0.0001550927,25.38,0,1.692,-0.0002242466,25.38,0
1.6929,-0.0001440146,25.3935,0,1.6929,-0.0002370031,25.3935,0
1.6938,-0.0001067521,25.407,0,1.6938,-0.0001329366,25.407,0
1.6947,-4.36408E-06,25.4205,0,1.6947,-4.061952E-05,25.4205,0
1.6956,5.069047E-05,25.434,0,1.6956,8.89601E-05,25.434,0
1.6965,6.311131E-05,25.4475,0,1.6965,0.0002131685,25.4475,0
1.6974,0.000144686,25.461,0,1.6974,9.030289E-05,25.461,0
1.6983,0.0002252537,25.4745,0,1.6983,-2.584878E-05,25.4745,0
1.6992,0.0003252918,25.488,0,1.6992,-3.088426E-05,25.488,0
1.7001,0.0002601663,25.5015,0,1.7001,-3.692683E-06,25.5015,0
1.701,8.89601E-05,25.515,0,1.701,4.43122E-05,25.515,0
1.7019,-0.0002500954,25.5285,0,1.7019,3.558404E-05,25.5285,0
1.7028,-0.0003360342,25.542,0,1.7028,-3.994812E-05,25.542,0
1.7037,-0.0001836271,25.5555,0,1.7037,-3.994812E-05,25.5555,0
1.7046,-0.0001473716,25.569,0,1.7046,1.376364E-05,25.569,0
1.7055,-0.000193698,25.5825,0,1.7055,5.874724E-05,25.5825,0
1.7064,-0.0002091402,25.596,0,1.7064,7.318227E-05,25.596,0
1.7073,-0.0001399863,25.6095,0,1.7073,0.0001507286,25.6095,0
1.7082,-7.821774E-05,25.623,0,1.7082,4.733349E-05,25.623,0
1.7091,4.129091E-05,25.6365,0,1.7091,-0.0001628138,25.6365,0
1.71,0.0001282368,25.65,0,1.71,-0.0001460288,25.65,0
1.7109,0.0001285725,25.6635,0,1.7109,-0.0002010834,25.6635,0
1.7118,5.035477E-06,25.677,0,1.7118,-0.0002265965,25.677,0
1.7127,3.121996E-05,25.6905,0,1.7127,-0.0001816129,25.6905,0
1.7136,9.063859E-05,25.704,0,1.7136,-6.814679E-05,25.704,0
1.7145,0.000102388,25.7175,0,1.7145,5.035477E-06,25.7175,0
1.7154,9.399557E-05,25.731,0,1.7154,-6.378271E-06,25.731,0
1.7163,0.000154757,25.7445,0,1.7163,-9.936675E-05,25.7445,0
1.7172,0.000140322,25.758,0,1.7172,-6.54612E-05,25.758,0
1.7181,-1.208515E-05,25.7715,0,1.7181,-8.426032E-05,25.7715,0
1.719,-0.0001346151,25.785,0,1.719,-0.0001473716,25.785,0
1.7199,-9.701686E-05,25.7985,0,1.7199,-0.0001299153,25.7985,0
1.7208,3.524834E-05,25.812,0,1.7208,-8.661021E-05,25.812,0
1.7217,0.0002641947,25.8255,0,1.7217,-1.544213E-05,25.8255,0
1.7226,0.0004313726,25.839,0,1.7226,5.471885E-05,25.839,0
1.7235,0.0003367056,25.8525,0,1.7235,0.0001514,25.8525,0
1.7244,8.89601E-05,25.866,0,1.7244,0.000123537,25.866,0
1.7253,-0.0001900053,25.8795,0,1.7253,0.0001107805,25.8795,0
1.7262,-0.0003981384,25.893,0,1.7262,0.0002010834,25.893,0
1.7271,-0.0002994431,25.9065,0,1.7271,0.0003259632,25.9065,0
1.728,-0.0001990692,25.92,0,1.728,0.0003360342,25.92,0
1.7289,-0.0001174945,25.9335,0,1.7289,0.0002329748,25.9335,0
1.7298,-7.989624E-05,25.947,0,1.7298,0.0001453574,25.947,0
1.7307,-7.418937E-05,25.9605,0,1.7307,7.486076E-05,25.9605,0
1.7316,-5.941863E-05,25.974,0,1.7316,1.007095E-05,25.974,0
1.7325,-0.0001077592,25.9875,0,1.7325,-0.0001218585,25.9875,0
1.7334,-2.652018E-05,26.001,0,1.7334,-0.0001816129,26.001,0
1.7343,0.0001376364,26.0145,0,1.7343,-0.0001379721,26.0145,0
1.7352,0.0003414054,26.028,0,1.7352,-0.0001990692,26.028,0
1.7361,0.000161471,26.0415,0,1.7361,-0.0002376745,26.0415,0
1.737,4.162661E-05,26.055,0,1.737,-0.0001517357,26.055,0
1.7379,-0.0001527428,26.0685,0,1.7379,-3.390555E-05,26.0685,0
1.7388,-0.0002641947,26.082,0,1.7388,3.726253E-05,26.082,0
1.7397,-0.0001205158,26.0955,0,1.7397,-1.913481E-05,26.0955,0
1.7406,-7.016098E-05,26.109,0,1.7406,7.989624E-05,26.109,0
1.7415,-2.987716E-05,26.1225,0,1.7415,6.042573E-05,26.1225,0
1.7424,0.0001138018,26.136,0,1.7424,-0.0001064164,26.136,0
1.7433,3.591974E-05,26.1495,0,1.7433,-0.0002225681,26.1495,0
1.7442,1.141375E-05,26.163,0,1.7442,-0.0001816129,26.163,0
1.7451,5.471885E-05,26.1765,0,1.7451,-8.627451E-05,26.1765,0
1.746,0.0001097734,26.19,0,1.746,-5.740444E-05,26.19,0
1.7469,5.035477E-05,26.2035,0,1.7469,-5.035477E-05,26.2035,0
1.7478,7.385367E-06,26.217,0,1.7478,7.049668E-06,26.217,0
1.7487,0.0001040665,26.2305,0,1.7487,-6.51255E-05,26.2305,0
1.7496,7.754635E-05,26.244,0,1.7496,-0.0001483787,26.244,0
1.7505,7.049668E-05,26.2575,0,1.7505,-0.0002138399,26.2575,0
1.7514,-1.040665E-05,26.271,0,1.7514,-0.0001963836,26.271,0
1.7523,-0.0002715801,26.2845,0,1.7523,-0.0001604639,26.2845,0
1.7532,-0.0002685588,26.298,0,1.7532,-6.478981E-05,26.298,0
1.7541,-0.0001863127,26.3115,0,1.7541,0.0001148089,26.3115,0
1.755,-7.821774E-05,26.325,0,1.755,0.0001926909,26.325,0
1.7559,-4.934768E-05,26.3385,0,1.7559,0.0003497978,26.3385,0
1.7568,-4.229801E-05,26.352,0,1.7568,0.0003098497,26.352,0
1.7577,-7.721065E-06,26.3655,0,1.7577,0.0001171588,26.3655,0
1.7586,1.779202E-05,26.379,0,1.7586,2.584878E-05,26.379,0
1.7595,5.337606E-05,26.3925,0,1.7595,-6.009003E-05,26.3925,0
1.7604,6.848249E-05,26.406,0,1.7604,-0.000175906,26.406,0
1.7613,3.524834E-05,26.4195,0,1.7613,-0.0001574426,26.4195,0
1.7622,-2.517739E-05,26.433,0,1.7622,-0.0002024262,26.433,0
1.7631,1.745632E-05,26.4465,0,1.7631,-0.0002531167,26.4465,0
1.764,3.860533E-05,26.46,0,1.764,-0.0001628138,26.46,0
1.7649,0.0001493858,26.4735,0,1.7649,-2.450599E-05,26.4735,0
1.7658,0.0001967193,26.487,0,1.7658,8.426032E-05,26.487,0
1.7667,7.754635E-05,26.5005,0,1.7667,7.620356E-05,26.5005,0
1.7676,9.903105E-05,26.514,0,1.7676,0.0001712062,26.514,0
1.7685,-4.196231E-05,26.5275,0,1.7685,8.157473E-05,26.5275,0
1.7694,-0.0001406577,26.541,0,1.7694,0.0001087663,26.541,0
1.7703,-0.0002232395,26.5545,0,1.7703,0.0001279011,26.5545,0
1.7712,-0.0001312581,26.568,0,1.7712,0.0001282368,26.568,0
1.7721,-0.0001077592,26.5815,0,1.7721,0.0001245441,26.5815,0
1.773,-0.0001383078,26.595,0,1.773,1.577783E-05,26.595,0
1.7739,-1.309224E-05,26.6085,0,1.7739,-7.486076E-05,26.6085,0
1.7748,3.793393E-05,26.622,0,1.7748,-9.869535E-05,26.622,0
1.7757,3.994812E-05,26.6355,0,1.7757,-0.0001326009,26.6355,0
1.7766,0.0001027237,26.649,0,1.7766,-0.0001379721,26.649,0
1.7775,0.0002584878,26.6625,0,1.7775,-2.853437E-05,26.6625,0
1.7784,6.54612E-05,26.676,0,1.7784,2.517739E-05,26.676,0
1.7793,-0.0001322652,26.6895,0,1.7793,-0.000112459,26.6895,0
1.7802,-3.860533E-05,26.703,0,1.7802,-0.0001319295,26.703,0
1.7811,-2.786297E-05,26.7165,0,1.7811,-6.009003E-05,26.7165,0
1.782,6.915389E-05,26.73,0,1.782,-4.36408E-05,26.73,0
1.7829,-4.800488E-05,26.7435,0,1.7829,-8.358892E-05,26.7435,0
1.7838,-6.311131E-05,26.757,0,1.7838,-0.0001762417,26.757,0
1.7847,0.0001211871,26.7705,0,1.7847,-0.000161471,26.7705,0
1.7856,4.565499E-05,26.784,0,1.7856,-0.0001084306,26.784,0
1.7865,-0.0001641566,26.7975,0,1.7865,-0.0001728847,26.7975,0
1.7874,-1.779202E-05,26.811,0,1.7874,-7.553216E-05,26.811,0
1.7883,2.1149E-05,26.8245,0,1.7883,9.030289E-05,26.8245,0
1.7892,-3.726253E-05,26.838,0,1.7892,0.0001889983,26.838,0
1.7901,2.349889E-05,26.8515,0,1.7901,0.0001762417,26.8515,0
1.791,-8.023193E-05,26.865,0,1.791,5.740444E-05,26.865,0
1.7919,8.392462E-06,26.8785,0,1.7919,6.61326E-05,26.8785,0
1.7928,-1.846342E-05,26.892,0,1.7928,-8.392462E-06,26.892,0
1.7937,-0.0001651637,26.9055,0,1.7937,-3.793393E-05,26.9055,0
1.7946,-0.0001601282,26.919,0,1.7946,-8.761731E-05,26.919,0
1.7955,-3.793393E-05,26.9325,0,1.7955,-0.000193698,26.9325,0
1.7964,-1.174945E-05,26.946,0,1.7964,-0.0002591592,26.946,0
1.7973,-6.042573E-06,26.9595,0,1.7973,-0.0002242466,26.9595,0
1.7982,0.0001017166,26.973,0,1.7982,-6.243992E-05,26.973,0
1.7991,0.0001409934,26.9865,0,1.7991,-1.376364E-05,26.9865,0
1.8,0.000112459,27,0,1.8,0.0001242084,27,0
1.8009,0.0002312963,27.0135,0,1.8009,0.0002198825,27.0135,0
1.8018,0.0001876554,27.027,0,1.8018,0.0002870222,27.027,0
1.8027,0.0001443503,27.0405,0,1.8027,0.0003390555,27.0405,0
1.8036,8.82887E-05,27.054,0,1.8036,0.0002225681,27.054,0
1.8045,-7.016098E-05,27.0675,0,1.8045,2.987716E-05,27.0675,0
1.8054,-0.0001940337,27.081,0,1.8054,-3.591974E-05,27.081,0
1.8063,-6.478981E-05,27.0945,0,1.8063,-0.0001453574,27.0945,0
1.8072,8.426032E-05,27.108,0,1.8072,-0.0001822843,27.108,0
1.8081,6.176852E-05,27.1215,0,1.8081,-8.89601E-05,27.1215,0
1.809,5.706874E-06,27.135,0,1.809,-0.0001010452,27.135,0
1.8099,-1.040665E-05,27.1485,0,1.8099,-0.0001661708,27.1485,0
1.8108,-0.000109102,27.162,0,1.8108,-0.0001262226,27.162,0
1.8117,-0.0001467002,27.1755,0,1.8117,3.961242E-05,27.1755,0
1.8126,-0.0001567712,27.189,0,1.8126,0.0002245823,27.189,0
1.8135,-0.0001332723,27.2025,0,1.8135,0.0002161898,27.2025,0
1.8144,-0.0001634852,27.216,0,1.8144,0.0001111162,27.216,0
1.8153,-0.0001309224,27.2295,0,1.8153,3.189136E-05,27.2295,0
1.8162,-8.191043E-05,27.243,0,1.8162,-7.049668E-06,27.243,0
1.8171,-3.457694E-05,27.2565,0,1.8171,-0.0001114519,27.2565,0
1.818,3.356985E-06,27.27,0,1.818,-8.123904E-05,27.27,0
1.8189,5.740444E-05,27.2835,0,1.8189,-4.36408E-05,27.2835,0
1.8198,-3.021286E-06,27.297,0,1.8198,-4.095522E-05,27.297,0
