X[s],"Trigno IM sensor 3: EMG 3 (IM)",X[s],"Trigno IM sensor 3: Mag 3.Z (IM)",X[s],"Trigno IM sensor 4: EMG 4 (IM)",X[s],"Trigno IM sensor 4: Mag 4.Z (IM)"
0.000000,-1.275654E-05,0.000000,40,0.000000,0.0001386435,0.000000,103
0.0009,-2.584878E-05,0.0135,39,0.0009,6.277562E-05,0.0135,101
0.0018,-9.298848E-05,0.027,39,0.0018,0.0001037308,0.027,102
0.0027,-4.229801E-05,0.0405,39,0.0027,0.0001195087,0.0405,103
0.0036,-7.486076E-05,0.054,40,0.0036,8.291753E-05,0.054,104
0.0045,-0.0001211871,0.0675,39,0.0045,7.721065E-05,0.0675,104
0.0054,-3.659113E-05,0.081,39,0.0054,0.0001067521,0.081,103
0.0063,2.1149E-05,0.0945,38,0.0063,0.000164828,0.0945,102
0.0072,4.800488E-05,0.108,39,0.0072,0.0001453574,0.108,102
0.0081,4.162661E-05,0.1215,39,0.0081,0.0001279011,0.1215,105
0.009000001,5.203327E-05,0.135,39,0.009000001,6.143282E-05,0.135,104
0.0099,0.0001117876,0.1485,39,0.0099,1.678492E-06,0.1485,103
0.0108,5.270466E-05,0.162,38,0.0108,-1.779202E-05,0.162,106
0.0117,2.584878E-05,0.1755,39,0.0117,1.040665E-05,0.1755,102
0.0126,-3.524834E-05,0.189,38,0.0126,1.275654E-05,0.189,100
0.0135,-8.89601E-05,0.2025,37,0.0135,2.887007E-05,0.2025,103
0.0144,-3.524834E-05,0.216,38,0.0144,6.009003E-05,0.216,104
0.0153,-4.028382E-05,0.2295,39,0.0153,0.0001020523,0.2295,104
0.0162,-6.478981E-05,0.243,38,0.0162,5.874724E-05,0.243,101
0.0171,2.349889E-06,0.2565,39,0.0171,-1.141375E-05,0.2565,103
0.018,2.1149E-05,0.27,39,0.018,-2.484169E-05,0.27,100
0.0189,4.800488E-05,0.2835,38,0.0189,-1.913481E-05,0.2835,104
0.0198,8.69459E-05,0.297,38,0.0198,1.309224E-05,0.297,102
0.0207,9.903105E-05,0.3105,39,0.0207,9.399558E-06,0.3105,100
0.0216,8.090334E-05,0.324,37,0.0216,-2.450599E-05,0.324,102
0.0225,1.409934E-05,0.3375,38,0.0225,-2.383459E-05,0.3375,100
0.0234,5.471885E-05,0.351,39,0.0234,9.735256E-06,0.351,103
0.0243,0.0001007095,0.3645,39,0.0243,1.443504E-05,0.3645,102
0.0252,-7.721065E-06,0.378,39,0.0252,-2.685588E-06,0.378,106
0.0261,-3.692683E-06,0.3915,38,0.0261,-3.591974E-05,0.3915,103
0.027,7.721065E-06,0.405,37,0.027,-7.150377E-05,0.405,104
0.0279,-1.577783E-05,0.4185,40,0.0279,-0.0001060807,0.4185,101
0.0288,2.081331E-05,0.432,39,0.0288,-0.000144686,0.432,103
0.0297,-1.577783E-05,0.4455,39,0.0297,-0.0001107805,0.4455,101
0.0306,-0.000190341,0.459,39,0.0306,-0.0001114519,0.459,101
0.0315,-0.000164828,0.4725,39,0.0315,-0.000164828,0.4725,104
0.0324,-0.0001218585,0.486,39,0.0324,-0.0001262226,0.486,103
0.0333,-9.936675E-05,0.4995,40,0.0333,3.591974E-05,0.4995,103
0.0342,-0.0001356222,0.513,39,0.0342,4.53193E-05,0.513,102
0.0351,1.174945E-05,0.5265,40,0.0351,-2.014191E-06,0.5265,105
0.036,3.121996E-05,0.54,39,0.036,3.726253E-05,0.54,102
0.0369,0.0001134661,0.5535,39,0.0369,8.69459E-05,0.5535,101
0.0378,0.0001634852,0.567,39,0.0378,0.000109102,0.567,105
0.0387,7.687495E-05,0.5805,39,0.0387,0.0001514,0.5805,101
0.0396,2.21561E-05,0.594,40,0.0396,0.0001272297,0.594,103
0.0405,7.754635E-05,0.6075,39,0.0405,2.853437E-05,0.6075,106
0.0414,0.0001064164,0.621,39,0.0414,0,0.621,103
0.0423,6.009003E-05,0.6345,39,0.0423,-6.478981E-05,0.6345,102
0.0432,7.284657E-05,0.648,40,0.0432,-6.009003E-05,0.648,106
0.0441,7.150377E-05,0.6615,39,0.0441,-2.584878E-05,0.6615,102
0.045,6.915389E-05,0.675,39,0.045,-9.164568E-05,0.675,102
0.0459,9.298848E-05,0.6885,39,0.0459,-0.0001594568,0.6885,101
0.0468,8.560311E-05,0.702,38,0.0468,-0.0001326009,0.702,102
0.0477,6.51255E-05,0.7155,39,0.0477,-0.0001658351,0.7155,101
0.0486,7.620356E-05,0.729,40,0.0486,-0.0002433814,0.729,100
0.0495,-8.392462E-06,0.7425,39,0.0495,-0.0001503929,0.7425,103
0.0504,2.349889E-06,0.756,40,0.0504,-6.143282E-05,0.756,103
0.0513,-6.74754E-05,0.7695,40,0.0513,-1.409934E-05,0.7695,104
0.0522,-3.121996E-05,0.783,39,0.0522,-2.047761E-05,0.783,106
0.0531,3.692683E-06,0.7965,38,0.0531,1.980621E-05,0.7965,103
0.054,-3.021286E-06,0.81,38,0.054,-5.337606E-05,0.81,102
0.0549,1.443504E-05,0.8235,39,0.0549,-6.076142E-05,0.8235,100
0.0558,6.009003E-05,0.837,38,0.0558,-6.54612E-05,0.837,103
0.0567,-3.524834E-05,0.8505,39,0.0567,-1.510643E-05,0.8505,104
0.0576,-4.699779E-05,0.864,39,0.0576,5.706874E-06,0.864,103
0.0585,6.713969E-07,0.8775,39,0.0585,5.035477E-06,0.8775,105
0.0594,2.014191E-05,0.891,38,0.0594,3.524834E-05,0.891,103
0.0603,-0.0001131304,0.9045,38,0.0603,0.0001067521,0.9045,102
0.0612,-0.0001007095,0.918,38,0.0612,1.779202E-05,0.918,104
0.0621,4.33051E-05,0.9315,39,0.0621,-5.001907E-05,0.9315,106
0.063,-8.627451E-05,0.945,39,0.063,2.819867E-05,0.945,103
0.0639,-0.0001225299,0.9585,39,0.0639,5.807584E-05,0.9585,106
0.0648,-5.539025E-05,0.972,38,0.0648,2.719158E-05,0.972,102
0.0657,-5.841154E-05,0.9855,39,0.0657,5.035477E-06,0.9855,104
0.0666,-0.0001507286,0.999,39,0.0666,-1.678492E-06,0.999,106
0.0675,-0.0001362936,1.0125,40,0.0675,-2.551309E-05,1.0125,105
0.0684,-9.030289E-05,1.026,38,0.0684,3.356985E-05,1.026,105
0.0693,-4.733349E-05,1.0395,39,0.0693,6.143282E-05,1.0395,104
0.0702,4.699779E-06,1.053,38,0.0702,9.768826E-05,1.053,102
0.0711,3.021286E-06,1.0665,37,0.0711,2.752728E-05,1.0665,106
0.072,-3.390555E-05,1.08,38,0.072,-7.049668E-06,1.08,106
0.0729,-7.721065E-06,1.0935,37,0.0729,-2.18204E-05,1.0935,101
0.07380001,-8.96315E-05,1.107,38,0.07380001,3.189136E-05,1.107,104
0.07470001,-5.404745E-05,1.1205,37,0.07470001,2.349889E-06,1.1205,102
0.0756,3.088426E-05,1.134,38,0.0756,-2.316319E-05,1.134,102
0.0765,-6.411841E-05,1.1475,39,0.0765,-1.208515E-05,1.1475,103
0.0774,-0.0001483787,1.161,37,0.0774,3.457694E-05,1.161,102
0.0783,-5.136187E-05,1.1745,38,0.0783,-2.349889E-06,1.1745,101
0.0792,3.692683E-06,1.188,38,0.0792,-5.438316E-05,1.188,103
0.0801,-0.0001399863,1.2015,37,0.0801,-0.0001094377,1.2015,99
0.081,-0.0001668421,1.215,37,0.081,-5.035477E-05,1.215,104
0.0819,-9.164568E-05,1.2285,37,0.0819,7.385367E-05,1.2285,102
0.0828,2.786297E-05,1.242,36,0.0828,4.800488E-05,1.242,105
0.0837,4.934768E-05,1.2555,37,0.0837,-4.699779E-06,1.2555,101
0.0846,8.123904E-05,1.269,38,0.0846,-2.450599E-05,1.269,105
0.0855,0.0001527428,1.2825,37,0.0855,-6.042573E-05,1.2825,101
0.0864,0.0001272297,1.296,37,0.0864,-9.701686E-05,1.296,101
0.0873,2.853437E-05,1.3095,37,0.0873,-7.385367E-05,1.3095,105
0.0882,7.821774E-05,1.323,38,0.0882,-8.090334E-05,1.323,101
0.0891,8.92958E-05,1.3365,37,0.0891,-0.0001097734,1.3365,106
0.09,9.735256E-06,1.35,37,0.09,-6.848249E-05,1.35,103
0.0909,5.471885E-05,1.3635,39,0.0909,-4.834058E-05,1.3635,102
0.0918,0.0001070878,1.377,38,0.0918,-5.606165E-05,1.377,107
0.0927,-1.309224E-05,1.3905,37,0.0927,2.349889E-06,1.3905,106
0.0936,-3.860533E-05,1.404,37,0.0936,1.678492E-05,1.404,105
0.09450001,-1.644922E-05,1.4175,37,0.09450001,-9.735256E-06,1.4175,101
0.09540001,-1.577783E-05,1.431,38,0.09540001,-5.975433E-05,1.431,101
0.09630001,6.311131E-05,1.4445,37,0.09630001,-0.000144686,1.4445,105
0.0972,0.0001215228,1.458,37,0.0972,-9.768826E-05,1.458,105
0.0981,6.344701E-05,1.4715,37,0.0981,-8.023193E-05,1.4715,104
0.099,0.0001607996,1.485,38,0.099,-0.0001218585,1.485,100
0.0999,0.000203769,1.4985,38,0.0999,-0.0001487144,1.4985,102
0.1008,5.102617E-05,1.512,37,0.1008,-0.000105745,1.512,103
0.1017,2.1149E-05,1.5255,39,0.1017,-0.0001104448,1.5255,104
0.1026,7.486076E-05,1.539,36,0.1026,-0.0001453574,1.539,105
0.1035,-7.620356E-05,1.5525,38,0.1035,1.309224E-05,1.5525,107
0.1044,-6.378271E-05,1.566,37,0.1044,9.567407E-05,1.566,106
0.1053,5.471885E-05,1.5795,37,0.1053,1.779202E-05,1.5795,101
0.1062,6.378271E-05,1.593,39,0.1062,-2.954147E-05,1.593,102
0.1071,-0.000105745,1.6065,38,0.1071,5.706874E-06,1.6065,105
0.108,-7.620356E-05,1.62,39,0.108,4.934768E-05,1.62,105
0.1089,-5.539025E-05,1.6335,39,0.1089,6.378271E-05,1.6335,105
0.1098,-1.409934E-05,1.647,37,0.1098,-3.994812E-05,1.647,104
0.1107,-7.016098E-05,1.6605,38,0.1107,2.383459E-05,1.6605,100
0.1116,-0.0001641566,1.674,39,0.1116,7.754635E-05,1.674,101
0.1125,-0.0001399863,1.6875,39,0.1125,-3.289845E-05,1.6875,104
0.1134,3.021286E-05,1.701,39,0.1134,-6.009003E-05,1.701,103
0.1143,1.846342E-05,1.7145,42,0.1143,-1.913481E-05,1.7145,101
0.1152,5.505455E-05,1.728,40,0.1152,-1.007095E-05,1.728,103
0.1161,7.150377E-05,1.7415,41,0.1161,-6.61326E-05,1.7415,104
0.117,-2.987716E-05,1.755,42,0.117,-3.356985E-05,1.755,100
0.1179,-6.61326E-05,1.7685,42,0.1179,-2.24918E-05,1.7685,101
0.1188,1.242084E-05,1.782,43,0.1188,5.069047E-05,1.782,101
0.1197,5.572595E-05,1.7955,42,0.1197,0.000179263,1.7955,103
0.1206,-4.733349E-05,1.809,43,0.1206,0.0002044404,1.809,105
0.1215,-8.459602E-05,1.8225,42,0.1215,0.0001070878,1.8225,104
0.1224,1.678492E-06,1.836,42,0.1224,6.478981E-05,1.836,104
0.1233,6.54612E-05,1.8495,41,0.1233,7.049668E-06,1.8495,103
0.1242,-6.210422E-05,1.863,42,0.1242,1.342794E-05,1.863,105
0.1251,-9.869535E-05,1.8765,42,0.1251,8.728161E-06,1.8765,104
0.126,2.18204E-05,1.89,42,0.126,-7.418937E-05,1.89,105
0.1269,1.141375E-05,1.9035,42,0.1269,-3.826963E-05,1.9035,103
0.1278,-7.586786E-05,1.917,42,0.1278,4.867628E-05,1.917,106
0.1287,-2.21561E-05,1.9305,42,0.1287,-7.150377E-05,1.9305,109
0.1296,7.721065E-06,1.944,41,0.1296,-6.881819E-05,1.944,107
0.1305,-0.0001346151,1.9575,40,0.1305,-7.687495E-05,1.9575,106
0.1314,-0.0001007095,1.971,42,0.1314,-0.0001393149,1.971,105
0.1323,-2.28275E-05,1.9845,42,0.1323,-0.0001738918,1.9845,105
0.1332,-0.0001013809,1.998,42,0.1332,-0.000158114,1.998,103
0.1341,-9.097429E-05,2.0115,40,0.1341,-0.0001151446,2.0115,108
0.135,-3.356985E-05,2.025,39,0.135,-0.0001305867,2.025,107
0.1359,-2.450599E-05,2.0385,39,0.1359,-0.0001745632,2.0385,103
0.1368,2.584878E-05,2.052,40,0.1368,-0.0002208896,2.052,106
0.1377,0.0001138018,2.0655,39,0.1377,-0.0001299153,2.0655,105
0.1386,4.666209E-05,2.079,40,0.1386,-5.471885E-05,2.079,107
0.1395,4.800488E-05,2.0925,40,0.1395,-4.129091E-05,2.0925,104
0.1404,0.0001265583,2.106,41,0.1404,-5.035477E-06,2.106,104
0.1413,5.874724E-05,2.1195,41,0.1413,7.284657E-05,2.1195,108
0.1422,6.143282E-05,2.133,42,0.1422,1.141375E-05,2.133,106
0.1431,0.0001950408,2.1465,42,0.1431,-2.24918E-05,2.1465,104
0.144,2.18204E-05,2.16,40,0.144,6.881819E-05,2.16,108
0.1449,5.169757E-05,2.1735,41,0.1449,1.879912E-05,2.1735,106
0.1458,0.0001470359,2.187,40,0.1458,1.309224E-05,2.187,106
0.1467,2.517739E-05,2.2005,40,0.1467,0.0001077592,2.2005,105
0.1476,-6.814679E-05,2.214,40,0.1476,0.0001715419,2.214,107
0.1485,-5.136187E-05,2.2275,41,0.1485,0.0001742275,2.2275,109
0.1494,-4.666209E-05,2.241,41,0.1494,0.0001131304,2.241,105
0.1503,-1.107805E-05,2.2545,39,0.1503,8.526741E-05,2.2545,107
0.1512,-5.941863E-05,2.268,39,0.1512,2.081331E-05,2.268,106
0.1521,-4.901198E-05,2.2815,39,0.1521,-1.812772E-05,2.2815,105
0.153,3.726253E-05,2.295,40,0.153,-3.692683E-05,2.295,106
0.1539,0.0001500572,2.3085,39,0.1539,-4.196231E-05,2.3085,107
0.1548,0.0001265583,2.322,39,0.1548,-5.673304E-05,2.322,108
0.1557,6.54612E-05,2.3355,40,0.1557,-8.426032E-05,2.3355,106
0.1566,6.109713E-05,2.349,40,0.1566,-0.0001040665,2.349,108
0.1575,-2.316319E-05,2.3625,39,0.1575,2.517739E-05,2.3625,106
0.1584,-9.231708E-05,2.376,39,0.1584,0.0001117876,2.376,108
0.1593,-5.438316E-05,2.3895,39,0.1593,3.121996E-05,2.3895,106
0.1602,-9.701686E-05,2.403,38,0.1602,-3.256275E-05,2.403,108
0.1611,-0.0001064164,2.4165,39,0.1611,-1.577783E-05,2.4165,108
0.162,-7.721065E-06,2.43,39,0.162,2.450599E-05,2.43,107
0.1629,1.174945E-05,2.4435,40,0.1629,1.007095E-06,2.4435,107
0.1638,0.0001346151,2.457,39,0.1638,-8.82887E-05,2.457,107
0.1647,7.217517E-05,2.4705,40,0.1647,-3.021286E-05,2.4705,108
0.1656,-4.095522E-05,2.484,38,0.1656,-7.687495E-05,2.484,111
0.1665,-1.712062E-05,2.4975,38,0.1665,-0.0001574426,2.4975,107
0.1674,-5.539025E-05,2.511,39,0.1674,-0.0002363317,2.511,108
0.1683,-0.0001832914,2.5245,39,0.1683,-0.0001275654,2.5245,110
0.1692,-0.0001517357,2.538,38,0.1692,-1.846342E-05,2.538,109
0.1701,-7.687495E-05,2.5515,38,0.1701,4.800488E-05,2.5515,106
0.171,-0.0002165255,2.565,39,0.171,0.0002084688,2.565,109
0.1719,-0.0001957122,2.5785,38,0.1719,0.0002779583,2.5785,109
0.1728,-0.000193698,2.592,38,0.1728,0.0001900053,2.592,111
0.1737,-0.000164828,2.6055,38,0.1737,0.0001460288,2.6055,107
0.1746,-0.0002118257,2.619,38,0.1746,8.86244E-05,2.619,107
0.1755,-0.0001255512,2.6325,37,0.1755,1.443504E-05,2.6325,105
0.1764,-0.0001497215,2.646,39,0.1764,-5.404745E-05,2.646,108
0.1773,-0.000112459,2.6595,39,0.1773,-0.0001245441,2.6595,107
0.1782,-1.409934E-05,2.673,39,0.1782,-0.0001503929,2.673,110
0.1791,-7.553216E-05,2.6865,39,0.1791,-0.0001420005,2.6865,108
0.18,-0.0001238727,2.7,39,0.18,-0.0001675135,2.7,112
0.1809,-5.673304E-05,2.7135,38,0.1809,-7.553216E-05,2.7135,107
0.1818,-0.0001228656,2.727,40,0.1818,0.0001567712,2.727,107
0.1827,-0.0001037308,2.7405,39,0.1827,0.0001510643,2.7405,111
0.1836,3.726253E-05,2.754,40,0.1836,3.524834E-05,2.754,110
0.1845,-9.063859E-05,2.7675,38,0.1845,0,2.7675,109
0.1854,-6.311131E-05,2.781,38,0.1854,-2.014191E-06,2.781,109
0.1863,1.980621E-05,2.7945,38,0.1863,-2.786297E-05,2.7945,107
0.1872,2.450599E-05,2.808,38,0.1872,1.678492E-06,2.808,111
0.1881,-1.510643E-05,2.8215,37,0.1881,-3.289845E-05,2.8215,106
0.189,-1.275654E-05,2.835,39,0.189,-7.553216E-05,2.835,108
0.1899,6.74754E-05,2.8485,38,0.1899,-7.251087E-05,2.8485,107
0.1908,0.0001285725,2.862,40,0.1908,-6.445411E-05,2.862,111
0.1917,7.956054E-05,2.8755,39,0.1917,-2.484169E-05,2.8755,106
0.1926,6.042573E-05,2.889,38,0.1926,-3.088426E-05,2.889,108
0.1935,5.035477E-06,2.9025,39,0.1935,-9.198138E-05,2.9025,106
0.1944,4.699779E-06,2.916,39,0.1944,-0.0001114519,2.916,106
0.1953,-2.853437E-05,2.9295,39,0.1953,-5.069047E-05,2.9295,106
0.1962,-3.692683E-06,2.943,39,0.1962,-3.121996E-05,2.943,107
0.1971,3.356985E-06,2.9565,38,0.1971,-5.404745E-05,2.9565,107
0.198,-8.358892E-05,2.97,39,0.198,-8.123904E-05,2.97,104
0.1989,9.399558E-06,2.9835,37,0.1989,4.196231E-05,2.9835,105
0.1998,5.337606E-05,2.997,38,0.1998,-2.987716E-05,2.997,109
0.2007,0.0001003738,3.0105,39,0.2007,-8.224613E-05,3.0105,107
0.2016,0.0001265583,3.024,39,0.2016,1.409934E-05,3.024,108
0.2025,0.0001218585,3.0375,38,0.2025,-1.846342E-05,3.0375,106
0.2034,0.0001701991,3.051,38,0.2034,-5.807584E-05,3.051,109
0.2043,0.0001913481,3.0645,0,0.2043,-9.030289E-05,3.0645,0
0.2052,0.0001406577,3.078,0,0.2052,-3.994812E-05,3.078,0
0.2061,8.358892E-05,3.0915,0,0.2061,-6.54612E-05,3.0915,0
0.207,8.459602E-05,3.105,0,0.207,-9.030289E-05,3.105,0
0.2079,0.000115816,3.1185,0,0.2079,-4.867628E-05,3.1185,0
0.2088,1.443504E-05,3.132,0,0.2088,2.383459E-05,3.132,0
0.2097,-2.652018E-05,3.1455,0,0.2097,1.007095E-05,3.1455,0
0.2106,0.0001070878,3.159,0,0.2106,-7.385367E-06,3.159,0
0.2115,-3.927672E-05,3.1725,0,0.2115,-1.812772E-05,3.1725,0
0.2124,-8.023193E-05,3.186,0,0.2124,-8.392462E-05,3.186,0
0.2133,2.1149E-05,3.1995,0,0.2133,-9.332418E-05,3.1995,0
0.2142,1.309224E-05,3.213,0,0.2142,-7.754635E-05,3.213,0
0.2151,-7.888914E-05,3.2265,0,0.2151,-5.069047E-05,3.2265,0
0.216,-1.980621E-05,3.24,0,0.216,-7.083238E-05,3.24,0
0.2169,-2.652018E-05,3.2535,0,0.2169,-3.256275E-05,3.2535,0
0.2178,3.994812E-05,3.267,0,0.2178,-1.577783E-05,3.267,0
0.2187,0.000144686,3.2805,0,0.2187,-9.063859E-06,3.2805,0
0.2196,4.53193E-05,3.294,0,0.2196,-3.256275E-05,3.294,0
0.2205,6.78111E-05,3.3075,0,0.2205,-5.505455E-05,3.3075,0
0.2214,0.0001010452,3.321,0,0.2214,-0.000102388,3.321,0
0.2223,1.007095E-05,3.3345,0,0.2223,-7.620356E-05,3.3345,0
0.2232,2.652018E-05,3.348,0,0.2232,-6.814679E-05,3.348,0
0.2241,6.74754E-05,3.3615,0,0.2241,-0.0001218585,3.3615,0
0.225,-1.779202E-05,3.375,0,0.225,-2.450599E-05,3.375,0
0.2259,1.275654E-05,3.3885,0,0.2259,-3.356985E-07,3.3885,0
0.2268,6.6804E-05,3.402,0,0.2268,-3.692683E-05,3.402,0
0.2277,-3.591974E-05,3.4155,0,0.2277,-2.349889E-06,3.4155,0
0.2286,-0.0001520714,3.429,0,0.2286,-2.819867E-05,3.429,0
0.2295,-0.0001097734,3.4425,0,0.2295,-2.014191E-06,3.4425,0
0.2304,-4.46479E-05,3.456,0,0.2304,3.726253E-05,3.456,0
0.2313,-9.735256E-06,3.4695,0,0.2313,-2.450599E-05,3.4695,0
0.2322,-7.788205E-05,3.483,0,0.2322,-2.786297E-05,3.483,0
0.2331,-0.000109102,3.4965,0,0.2331,-8.291753E-05,3.4965,0
0.234,-5.572595E-05,3.51,0,0.234,-8.157473E-05,3.51,0
0.2349,-5.304036E-05,3.5235,0,0.2349,0,3.5235,0
0.2358,-8.96315E-05,3.537,0,0.2358,4.129091E-05,3.537,0
0.2367,-3.054856E-05,3.5505,0,0.2367,1.577783E-05,3.5505,0
0.2376,1.409934E-05,3.564,0,0.2376,1.980621E-05,3.564,0
0.2385,-4.733349E-05,3.5775,0,0.2385,9.097429E-05,3.5775,0
0.2394,1.779202E-05,3.591,0,0.2394,2.920577E-05,3.591,0
0.2403,-3.692683E-06,3.6045,0,0.2403,-7.150377E-05,3.6045,0
0.2412,-5.001907E-05,3.618,0,0.2412,-5.136187E-05,3.618,0
0.2421,-0.0001144732,3.6315,0,0.2421,-3.021286E-06,3.6315,0
0.243,-7.653925E-05,3.645,0,0.243,-3.424125E-05,3.645,0
0.2439,-8.493171E-05,3.6585,0,0.2439,-7.016098E-05,3.6585,0
0.2448,-4.968337E-05,3.672,0,0.2448,-6.344701E-05,3.672,0
0.2457,0.0001104448,3.6855,0,0.2457,5.874724E-05,3.6855,0
0.2466,-1.007095E-05,3.699,0,0.2466,0.0001671778,3.699,0
0.2475,1.712062E-05,3.7125,0,0.2475,9.970245E-05,3.7125,0
0.2484,0.0001312581,3.726,0,0.2484,3.121996E-05,3.726,0
0.2493,-3.323415E-05,3.7395,0,0.2493,0.0001326009,3.7395,0
0.2502,-3.524834E-05,3.753,0,0.2502,0.0001426719,3.753,0
0.2511,0.0001339437,3.7665,0,0.2511,9.735256E-05,3.7665,0
0.252,0.0001218585,3.78,0,0.252,0.0001305867,3.78,0
0.2529,0.0001285725,3.7935,0,0.2529,5.874724E-05,3.7935,0
0.2538,0.0001225299,3.807,0,0.2538,1.007095E-05,3.807,0
0.2547,-4.666209E-05,3.8205,0,0.2547,2.987716E-05,3.8205,0
0.2556,-4.766919E-05,3.834,0,0.2556,5.001907E-05,3.834,0
0.2565,-1.644922E-05,3.8475,0,0.2565,1.007095E-06,3.8475,0
0.2574,-1.174945E-05,3.861,0,0.2574,-4.43122E-05,3.861,0
0.2583,-3.356985E-07,3.8745,0,0.2583,-8.493171E-05,3.8745,0
0.2592,-2.719158E-05,3.888,0,0.2592,-0.0001097734,3.888,0
0.2601,-2.18204E-05,3.9015,0,0.2601,-0.0001326009,3.9015,0
0.261,-6.109713E-05,3.915,0,0.261,-0.0001695277,3.915,0
0.2619,-4.733349E-05,3.9285,0,0.2619,-0.0001373007,3.9285,0
0.2628,-9.768826E-05,3.942,0,0.2628,-1.309224E-05,3.942,0
0.2637,-0.0001607996,3.9555,0,0.2637,-1.712062E-05,3.9555,0
0.2646,-4.53193E-05,3.969,0,0.2646,-6.009003E-05,3.969,0
0.2655,-0.0001064164,3.9825,0,0.2655,4.028382E-06,3.9825,0
0.2664,-0.0001164874,3.996,0,0.2664,-7.049668E-06,3.996,0
0.2673,2.618448E-05,4.0095,0,0.2673,-5.874724E-05,4.0095,0
0.2682,0.0001661708,4.023,0,0.2682,-5.706874E-05,4.023,0
0.2691,0.0001279011,4.0365,0,0.2691,5.035477E-06,4.0365,0
0.27,5.001907E-05,4.05,0,0.27,6.042573E-06,4.05,0
0.2709,0.0001040665,4.0635,0,0.2709,-5.706874E-06,4.0635,0
0.2718,0.0002131685,4.077,0,0.2718,-4.49836E-05,4.077,0
0.2727,0.0001017166,4.0905,0,0.2727,-1.074235E-05,4.0905,0
0.2736,3.457694E-05,4.104,0,0.2736,-1.947051E-05,4.104,0
0.2745,0.0001094377,4.1175,0,0.2745,-7.553216E-05,4.1175,0
0.2754,0.0001044022,4.131,0,0.2754,-7.150377E-05,4.131,0
0.2763,1.879912E-05,4.1445,0,0.2763,-4.733349E-05,4.1445,0
0.2772,2.450599E-05,4.158,0,0.2772,-0.000102388,4.158,0
0.2781,6.948959E-05,4.1715,0,0.2781,-0.0001178302,4.1715,0
0.279,-4.028382E-05,4.185,0,0.279,-1.644922E-05,4.185,0
0.2799,-5.673304E-05,4.1985,0,0.2799,-8.86244E-05,4.1985,0
0.2808,2.21561E-05,4.212,0,0.2808,-7.016098E-05,4.212,0
0.2817,-0.0001027237,4.2255,0,0.2817,4.666209E-05,4.2255,0
0.2826,-0.0001010452,4.239,0,0.2826,0.0001477073,4.239,0
0.2835,-2.786297E-05,4.2525,0,0.2835,0.0001601282,4.2525,0
0.2844,-1.712062E-05,4.266,0,0.2844,0.0002245823,4.266,0
0.2853,5.035477E-05,4.2795,0,0.2853,6.881819E-05,4.2795,0
0.2862,-4.229801E-05,4.293,0,0.2862,4.129091E-05,4.293,0
0.2871,-0.0001775845,4.3065,0,0.2871,0.0001044022,4.3065,0
0.288,-0.0001134661,4.32,0,0.288,0.0001326009,4.32,0
0.2889,-7.083238E-05,4.3335,0,0.2889,9.835965E-05,4.3335,0
0.2898,-0.0002111543,4.347,0,0.2898,1.510643E-05,4.347,0
0.2907,-0.0001258869,4.3605,0,0.2907,2.21561E-05,4.3605,0
0.2916,2.28275E-05,4.374,0,0.2916,2.450599E-05,4.374,0
0.2925,3.323415E-05,4.3875,0,0.2925,-4.766919E-05,4.3875,0
0.2934,-1.342794E-06,4.401,0,0.2934,-0.0001000381,4.401,0
0.2943,3.155566E-05,4.4145,0,0.2943,-7.116808E-05,4.4145,0
0.2952,3.323415E-05,4.428,0,0.2952,-0.0001064164,4.428,0
0.2961,-7.318227E-05,4.4415,0,0.2961,-8.661021E-05,4.4415,0
0.297,8.728161E-06,4.455,0,0.297,-6.478981E-05,4.455,0
0.2979,-5.706874E-06,4.4685,0,0.2979,-0.000161471,4.4685,0
0.2988,-2.21561E-05,4.482,0,0.2988,-0.0001779202,4.482,0
0.2997,-7.721065E-06,4.4955,0,0.2997,-5.203327E-05,4.4955,0
0.3006,-4.699779E-06,4.509,0,0.3006,1.040665E-05,4.509,0
0.3015,-1.913481E-05,4.5225,0,0.3015,-1.208515E-05,4.5225,0
0.3024,2.047761E-05,4.536,0,0.3024,-1.812772E-05,4.536,0
0.3033,-8.627451E-05,4.5495,0,0.3033,1.846342E-05,4.5495,0
0.3042,-7.687495E-05,4.563,0,0.3042,2.349889E-06,4.563,0
0.3051,2.551309E-05,4.5765,0,0.3051,-4.229801E-05,4.5765,0
0.306,-8.392462E-06,4.59,0,0.306,4.733349E-05,4.59,0
0.3069,-3.189136E-05,4.6035,0,0.3069,1.846342E-05,4.6035,0
0.3078,-4.061952E-05,4.617,0,0.3078,-4.733349E-05,4.617,0
0.3087,0.0001151446,4.6305,0,0.3087,3.356985E-06,4.6305,0
0.3096,5.740444E-05,4.644,0,0.3096,-5.069047E-05,4.644,0
0.3105,-2.047761E-05,4.6575,0,0.3105,-2.081331E-05,4.6575,0
0.3114,-3.994812E-05,4.671,0,0.3114,1.409934E-05,4.671,0
0.3123,2.584878E-05,4.6845,0,0.3123,-3.894102E-05,4.6845,0
0.3132,-1.309224E-05,4.698,0,0.3132,-2.920577E-05,4.698,0
0.3141,-0.0001319295,4.7115,0,0.3141,-7.721065E-06,4.7115,0
0.315,-5.169757E-05,4.725,0,0.315,-1.678492E-05,4.725,0
0.3159,-9.063859E-06,4.7385,0,0.3159,-8.761731E-05,4.7385,0
0.3168,-9.097429E-05,4.752,0,0.3168,-4.061952E-05,4.752,0
0.3177,-8.69459E-05,4.7655,0,0.3177,-2.887007E-05,4.7655,0
0.3186,5.069047E-05,4.779,0,0.3186,-4.33051E-05,4.779,0
0.3195,-8.86244E-05,4.7925,0,0.3195,3.558404E-05,4.7925,0
0.3204,-3.826963E-05,4.806,0,0.3204,4.53193E-05,4.806,0
0.3213,5.941863E-05,4.8195,0,0.3213,-2.719158E-05,4.8195,0
0.3222,5.001907E-05,4.833,0,0.3222,-2.652018E-05,4.833,0
0.3231,-6.042573E-05,4.8465,0,0.3231,-1.644922E-05,4.8465,0
0.324,-4.46479E-05,4.86,0,0.324,-5.337606E-05,4.86,0
0.3249,-5.001907E-05,4.8735,0,0.3249,-0.0001003738,4.8735,0
0.3258,3.726253E-05,4.887,0,0.3258,-0.0001252155,4.887,0
0.3267,7.083238E-05,4.9005,0,0.3267,-8.89601E-05,4.9005,0
0.3276,2.014191E-06,4.914,0,0.3276,-9.164568E-05,4.914,0
0.3285,7.116808E-05,4.9275,0,0.3285,-8.593881E-05,4.9275,0
0.3294,9.533837E-05,4.941,0,0.3294,-0.0001094377,4.941,0
0.3303,4.699779E-05,4.9545,0,0.3303,-6.176852E-05,4.9545,0
0.3312,1.174945E-05,4.968,0,0.3312,-5.673304E-05,4.968,0
0.3321,6.411841E-05,4.9815,0,0.3321,-6.6804E-05,4.9815,0
0.333,-3.558404E-05,4.995,0,0.333,1.141375E-05,4.995,0
0.3339,-5.706874E-05,5.0085,0,0.3339,-4.36408E-05,5.0085,0
0.3348,6.009003E-05,5.022,0,0.3348,-0.000119173,5.022,0
0.3357,6.411841E-05,5.0355,0,0.3357,-0.000140322,5.0355,0
0.3366,-5.706874E-05,5.049,0,0.3366,-9.970245E-05,5.049,0
0.3375,-1.913481E-05,5.0625,0,0.3375,-8.69459E-05,5.0625,0
0.3384,0.0001292439,5.076,0,0.3384,-6.915389E-05,5.076,0
0.3393,0.0001574426,5.0895,0,0.3393,-5.673304E-05,5.0895,0
0.3402,0.0001232013,5.103,0,0.3402,8.023193E-05,5.103,0
0.3411,0.0001500572,5.1165,0,0.3411,0.0001138018,5.1165,0
0.342,0.0001433432,5.13,0,0.342,4.196231E-05,5.13,0
0.3429,6.143282E-05,5.1435,0,0.3429,3.994812E-05,5.1435,0
0.3438,-5.706874E-06,5.157,0,0.3438,8.89601E-05,5.157,0
0.3447,1.174945E-05,5.1705,0,0.3447,5.740444E-05,5.1705,0
0.3456,5.236896E-05,5.184,0,0.3456,7.418937E-05,5.184,0
0.3465,-2.719158E-05,5.1975,0,0.3465,6.915389E-05,5.1975,0
0.3474,3.961242E-05,5.211,0,0.3474,8.92958E-05,5.211,0
0.3483,5.673304E-05,5.2245,0,0.3483,2.450599E-05,5.2245,0
0.3492,-3.927672E-05,5.238,0,0.3492,4.666209E-05,5.238,0
0.3501,-1.577783E-05,5.2515,0,0.3501,0.0001094377,5.2515,0
0.351,-1.779202E-05,5.265,0,0.351,-3.692683E-06,5.265,0
0.3519,-3.088426E-05,5.2785,0,0.3519,-1.208515E-05,5.2785,0
0.3528,1.443504E-05,5.292,0,0.3528,-1.409934E-05,5.292,0
0.3537,7.721065E-06,5.3055,0,0.3537,-1.309224E-05,5.3055,0
0.3546,-6.076142E-05,5.319,0,0.3546,-3.021286E-06,5.319,0
0.3555,-4.229801E-05,5.3325,0,0.3555,-6.076142E-05,5.3325,0
0.3564,1.275654E-05,5.346,0,0.3564,-7.049668E-05,5.346,0
0.3573,-0.0001080949,5.3595,0,0.3573,-8.82887E-05,5.3595,0
0.3582,-0.0001164874,5.373,0,0.3582,-9.500267E-05,5.373,0
0.3591,-3.793393E-05,5.3865,0,0.3591,-0.0001258869,5.3865,0
0.36,-0.0001560998,5.4,0,0.36,-0.0001003738,5.4,0
0.3609,-0.0001722133,5.4135,0,0.3609,-8.69459E-05,5.4135,0
0.3618,-6.210422E-05,5.427,0,0.3618,-9.097429E-05,5.427,0
0.3627,-6.478981E-05,5.4405,0,0.3627,-4.867628E-05,5.4405,0
0.3636,-2.584878E-05,5.454,0,0.3636,8.526741E-05,5.454,0
0.3645,-5.001907E-05,5.4675,0,0.3645,9.533837E-05,5.4675,0
0.3654,-7.989624E-05,5.481,0,0.3654,-0.000102388,5.481,0
0.3663,-5.774014E-05,5.4945,0,0.3663,-0.0001500572,5.4945,0
0.3672,-2.450599E-05,5.508,0,0.3672,-9.668116E-05,5.508,0
0.3681,-4.766919E-05,5.5215,0,0.3681,-8.86244E-05,5.5215,0
0.369,-4.46479E-05,5.535,0,0.369,-0.0001225299,5.535,0
0.3699,9.063859E-06,5.5485,0,0.3699,-0.000115816,5.5485,0
0.3708,-3.323415E-05,5.562,0,0.3708,-9.634547E-05,5.562,0
0.3717,-9.466698E-05,5.5755,0,0.3717,-8.090334E-05,5.5755,0
0.3726,5.337606E-05,5.589,0,0.3726,-0.0001074235,5.589,0
0.3735,8.526741E-05,5.6025,0,0.3735,5.639734E-05,5.6025,0
0.3744,-5.740444E-05,5.616,0,0.3744,4.33051E-05,5.616,0
0.3753,-1.275654E-05,5.6295,0,0.3753,-0.000102388,5.6295,0
0.3762,6.61326E-05,5.643,0,0.3762,-1.678492E-06,5.643,0
0.3771,-2.047761E-05,5.6565,0,0.3771,1.812772E-05,5.6565,0
0.378,-3.390555E-05,5.67,0,0.378,-2.349889E-05,5.67,0
0.3789,1.007095E-06,5.6835,0,0.3789,0,5.6835,0
0.3798,4.36408E-05,5.697,0,0.3798,9.063859E-06,5.697,0
0.3807,-1.947051E-05,5.7105,0,0.3807,7.989624E-05,5.7105,0
0.3816,1.107805E-05,5.724,0,0.3816,4.196231E-05,5.724,0
0.3825,8.358892E-05,5.7375,0,0.3825,2.047761E-05,5.7375,0
0.3834,0.0001097734,5.751,0,0.3834,7.251087E-05,5.751,0
0.3843,3.927672E-05,5.7645,0,0.3843,0.000126894,5.7645,0
0.3852,1.544213E-05,5.778,0,0.3852,1.947051E-05,5.778,0
0.3861,4.800488E-05,5.7915,0,0.3861,1.309224E-05,5.7915,0
0.387,-3.524834E-05,5.805,0,0.387,0.0001420005,5.805,0
0.3879,-6.344701E-05,5.8185,0,0.3879,0.0001242084,5.8185,0
0.3888,-4.129091E-05,5.832,0,0.3888,7.284657E-05,5.832,0
0.3897,-0.0001524071,5.8455,0,0.3897,9.634547E-05,5.8455,0
0.3906,-0.0002084688,5.859,0,0.3906,0.0001309224,5.859,0
0.3915,-0.0001416648,5.8725,0,0.3915,0.000109102,5.8725,0
0.3924,-0.0001671778,5.886,0,0.3924,4.666209E-05,5.886,0
0.3933,-0.0001164874,5.8995,0,0.3933,6.378271E-06,5.8995,0
0.3942,-0.0001510643,5.913,0,0.3942,3.390555E-05,5.913,0
0.3951,-0.0001708705,5.9265,0,0.3951,4.766919E-05,5.9265,0
0.396,-7.553216E-05,5.94,0,0.396,-1.174945E-05,5.94,0
0.3969,-5.874724E-05,5.9535,0,0.3969,-7.049668E-05,5.9535,0
0.3978,-0.000158114,5.967,0,0.3978,-5.270466E-05,5.967,0
0.3987,-9.399557E-05,5.9805,0,0.3987,-8.761731E-05,5.9805,0
0.3996,-9.735256E-06,5.994,0,0.3996,-0.0001695277,5.994,0
0.4005,-7.754635E-05,6.0075,0,0.4005,-0.0001846342,6.0075,0
0.4014,-0.0001339437,6.021,0,0.4014,-0.0002212253,6.021,0
0.4023,-7.855344E-05,6.0345,0,0.4023,-0.0002480812,6.0345,0
0.4032,-0.000158114,6.048,0,0.4032,-0.0001544213,6.048,0
0.4041,-0.0001292439,6.0615,0,0.4041,-3.323415E-05,6.0615,0
0.405,-4.699779E-06,6.075,0,0.405,8.560311E-05,6.075,0
0.4059,1.040665E-05,6.0885,0,0.4059,0.0001111162,6.0885,0
0.4068,0.0001242084,6.102,0,0.4068,3.054856E-05,6.102,0
0.4077,0.0003051499,6.1155,0,0.4077,5.404745E-05,6.1155,0
0.4086,0.0003135424,6.129,0,0.4086,3.524834E-05,6.129,0
0.4095,0.0001352865,6.1425,0,0.4095,-4.46479E-05,6.1425,0
0.4104,0.0001359579,6.156,0,0.4104,-5.740444E-05,6.156,0
0.4113,0.0001151446,6.1695,0,0.4113,-2.584878E-05,6.1695,0
0.4122,6.6804E-05,6.183,0,0.4122,-4.867628E-05,6.183,0
0.4131,0.0001544213,6.1965,0,0.4131,-6.6804E-05,6.1965,0
0.414,0.0001097734,6.21,0,0.414,-7.150377E-05,6.21,0
0.4149,7.083238E-05,6.2235,0,0.4149,-0.0001299153,6.2235,0
0.4158,7.620356E-05,6.237,0,0.4158,-0.0001349508,6.237,0
0.4167,0.0001514,6.2505,0,0.4167,-9.903105E-05,6.2505,0
0.4176,3.994812E-05,6.264,0,0.4176,-9.567407E-05,6.264,0
0.4185,7.721065E-06,6.2775,0,0.4185,-7.687495E-05,6.2775,0
0.4194,6.51255E-05,6.291,0,0.4194,-1.980621E-05,6.291,0
0.4203,0.0001487144,6.3045,0,0.4203,-6.713969E-07,6.3045,0
0.4212,0.0001258869,6.318,0,0.4212,6.948959E-05,6.318,0
0.4221,-3.356985E-06,6.3315,0,0.4221,0.0001188373,6.3315,0
0.423,5.069047E-05,6.345,0,0.423,0.000112459,6.345,0
0.4239,4.53193E-05,6.3585,0,0.4239,8.627451E-05,6.3585,0
0.4248,-9.164568E-05,6.372,0,0.4248,8.493171E-05,6.372,0
0.4257,-4.196231E-05,6.3855,0,0.4257,3.994812E-05,6.3855,0
0.4266,3.424125E-05,6.399,0,0.4266,7.385367E-06,6.399,0
0.4275,-2.853437E-05,6.4125,0,0.4275,2.18204E-05,6.4125,0
0.4284,4.666209E-05,6.426,0,0.4284,2.618448E-05,6.426,0
0.4293,1.846342E-05,6.4395,0,0.4293,-3.256275E-05,6.4395,0
0.4302,5.606165E-05,6.453,0,0.4302,-2.316319E-05,6.453,0
0.4311,2.383459E-05,6.4665,0,0.4311,7.721065E-06,6.4665,0
0.432,-7.721065E-06,6.48,0,0.432,2.349889E-06,6.48,0
0.4329,-3.021286E-05,6.4935,0,0.4329,-2.853437E-05,6.4935,0
0.4338,2.887007E-05,6.507,0,0.4338,-8.291753E-05,6.507,0
0.4347,3.692683E-06,6.5205,0,0.4347,-5.438316E-05,6.5205,0
0.4356,-2.517739E-05,6.534,0,0.4356,-6.478981E-05,6.534,0
0.4365,-3.659113E-05,6.5475,0,0.4365,-8.92958E-05,6.5475,0
0.4374,1.544213E-05,6.561,0,0.4374,-9.701686E-05,6.561,0
0.4383,-2.887007E-05,6.5745,0,0.4383,-6.378271E-06,6.5745,0
0.4392,8.96315E-05,6.588,0,0.4392,-7.653925E-05,6.588,0
0.4401,0.0002380102,6.6015,0,0.4401,-0.0001896696,6.6015,0
0.441,4.36408E-05,6.615,0,0.441,-0.0001265583,6.615,0
0.4419,-5.673304E-05,6.6285,0,0.4419,-0.0001245441,6.6285,0
0.4428,2.517739E-05,6.642,0,0.4428,-0.0001634852,6.642,0
0.4437,8.426032E-05,6.6555,0,0.4437,-6.61326E-05,6.6555,0
0.4446,-7.486076E-05,6.669,0,0.4446,-3.860533E-05,6.669,0
0.4455,-3.457694E-05,6.6825,0,0.4455,-3.692683E-06,6.6825,0
0.4464,-3.692683E-06,6.696,0,0.4464,-5.035477E-06,6.696,0
0.4473,1.141375E-05,6.7095,0,0.4473,-4.46479E-05,6.7095,0
0.4482,-3.054856E-05,6.723,0,0.4482,1.913481E-05,6.723,0
0.4491,-4.834058E-05,6.7365,0,0.4491,5.035477E-06,6.7365,0
0.45,-4.129091E-05,6.75,0,0.45,-2.786297E-05,6.75,0
0.4509,-1.644922E-05,6.7635,0,0.4509,2.618448E-05,6.7635,0
0.4518,-3.390555E-05,6.777,0,0.4518,7.687495E-05,6.777,0
0.4527,1.174945E-05,6.7905,0,0.4527,8.090334E-05,6.7905,0
0.4536,5.606165E-05,6.804,0,0.4536,6.6804E-05,6.804,0
0.4545,2.349889E-05,6.8175,0,0.4545,0.0001460288,6.8175,0
0.4554,3.726253E-05,6.831,0,0.4554,0.0001117876,6.831,0
0.4563,4.196231E-05,6.8445,0,0.4563,5.706874E-06,6.8445,0
0.4572,-1.443504E-05,6.858,0,0.4572,6.51255E-05,6.858,0
0.4581,-6.848249E-05,6.8715,0,0.4581,0.0001171588,6.8715,0
0.459,-2.551309E-05,6.885,0,0.459,5.169757E-05,6.885,0
0.4599,-2.752728E-05,6.8985,0,0.4599,2.853437E-05,6.8985,0
0.4608,3.692683E-06,6.912,0,0.4608,6.042573E-06,6.912,0
0.4617,7.049668E-06,6.9255,0,0.4617,1.947051E-05,6.9255,0
0.4626,-6.143282E-05,6.939,0,0.4626,1.376364E-05,6.939,0
0.4635,-7.418937E-05,6.9525,0,0.4635,-2.450599E-05,6.9525,0
0.4644,-5.706874E-06,6.966,0,0.4644,-7.049668E-06,6.966,0
0.4653,-0.0001312581,6.9795,0,0.4653,-2.047761E-05,6.9795,0
0.4662,-0.000112459,6.993,0,0.4662,-2.047761E-05,6.993,0
0.4671,-4.33051E-05,7.0065,0,0.4671,-4.46479E-05,7.0065,0
0.468,-0.0001560998,7.02,0,0.468,-7.553216E-05,7.02,0
0.4689,-9.533837E-05,7.0335,0,0.4689,2.1149E-05,7.0335,0
0.4698,-2.349889E-06,7.047,0,0.4698,5.471885E-05,7.047,0
0.4707,-1.409934E-05,7.0605,0,0.4707,-2.685588E-05,7.0605,0
0.4716,-4.129091E-05,7.074,0,0.4716,-2.316319E-05,7.074,0
0.4725,3.256275E-05,7.0875,0,0.4725,-3.692683E-06,7.0875,0
0.4734,2.383459E-05,7.101,0,0.4734,-2.887007E-05,7.101,0
0.4743,-5.807584E-05,7.1145,0,0.4743,-6.61326E-05,7.1145,0
0.4752,-0.0001389792,7.128,0,0.4752,-3.121996E-05,7.128,0
0.4761,-0.0001634852,7.1415,0,0.4761,4.867628E-05,7.1415,0
0.477,-0.0001080949,7.155,0,0.477,1.913481E-05,7.155,0
0.4779,-2.450599E-05,7.1685,0,0.4779,-7.183947E-05,7.1685,0
0.4788,-6.57969E-05,7.182,0,0.4788,-6.210422E-05,7.182,0
0.4797,-8.123904E-05,7.1955,0,0.4797,-0.0001020523,7.1955,0
0.4806,4.53193E-05,7.209,0,0.4806,-0.0001376364,7.209,0
0.4815,5.706874E-06,7.2225,0,0.4815,4.263371E-05,7.2225,0
0.4824,-0.000105745,7.236,0,0.4824,9.634547E-05,7.236,0
0.4833,-6.210422E-05,7.2495,0,0.4833,2.349889E-06,7.2495,0
0.4842,-2.853437E-05,7.263,0,0.4842,-9.063859E-06,7.263,0
0.4851,-0.0001769131,7.2765,0,0.4851,-2.551309E-05,7.2765,0
0.486,-0.0001413291,7.29,0,0.486,-5.236896E-05,7.29,0
0.4869,-3.390555E-05,7.3035,0,0.4869,-5.471885E-05,7.3035,0
0.4878,3.994812E-05,7.317,0,0.4878,-6.74754E-05,7.317,0
0.4887,6.411841E-05,7.3305,0,0.4887,-4.36408E-05,7.3305,0
0.4896,3.390555E-05,7.344,0,0.4896,-5.941863E-05,7.344,0
0.4905,6.378271E-06,7.3575,0,0.4905,-0.0001295796,7.3575,0
0.4914,-2.719158E-05,7.371,0,0.4914,-9.567407E-05,7.371,0
0.4923,-0.0001356222,7.3845,0,0.4923,-6.176852E-05,7.3845,0
0.4932,-0.0001386435,7.398,0,0.4932,-6.57969E-05,7.398,0
0.4941,-4.666209E-05,7.4115,0,0.4941,-9.735256E-05,7.4115,0
0.495,-9.433127E-05,7.425,0,0.495,-5.102617E-05,7.425,0
0.4959,2.719158E-05,7.4385,0,0.4959,-2.551309E-05,7.4385,0
0.4968,2.24918E-05,7.452,0,0.4968,-7.016098E-05,7.452,0
0.4977,-8.325322E-05,7.4655,0,0.4977,-9.634547E-05,7.4655,0
0.4986,-0.0001765774,7.479,0,0.4986,-5.807584E-05,7.479,0
0.4995,-0.000148043,7.4925,0,0.4995,-5.337606E-05,7.4925,0
0.5004,-0.0001634852,7.506,0,0.5004,-4.699779E-06,7.506,0
0.5013,-0.000161471,7.5195,0,0.5013,4.934768E-05,7.5195,0
0.5022,-0.0001332723,7.533,0,0.5022,0.0001047379,7.533,0
0.5031,-3.994812E-05,7.5465,0,0.5031,6.042573E-05,7.5465,0
0.504,6.277562E-05,7.56,0,0.504,-1.846342E-05,7.56,0
0.5049,3.558404E-05,7.5735,0,0.5049,-5.438316E-05,7.5735,0
0.5058,3.356985E-07,7.587,0,0.5058,4.162661E-05,7.587,0
0.5067,0.0001178302,7.6005,0,0.5067,2.1149E-05,7.6005,0
0.5076,0.000154757,7.614,0,0.5076,-3.692683E-05,7.614,0
0.5085,8.560311E-05,7.6275,0,0.5085,5.471885E-05,7.6275,0
0.5094,3.927672E-05,7.641,0,0.5094,1.577783E-05,7.641,0
0.5103,8.96315E-05,7.6545,0,0.5103,-0.0001245441,7.6545,0
0.5112,0.0001389792,7.668,0,0.5112,-3.692683E-05,7.668,0
0.5121,-3.457694E-05,7.6815,0,0.5121,3.390555E-05,7.6815,0
0.513,-2.752728E-05,7.695,0,0.513,-3.155566E-05,7.695,0
0.5139,-6.881819E-05,7.7085,0,0.5139,-5.001907E-05,7.7085,0
0.5148,-3.021286E-05,7.722,0,0.5148,-2.450599E-05,7.722,0
0.5157,2.786297E-05,7.7355,0,0.5157,6.478981E-05,7.7355,0
0.5166,-7.251087E-05,7.749,0,0.5166,4.53193E-05,7.749,0
0.5175,-6.378271E-05,7.7625,0,0.5175,5.706874E-05,7.7625,0
0.5184,1.409934E-05,7.776,0,0.5184,3.121996E-05,7.776,0
0.5193,-1.107805E-05,7.7895,0,0.5193,-1.007095E-06,7.7895,0
0.5202,-3.457694E-05,7.803,0,0.5202,-3.356985E-05,7.803,0
0.5211,4.53193E-05,7.8165,0,0.5211,-5.740444E-05,7.8165,0
0.522,1.577783E-05,7.83,0,0.522,3.591974E-05,7.83,0
0.5229,-1.107805E-05,7.8435,0,0.5229,3.994812E-05,7.8435,0
0.5238,9.164568E-05,7.857,0,0.5238,4.39765E-05,7.857,0
0.5247,0.0001040665,7.8705,0,0.5247,6.948959E-05,7.8705,0
0.5256,6.076142E-05,7.884,0,0.5256,6.411841E-05,7.884,0
0.5265,0.0001027237,7.8975,0,0.5265,4.934768E-05,7.8975,0
0.5274,0.0001500572,7.911,0,0.5274,1.678492E-06,7.911,0
0.5283,0.0001728847,7.9245,0,0.5283,-3.155566E-05,7.9245,0
0.5292,0.000144686,7.938,0,0.5292,-2.484169E-05,7.938,0
0.5301,0.000109102,7.9515,0,0.5301,-8.358892E-05,7.9515,0
0.531,0.0002410315,7.965,0,0.531,-9.097429E-05,7.965,0
0.5319,0.0002131685,7.9785,0,0.5319,1.443504E-05,7.9785,0
0.5328,4.53193E-05,7.992,0,0.5328,6.411841E-05,7.992,0
0.5337,4.263371E-05,8.0055,0,0.5337,-1.712062E-05,8.0055,0
0.5346,9.567407E-05,8.019,0,0.5346,-2.14847E-05,8.019,0
0.5355,-6.948959E-05,8.0325,0,0.5355,-2.316319E-05,8.0325,0
0.5364,-0.0001131304,8.046,0,0.5364,-5.572595E-05,8.046,0
0.5373,-9.097429E-05,8.0595,0,0.5373,-8.560311E-05,8.0595,0
0.5382,-6.311131E-05,8.073,0,0.5382,-4.867628E-05,8.073,0
0.5391,-0.0001138018,8.0865,0,0.5391,-7.821774E-05,8.0865,0
0.54,-0.0001144732,8.1,0,0.54,-0.0001406577,8.1,0
0.5409,-0.0001064164,8.1135,0,0.5409,-0.0001279011,8.1135,0
0.5418,-7.217517E-05,8.127,0,0.5418,-0.0001000381,8.127,0
0.5427,-6.076142E-05,8.1405,0,0.5427,-4.800488E-05,8.1405,0
0.5436,-0.0001138018,8.154,0,0.5436,-3.591974E-05,8.154,0
0.5445,-8.82887E-05,8.1675,0,0.5445,-7.553216E-05,8.1675,0
0.5454,6.713969E-07,8.181,0,0.5454,-7.183947E-05,8.181,0
0.5463,-4.39765E-05,8.1945,0,0.5463,-6.378271E-06,8.1945,0
0.5472,-3.356985E-07,8.208,0,0.5472,-8.291753E-05,8.208,0
0.5481,0.0001393149,8.2215,0,0.5481,-9.365987E-05,8.2215,0
0.549,6.042573E-06,8.235,0,0.549,-1.644922E-05,8.235,0
0.5499,-3.894102E-05,8.2485,0,0.5499,-5.706874E-06,8.2485,0
0.5508,2.987716E-05,8.262,0,0.5508,-4.46479E-05,8.262,0
0.5517,-1.309224E-05,8.2755,0,0.5517,-5.035477E-06,8.2755,0
0.5526,-4.46479E-05,8.289,0,0.5526,1.712062E-05,8.289,0
0.5535,3.121996E-05,8.3025,0,0.5535,-1.577783E-05,8.3025,0
0.5544,5.069047E-05,8.316,0,0.5544,-0.0001097734,8.316,0
0.5553,6.54612E-05,8.3295,0,0.5553,-0.0001406577,8.3295,0
0.5562,0.0001037308,8.343,0,0.5562,-6.51255E-05,8.343,0
0.5571,0.0001695277,8.3565,0,0.5571,-2.28275E-05,8.3565,0
0.558,0.0001205158,8.37,0,0.558,-4.061952E-05,8.37,0
0.5589,0.0001876554,8.3835,0,0.5589,-8.325322E-05,8.3835,0
0.5598,0.0001376364,8.397,0,0.5598,-1.242084E-05,8.397,0
0.5607,7.754635E-05,8.4105,0,0.5607,-2.316319E-05,8.4105,0
0.5616,0.0001262226,8.424,0,0.5616,-4.43122E-05,8.424,0
0.5625,8.291753E-05,8.4375,0,0.5625,8.69459E-05,8.4375,0
0.5634,5.438316E-05,8.451,0,0.5634,9.365987E-05,8.451,0
0.5643,3.659113E-05,8.4645,0,0.5643,2.853437E-05,8.4645,0
0.5652,2.316319E-05,8.478,0,0.5652,3.189136E-05,8.478,0
0.5661,-4.196231E-05,8.4915,0,0.5661,6.51255E-05,8.4915,0
0.567,-7.620356E-05,8.505,0,0.567,-5.236896E-05,8.505,0
0.5679,-6.881819E-05,8.5185,0,0.5679,-4.565499E-05,8.5185,0
0.5688,-3.524834E-05,8.532,0,0.5688,-1.309224E-05,8.532,0
0.5697,-7.553216E-05,8.5455,0,0.5697,-9.735256E-06,8.5455,0
0.5706,-0.0001346151,8.559,0,0.5706,1.947051E-05,8.559,0
0.5715,-6.57969E-05,8.5725,0,0.5715,3.726253E-05,8.5725,0
0.5724,-8.627451E-05,8.586,0,0.5724,-2.28275E-05,8.586,0
0.5733,-0.0001077592,8.5995,0,0.5733,-2.719158E-05,8.5995,0
0.5742,-3.121996E-05,8.613,0,0.5742,-3.256275E-05,8.613,0
0.5751,6.713969E-07,8.6265,0,0.5751,-8.023193E-05,8.6265,0
0.576,-9.164568E-05,8.64,0,0.576,-6.143282E-05,8.64,0
0.5769,5.270466E-05,8.6535,0,0.5769,-3.256275E-05,8.6535,0
0.5778,0.0002682231,8.667,0,0.5778,5.069047E-05,8.667,0
0.5787,0.0001467002,8.6805,0,0.5787,0.0001514,8.6805,0
0.5796,2.618448E-05,8.694,0,0.5796,0.0001017166,8.694,0
0.5805,5.136187E-05,8.7075,0,0.5805,5.539025E-05,8.7075,0
0.5814,-2.685588E-05,8.721,0,0.5814,5.304036E-05,8.721,0
0.5823,4.36408E-06,8.7345,0,0.5823,6.848249E-05,8.7345,0
0.5832,-3.659113E-05,8.748,0,0.5832,6.54612E-05,8.748,0
0.5841,-0.0001399863,8.7615,0,0.5841,-3.256275E-05,8.7615,0
0.585,-7.150377E-05,8.775,0,0.585,-5.572595E-05,8.775,0
0.5859,-6.042573E-06,8.7885,0,0.5859,-4.901198E-05,8.7885,0
0.5868,-0.0001534142,8.802,0,0.5868,-5.304036E-05,8.802,0
0.5877,-0.0001131304,8.8155,0,0.5877,-9.063859E-05,8.8155,0
0.5886,-4.699779E-05,8.829,0,0.5886,-0.0001299153,8.829,0
0.5895,-0.0001634852,8.8425,0,0.5895,-6.411841E-05,8.8425,0
0.5904,-0.0001279011,8.856,0,0.5904,-2.618448E-05,8.856,0
0.5913,-2.887007E-05,8.8695,0,0.5913,-3.793393E-05,8.8695,0
0.5922,-5.505455E-05,8.883,0,0.5922,-2.517739E-05,8.883,0
0.5931,-0.0001453574,8.8965,0,0.5931,-2.685588E-06,8.8965,0
0.594,-8.82887E-05,8.91,0,0.594,-3.860533E-05,8.91,0
0.5949,-2.014191E-06,8.9235,0,0.5949,-9.231708E-05,8.9235,0
0.5958,6.378271E-06,8.937,0,0.5958,-0.0001238727,8.937,0
0.5967,5.774014E-05,8.9505,0,0.5967,-0.0001107805,8.9505,0
0.5976,0.0001366293,8.964,0,0.5976,-0.0001033951,8.964,0
0.5985,6.61326E-05,8.9775,0,0.5985,-0.0001040665,8.9775,0
0.5994,-3.692683E-06,8.991,0,0.5994,-3.054856E-05,8.991,0
0.6003,-6.109713E-05,9.0045,0,0.6003,0.0001007095,9.0045,0
0.6012,-0.000119173,9.018,0,0.6012,5.908293E-05,9.018,0
0.6021,-4.39765E-05,9.0315,0,0.6021,3.390555E-05,9.0315,0
0.603,-0.0001013809,9.045,0,0.603,8.224613E-05,9.045,0
0.6039,-3.692683E-06,9.0585,0,0.6039,8.023193E-05,9.0585,0
0.6048,4.196231E-05,9.072001,0,0.6048,-1.913481E-05,9.072001,0
0.6057,5.035477E-06,9.0855,0,0.6057,-3.256275E-05,9.0855,0
0.6066,-3.927672E-05,9.099,0,0.6066,1.141375E-05,9.099,0
0.6075,-3.390555E-05,9.1125,0,0.6075,7.721065E-06,9.1125,0
0.6084,-7.553216E-05,9.126,0,0.6084,9.063859E-06,9.126,0
0.6093,-7.016098E-05,9.1395,0,0.6093,-3.021286E-05,9.1395,0
0.6102,-0.0001493858,9.153,0,0.6102,-4.33051E-05,9.153,0
0.6111,-0.0002380102,9.1665,0,0.6111,-3.558404E-05,9.1665,0
0.612,-0.0001044022,9.18,0,0.612,-7.284657E-05,9.18,0
0.6129,-9.466698E-05,9.1935,0,0.6129,-8.123904E-05,9.1935,0
0.6138,-0.000102388,9.207,0,0.6138,-4.162661E-05,9.207,0
0.6147,-2.24918E-05,9.2205,0,0.6147,-8.493171E-05,9.2205,0
0.6156,0.0001070878,9.234,0,0.6156,-0.0001127947,9.234,0
0.6165,1.141375E-05,9.2475,0,0.6165,-1.980621E-05,9.2475,0
0.6174,5.471885E-05,9.261,0,0.6174,2.685588E-06,9.261,0
0.6183,0.0001705348,9.2745,0,0.6183,1.846342E-05,9.2745,0
0.6192,4.867628E-05,9.288,0,0.6192,1.141375E-05,9.288,0
0.6201,-1.477073E-05,9.3015,0,0.6201,3.189136E-05,9.3015,0
0.621,7.486076E-05,9.315,0,0.621,2.18204E-05,9.315,0
0.6219,5.438316E-05,9.3285,0,0.6219,2.551309E-05,9.3285,0
0.6228,8.82887E-05,9.342,0,0.6228,1.208515E-05,9.342,0
0.6237,0.0001326009,9.3555,0,0.6237,4.733349E-05,9.3555,0
0.6246,1.913481E-05,9.369,0,0.6246,7.821774E-05,9.369,0
0.6255,-2.047761E-05,9.3825,0,0.6255,6.243992E-05,9.3825,0
0.6264,1.644922E-05,9.396,0,0.6264,1.846342E-05,9.396,0
0.6273,-4.666209E-05,9.4095,0,0.6273,1.812772E-05,9.4095,0
0.6282,-7.150377E-05,9.423,0,0.6282,-4.968337E-05,9.423,0
0.6291,3.457694E-05,9.4365,0,0.6291,-0.0001379721,9.4365,0
0.63,2.652018E-05,9.45,0,0.63,-0.0001077592,9.45,0
0.6309,3.356985E-07,9.4635,0,0.6309,-7.620356E-05,9.4635,0
0.6318,6.411841E-05,9.477,0,0.6318,-6.6804E-05,9.477,0
0.6327,0.0001292439,9.4905,0,0.6327,-5.270466E-05,9.4905,0
0.6336,1.309224E-05,9.504,0,0.6336,-4.129091E-05,9.504,0
0.6345,3.692683E-06,9.5175,0,0.6345,-7.083238E-05,9.5175,0
0.6354,-4.36408E-06,9.531,0,0.6354,-9.567407E-05,9.531,0
0.6363,1.208515E-05,9.5445,0,0.6363,-7.620356E-05,9.5445,0
0.6372,-1.913481E-05,9.558,0,0.6372,-4.867628E-05,9.558,0
0.6381,-7.418937E-05,9.5715,0,0.6381,-1.846342E-05,9.5715,0
0.639,4.39765E-05,9.585,0,0.639,4.699779E-06,9.585,0
0.6399,9.399558E-06,9.5985,0,0.6399,7.553216E-05,9.5985,0
0.6408,1.544213E-05,9.612,0,0.6408,7.855344E-05,9.612,0
0.6417,8.560311E-05,9.6255,0,0.6417,6.009003E-05,9.6255,0
0.6426,2.987716E-05,9.639,0,0.6426,-0.0001111162,9.639,0
0.6435,-9.634547E-05,9.6525,0,0.6435,-8.090334E-05,9.6525,0
0.6444,-0.000115816,9.666,0,0.6444,-9.735256E-06,9.666,0
0.6453,-8.090334E-05,9.6795,0,0.6453,-5.572595E-05,9.6795,0
0.6462,-1.779202E-05,9.693,0,0.6462,-7.150377E-05,9.693,0
0.6471,6.042573E-06,9.7065,0,0.6471,7.956054E-05,9.7065,0
0.648,-8.224613E-05,9.72,0,0.648,-1.678492E-05,9.72,0
0.6489,-7.351797E-05,9.7335,0,0.6489,-3.356985E-05,9.7335,0
0.6498,-5.706874E-06,9.747,0,0.6498,-2.349889E-05,9.747,0
0.6507,2.349889E-06,9.7605,0,0.6507,-2.752728E-05,9.7605,0
0.6516,-8.023193E-05,9.774,0,0.6516,2.853437E-05,9.774,0
0.6525,-4.800488E-05,9.7875,0,0.6525,-8.92958E-05,9.7875,0
0.6534,8.761731E-05,9.801,0,0.6534,-0.0001601282,9.801,0
0.6543,2.517739E-05,9.8145,0,0.6543,-0.0001044022,9.8145,0
0.6552,5.673304E-05,9.828,0,0.6552,-9.063859E-05,9.828,0
0.6561,0.0002198825,9.8415,0,0.6561,-0.0001138018,9.8415,0
0.657,0.0001064164,9.855,0,0.657,-5.941863E-05,9.855,0
0.6579,0.0001292439,9.8685,0,0.6579,-2.887007E-05,9.8685,0
0.6588,0.0001661708,9.882,0,0.6588,-1.510643E-05,9.882,0
0.6597,9.097429E-05,9.8955,0,0.6597,1.644922E-05,9.8955,0
0.6606,-1.107805E-05,9.909,0,0.6606,3.994812E-05,9.909,0
0.6615,3.256275E-05,9.9225,0,0.6615,5.706874E-06,9.9225,0
0.6624,7.049668E-06,9.936,0,0.6624,1.376364E-05,9.936,0
0.6633,-3.424125E-05,9.9495,0,0.6633,-2.417029E-05,9.9495,0
0.6642,-3.054856E-05,9.963,0,0.6642,-1.107805E-05,9.963,0
0.6651,-2.652018E-05,9.976501,0,0.6651,2.047761E-05,9.976501,0
0.666,-8.661021E-05,9.99,0,0.666,2.047761E-05,9.99,0
0.6669,-4.46479E-05,10.0035,0,0.6669,6.042573E-06,10.0035,0
0.6678,-8.96315E-05,10.017,0,0.6678,3.356985E-05,10.017,0
0.6687,-7.653925E-05,10.0305,0,0.6687,1.040665E-05,10.0305,0
0.6696,4.49836E-05,10.044,0,0.6696,-5.203327E-05,10.044,0
0.6705,-1.443504E-05,10.0575,0,0.6705,9.735256E-06,10.0575,0
0.6714,-0.000102388,10.071,0,0.6714,-7.721065E-06,10.071,0
0.6723,-2.853437E-05,10.0845,0,0.6723,-5.270466E-05,10.0845,0
0.6732,5.203327E-05,10.098,0,0.6732,7.721065E-06,10.098,0
0.6741,-9.399558E-06,10.1115,0,0.6741,5.169757E-05,10.1115,0
0.675,3.692683E-06,10.125,0,0.675,6.277562E-05,10.125,0
0.6759,3.054856E-05,10.1385,0,0.6759,8.258183E-05,10.1385,0
0.6768,0.0001017166,10.152,0,0.6768,6.009003E-05,10.152,0
0.6777,3.021286E-06,10.1655,0,0.6777,3.927672E-05,10.1655,0
0.6786,-0.0001346151,10.179,0,0.6786,1.510643E-05,10.179,0
0.6795,-9.533837E-05,10.1925,0,0.6795,1.141375E-05,10.1925,0
0.6804,-7.150377E-05,10.206,0,0.6804,-6.009003E-05,10.206,0
0.6813,-0.0001426719,10.2195,0,0.6813,-2.786297E-05,10.2195,0
0.6822,-8.258183E-05,10.233,0,0.6822,-3.692683E-06,10.233,0
0.6831,-6.411841E-05,10.2465,0,0.6831,-2.450599E-05,10.2465,0
0.684,-0.0001131304,10.26,0,0.684,3.659113E-05,10.26,0
0.6849,-7.553216E-05,10.2735,0,0.6849,2.786297E-05,10.2735,0
0.6858,-3.088426E-05,10.287,0,0.6858,-1.980621E-05,10.287,0
0.6867,-7.653925E-05,10.3005,0,0.6867,3.759823E-05,10.3005,0
0.6876,-0.0001044022,10.314,0,0.6876,3.994812E-05,10.314,0
0.6885,-0.0001104448,10.3275,0,0.6885,-2.517739E-05,10.3275,0
0.6894,-0.0001383078,10.341,0,0.6894,-6.814679E-05,10.341,0
0.6903,-8.89601E-05,10.3545,0,0.6903,-9.433127E-05,10.3545,0
0.6912,-4.766919E-05,10.368,0,0.6912,2.24918E-05,10.368,0
0.6921,2.417029E-05,10.3815,0,0.6921,0.0001225299,10.3815,0
0.693,0.0002185397,10.395,0,0.693,0.0001245441,10.395,0
0.6939,0.0003430838,10.4085,0,0.6939,7.049668E-05,10.4085,0
0.6948,1.678492E-05,10.422,0,0.6948,0.0001433432,10.422,0
0.6957,-2.081331E-05,10.4355,0,0.6957,0.0001916838,10.4355,0
0.6966,0.0001500572,10.449,0,0.6966,6.378271E-05,10.449,0
0.6975,2.920577E-05,10.4625,0,0.6975,5.136187E-05,10.4625,0
0.6984,2.349889E-05,10.476,0,0.6984,7.888914E-05,10.476,0
0.6993,0.0001393149,10.4895,0,0.6993,-1.913481E-05,10.4895,0
0.7002,0.000200412,10.503,0,0.7002,3.323415E-05,10.503,0
0.7011,4.129091E-05,10.5165,0,0.7011,2.450599E-05,10.5165,0
0.702,3.457694E-05,10.53,0,0.702,-6.378271E-06,10.53,0
0.7029,3.121996E-05,10.5435,0,0.7029,-3.491264E-05,10.5435,0
0.7038,1.510643E-05,10.557,0,0.7038,-7.821774E-05,10.557,0
0.7047,-2.18204E-05,10.5705,0,0.7047,-8.560311E-05,10.5705,0
0.7056,-0.0001185016,10.584,0,0.7056,-0.0001080949,10.584,0
0.7065,-7.351797E-05,10.5975,0,0.7065,-0.0001131304,10.5975,0
0.7074,-9.063859E-06,10.611,0,0.7074,-0.0002138399,10.611,0
0.7083,-5.136187E-05,10.6245,0,0.7083,-0.0002541238,10.6245,0
0.7092,-4.766919E-05,10.638,0,0.7092,-0.0002363317,10.638,0
0.7101,-4.599069E-05,10.6515,0,0.7101,-0.0003192493,10.6515,0
0.711,-7.452507E-05,10.665,0,0.711,-0.0002668803,10.665,0
0.7119,-5.471885E-05,10.6785,0,0.7119,-0.0001574426,10.6785,0
0.7128,-1.342794E-06,10.692,0,0.7128,-0.0001255512,10.692,0
0.7137,5.069047E-05,10.7055,0,0.7137,-5.774014E-05,10.7055,0
0.7146,-9.600977E-05,10.719,0,0.7146,-2.920577E-05,10.719,0
0.7155,-9.298848E-05,10.7325,0,0.7155,-7.016098E-05,10.7325,0
0.7164,-4.39765E-05,10.746,0,0.7164,-0.000102388,10.746,0
0.7173,-4.800488E-05,10.7595,0,0.7173,-0.0001131304,10.7595,0
0.7182,-0.0001279011,10.773,0,0.7182,-6.814679E-05,10.773,0
0.7191,-0.0001460288,10.7865,0,0.7191,-9.500267E-05,10.7865,0
0.72,-0.0001114519,10.8,0,0.72,-0.0001450217,10.8,0
0.7209,-3.826963E-05,10.8135,0,0.7209,-0.0001319295,10.8135,0
0.7218,-9.500267E-05,10.827,0,0.7218,-4.263371E-05,10.827,0
0.7227,-0.0001044022,10.8405,0,0.7227,-9.332418E-05,10.8405,0
0.7236,-8.157473E-05,10.854,0,0.7236,-0.0002178683,10.854,0
0.7245,-0.0001292439,10.8675,0,0.7245,-4.061952E-05,10.8675,0
0.7254,-8.426032E-05,10.881,0,0.7254,6.78111E-05,10.881,0
0.7263,0.0001148089,10.8945,0,0.7263,6.74754E-05,10.8945,0
0.7272,0.0001765774,10.908,0,0.7272,0.0001849699,10.908,0
0.7281,6.61326E-05,10.9215,0,0.7281,0.0001675135,10.9215,0
0.729,0.0001033951,10.935,0,0.729,0.0001285725,10.935,0
0.7299,5.740444E-05,10.9485,0,0.7299,0.0001490501,10.9485,0
0.7308,0.0001393149,10.962,0,0.7308,0.0001188373,10.962,0
0.7317,0.0001305867,10.9755,0,0.7317,0.0001013809,10.9755,0
0.7326,5.304036E-05,10.989,0,0.7326,7.418937E-05,10.989,0
0.7335,5.807584E-05,11.0025,0,0.7335,4.263371E-05,11.0025,0
0.7344,0.0001013809,11.016,0,0.7344,4.196231E-05,11.016,0
0.7353,-9.063859E-06,11.0295,0,0.7353,7.888914E-05,11.0295,0
0.7362,-1.644922E-05,11.043,0,0.7362,3.759823E-05,11.043,0
0.7371,0.0001030594,11.0565,0,0.7371,-4.968337E-05,11.0565,0
0.738,-1.376364E-05,11.07,0,0.738,-2.719158E-05,11.07,0
0.7389,-0.0002118257,11.0835,0,0.7389,-4.36408E-06,11.0835,0
0.7398,-0.0001215228,11.097,0,0.7398,-1.443504E-05,11.097,0
0.7407,-2.18204E-05,11.1105,0,0.7407,0.000112459,11.1105,0
0.7416,-0.0002064546,11.124,0,0.7416,0.0001943694,11.124,0
0.7425,-0.0001963836,11.1375,0,0.7425,0.000186984,11.1375,0
0.7434,-0.0001215228,11.151,0,0.7434,0.0002124971,11.151,0
0.7443,8.358892E-05,11.1645,0,0.7443,0.0001198444,11.1645,0
0.7452,0.0002923934,11.178,0,0.7452,0.0001386435,11.178,0
0.7461,0.00021149,11.1915,0,0.7461,0.0001117876,11.1915,0
0.747,0.0001775845,11.205,0,0.747,2.652018E-05,11.205,0
0.7479,0.000197055,11.2185,0,0.7479,4.36408E-06,11.2185,0
0.7488,6.982528E-05,11.232,0,0.7488,6.042573E-06,11.232,0
0.7497,3.289845E-05,11.2455,0,0.7497,-3.121996E-05,11.2455,0
0.7506,4.934768E-05,11.259,0,0.7506,-6.57969E-05,11.259,0
0.7515,-1.007095E-05,11.2725,0,0.7515,-2.316319E-05,11.2725,0
0.7524,-6.713969E-06,11.286,0,0.7524,-4.129091E-05,11.286,0
0.7533,-1.007095E-06,11.2995,0,0.7533,-0.0001399863,11.2995,0
0.7542,3.524834E-05,11.313,0,0.7542,-0.000136965,11.313,0
0.7551,-1.846342E-05,11.3265,0,0.7551,-0.0001013809,11.3265,0
0.756,-3.524834E-05,11.34,0,0.756,-0.0001436789,11.34,0
0.7569,1.141375E-05,11.3535,0,0.7569,-0.0001634852,11.3535,0
0.7578,7.888914E-05,11.367,0,0.7578,-0.000172549,11.367,0
0.7587,7.351797E-05,11.3805,0,0.7587,-0.0001493858,11.3805,0
0.7596,-8.191043E-05,11.394,0,0.7596,-0.0001416648,11.394,0
0.7605,-8.291753E-05,11.4075,0,0.7605,-0.0001349508,11.4075,0
0.7614,-4.39765E-05,11.421,0,0.7614,-3.323415E-05,11.421,0
0.7623,-0.0001215228,11.4345,0,0.7623,1.309224E-05,11.4345,0
0.7632,-7.452507E-05,11.448,0,0.7632,-2.920577E-05,11.448,0
0.7641,5.001907E-05,11.4615,0,0.7641,-0.0001040665,11.4615,0
0.765,-3.659113E-05,11.475,0,0.765,-7.687495E-05,11.475,0
0.7659,-1.577783E-05,11.4885,0,0.7659,-8.627451E-05,11.4885,0
0.7668,8.392462E-05,11.502,0,0.7668,-6.210422E-05,11.502,0
0.7677,6.378271E-06,11.5155,0,0.7677,1.678492E-05,11.5155,0
0.7686,-8.426032E-05,11.529,0,0.7686,-1.644922E-05,11.529,0
0.7695,1.309224E-05,11.5425,0,0.7695,-2.920577E-05,11.5425,0
0.7704,-7.553216E-05,11.556,0,0.7704,-7.721065E-06,11.556,0
0.7713,-7.385367E-05,11.5695,0,0.7713,-3.692683E-06,11.5695,0
0.7722,-5.774014E-05,11.583,0,0.7722,8.728161E-06,11.583,0
0.7731,-0.0001856413,11.5965,0,0.7731,1.309224E-05,11.5965,0
0.774,-0.0001440146,11.61,0,0.774,-4.263371E-05,11.61,0
0.7749,6.378271E-06,11.6235,0,0.7749,-6.54612E-05,11.6235,0
0.7758,-3.390555E-05,11.637,0,0.7758,1.141375E-05,11.637,0
0.7767,-6.78111E-05,11.6505,0,0.7767,-4.36408E-06,11.6505,0
0.7776,1.174945E-05,11.664,0,0.7776,-4.46479E-05,11.664,0
0.7785,-6.6804E-05,11.6775,0,0.7785,-1.174945E-05,11.6775,0
0.7794,2.383459E-05,11.691,0,0.7794,-2.014191E-06,11.691,0
0.7803,0.0001138018,11.7045,0,0.7803,-4.129091E-05,11.7045,0
0.7812,3.054856E-05,11.718,0,0.7812,6.713969E-07,11.718,0
0.7821,-7.183947E-05,11.7315,0,0.7821,1.577783E-05,11.7315,0
0.783,-8.661021E-05,11.745,0,0.783,-1.107805E-05,11.745,0
0.7839,-5.136187E-05,11.7585,0,0.7839,4.36408E-06,11.7585,0
0.7848,-3.021286E-06,11.772,0,0.7848,-3.457694E-05,11.772,0
0.7857,-6.076142E-05,11.7855,0,0.7857,-1.712062E-05,11.7855,0
0.7866,-5.706874E-06,11.799,0,0.7866,6.814679E-05,11.799,0
0.7875,4.800488E-05,11.8125,0,0.7875,7.083238E-05,11.8125,0
0.7884,0.0001050736,11.826,0,0.7884,-3.356985E-06,11.826,0
0.7893,7.821774E-05,11.8395,0,0.7893,-5.908293E-05,11.8395,0
0.7902,8.090334E-05,11.853,0,0.7902,-2.047761E-05,11.853,0
0.7911,0.0001621424,11.8665,0,0.7911,-3.021286E-05,11.8665,0
0.792,4.666209E-05,11.88,0,0.792,-2.450599E-05,11.88,0
0.7929,-4.196231E-05,11.8935,0,0.7929,-6.78111E-05,11.8935,0
0.7938,1.040665E-05,11.907,0,0.7938,-0.0001930266,11.907,0
0.7947,-1.107805E-05,11.9205,0,0.7947,-0.0001500572,11.9205,0
0.7956,-1.678492E-06,11.934,0,0.7956,-0.000105745,11.934,0
0.7965,-1.242084E-05,11.9475,0,0.7965,-0.0001282368,11.9475,0
0.7974,-5.438316E-05,11.961,0,0.7974,-3.524834E-05,11.961,0
0.7983,-3.491264E-05,11.9745,0,0.7983,-1.208515E-05,11.9745,0
0.7992,-0.0001349508,11.988,0,0.7992,6.378271E-06,11.988,0
0.8001,-0.0002135042,12.0015,0,0.8001,5.337606E-05,12.0015,0
0.801,-9.903105E-05,12.015,0,0.801,6.74754E-05,12.015,0
0.8019,1.242084E-05,12.0285,0,0.8019,5.001907E-05,12.0285,0
0.8028,-7.653925E-05,12.042,0,0.8028,0.0001188373,12.042,0
0.8037,1.846342E-05,12.0555,0,0.8037,7.351797E-05,12.0555,0
0.8046,0.0001913481,12.069,0,0.8046,-7.049668E-06,12.069,0
0.8055,5.874724E-05,12.0825,0,0.8055,-1.174945E-05,12.0825,0
0.8064,-6.076142E-05,12.096,0,0.8064,6.378271E-06,12.096,0
0.8073,1.007095E-06,12.1095,0,0.8073,-3.994812E-05,12.1095,0
0.8082,-4.666209E-05,12.123,0,0.8082,-5.471885E-05,12.123,0
0.8091,-0.0001409934,12.1365,0,0.8091,-9.903105E-05,12.1365,0
0.81,-8.89601E-05,12.15,0,0.81,-0.0001853056,12.15,0
0.8109,-9.567407E-05,12.1635,0,0.8109,-0.0002376745,12.1635,0
0.8118,-0.0001044022,12.177,0,0.8118,-0.0002406958,12.177,0
0.8127,-9.399557E-05,12.1905,0,0.8127,-0.0001708705,12.1905,0
0.8136,-0.0001218585,12.204,0,0.8136,-3.021286E-06,12.204,0
0.8145,-6.6804E-05,12.2175,0,0.8145,1.107805E-05,12.2175,0
0.8154,3.021286E-06,12.231,0,0.8154,-5.706874E-06,12.231,0
0.8163,-3.155566E-05,12.2445,0,0.8163,3.692683E-06,12.2445,0
0.8172,-9.936675E-05,12.258,0,0.8172,-0.0001242084,12.258,0
0.8181,-3.994812E-05,12.2715,0,0.8181,-0.0001399863,12.2715,0
0.819,-0.0001050736,12.285,0,0.819,-5.169757E-05,12.285,0
0.8199,-0.0001587854,12.2985,0,0.8199,-5.874724E-05,12.2985,0
0.8208,-0.0001775845,12.312,0,0.8208,-8.661021E-05,12.312,0
0.8217,-8.426032E-05,12.3255,0,0.8217,-3.121996E-05,12.3255,0
0.8226,-0.000186984,12.339,0,0.8226,0.0001326009,12.339,0
0.8235,-0.0001406577,12.3525,0,0.8235,0.0001017166,12.3525,0
0.8244,5.337606E-05,12.366,0,0.8244,6.143282E-05,12.366,0
0.8253,0.0002000763,12.3795,0,0.8253,2.517739E-05,12.3795,0
0.8262,0.0002588235,12.393,0,0.8262,8.023193E-05,12.393,0
0.8271,0.0001769131,12.4065,0,0.8271,0.0001282368,12.4065,0
0.828,0.000200412,12.42,0,0.828,0.0001373007,12.42,0
0.8289,0.0003132067,12.4335,0,0.8289,0.0001232013,12.4335,0
0.8298,0.0001832914,12.447,0,0.8298,0.0001242084,12.447,0
0.8307,0.0001305867,12.4605,0,0.8307,7.116808E-05,12.4605,0
0.8316,0.0001144732,12.474,0,0.8316,8.560311E-05,12.474,0
0.8325,3.121996E-05,12.4875,0,0.8325,0.0001198444,12.4875,0
0.8334,7.922484E-05,12.501,0,0.8334,6.61326E-05,12.501,0
0.8343,8.661021E-05,12.5145,0,0.8343,0.0001094377,12.5145,0
0.8352,7.821774E-05,12.528,0,0.8352,4.733349E-05,12.528,0
0.8361,6.042573E-06,12.5415,0,0.8361,-3.558404E-05,12.5415,0
0.837,3.424125E-05,12.555,0,0.837,-5.606165E-05,12.555,0
0.8379,1.510643E-05,12.5685,0,0.8379,-9.164568E-05,12.5685,0
0.8388,6.814679E-05,12.582,0,0.8388,-9.298848E-05,12.582,0
0.8397,9.399558E-06,12.5955,0,0.8397,-4.061952E-05,12.5955,0
0.8406,-0.0001883268,12.609,0,0.8406,1.174945E-05,12.609,0
0.8415,-0.0001164874,12.6225,0,0.8415,-0.0001050736,12.6225,0
0.8424,1.443504E-05,12.636,0,0.8424,-5.539025E-05,12.636,0
0.8433,-0.0001111162,12.6495,0,0.8433,9.097429E-05,12.6495,0
0.8442,-0.0001628138,12.663,0,0.8442,3.457694E-05,12.663,0
0.8451,-5.069047E-05,12.6765,0,0.8451,-2.719158E-05,12.6765,0
0.846,-0.0001161517,12.69,0,0.846,8.89601E-05,12.69,0
0.8469,5.035477E-06,12.7035,0,0.8469,0.0001849699,12.7035,0
0.8478,0.0001070878,12.717,0,0.8478,0.0001205158,12.717,0
0.8487,0,12.7305,0,0.8487,0.0001141375,12.7305,0
0.8496,2.719158E-05,12.744,0,0.8496,0.0001054093,12.744,0
0.8505,9.768826E-05,12.7575,0,0.8505,2.987716E-05,12.7575,0
0.8514,0.000164828,12.771,0,0.8514,-4.162661E-05,12.771,0
0.8523,0.0001453574,12.7845,0,0.8523,-9.936675E-05,12.7845,0
0.8532,6.61326E-05,12.798,0,0.8532,-0.0001101091,12.798,0
0.8541,1.577783E-05,12.8115,0,0.8541,-0.000119173,12.8115,0
0.855,5.471885E-05,12.825,0,0.855,-0.0001329366,12.825,0
0.8559,0.0001574426,12.8385,0,0.8559,-0.0001507286,12.8385,0
0.8568,4.733349E-05,12.852,0,0.8568,-0.0001265583,12.852,0
0.8577,-6.109713E-05,12.8655,0,0.8577,-8.224613E-05,12.8655,0
0.8586,5.035477E-06,12.879,0,0.8586,-0.0001188373,12.879,0
0.8595001,-4.39765E-05,12.8925,0,0.8595001,-5.673304E-05,12.8925,0
0.8604,-7.116808E-05,12.906,0,0.8604,2.987716E-05,12.906,0
0.8613,3.054856E-05,12.9195,0,0.8613,-4.867628E-05,12.9195,0
0.8622,-5.706874E-06,12.933,0,0.8622,-8.627451E-05,12.933,0
0.8631,1.913481E-05,12.9465,0,0.8631,-2.417029E-05,12.9465,0
0.864,5.740444E-05,12.96,0,0.864,-6.210422E-05,12.96,0
0.8649,6.74754E-05,12.9735,0,0.8649,-0.0001151446,12.9735,0
0.8658,6.881819E-05,12.987,0,0.8658,-0.0001047379,12.987,0
0.8667,3.356985E-06,13.0005,0,0.8667,-8.358892E-05,13.0005,0
0.8676,1.846342E-05,13.014,0,0.8676,-0.0001030594,13.014,0
0.8685,8.392462E-05,13.0275,0,0.8685,-4.129091E-05,13.0275,0
0.8694,3.726253E-05,13.041,0,0.8694,-7.721065E-05,13.041,0
0.8703,-0.0001218585,13.0545,0,0.8703,-7.049668E-05,13.0545,0
0.8712,-0.0001101091,13.068,0,0.8712,-0.0001013809,13.068,0
0.8721,-0.000115816,13.0815,0,0.8721,-0.0001399863,13.0815,0
0.873,-0.000203769,13.095,0,0.873,-2.450599E-05,13.095,0
0.8739,-0.0001769131,13.1085,0,0.8739,8.728161E-06,13.1085,0
0.8748,5.471885E-05,13.122,0,0.8748,-1.678492E-06,13.122,0
0.8757,0.0002390173,13.1355,0,0.8757,-6.6804E-05,13.1355,0
0.8766,0.0001738918,13.149,0,0.8766,-6.71397E-05,13.149,0
0.8775,8.89601E-05,13.1625,0,0.8775,-5.001907E-05,13.1625,0
0.8784,-3.692683E-05,13.176,0,0.8784,-7.016098E-05,13.176,0
0.8793,-7.721065E-06,13.1895,0,0.8793,-2.383459E-05,13.1895,0
0.8802,-5.136187E-05,13.203,0,0.8802,-8.728161E-06,13.203,0
0.8811,-0.0002464027,13.2165,0,0.8811,0.0001010452,13.2165,0
0.882,-0.0001779202,13.23,0,0.882,2.24918E-05,13.23,0
0.8829,-7.620356E-05,13.2435,0,0.8829,-1.779202E-05,13.2435,0
0.8838,-0.0001980621,13.257,0,0.8838,6.378271E-06,13.257,0
0.8847,-0.000224918,13.2705,0,0.8847,-8.996719E-05,13.2705,0
0.8856,-6.009003E-05,13.284,0,0.8856,-0.0001668421,13.284,0
0.8865,-0.000133608,13.2975,0,0.8865,-0.0001745632,13.2975,0
0.8874,-0.0001104448,13.311,0,0.8874,-0.0001567712,13.311,0
0.8883,-3.994812E-05,13.3245,0,0.8883,-0.0001587854,13.3245,0
0.8892,-2.21561E-05,13.338,0,0.8892,-7.284657E-05,13.338,0
0.8901,-7.989624E-05,13.3515,0,0.8901,2.484169E-05,13.3515,0
0.891,1.779202E-05,13.365,0,0.891,6.814679E-05,13.365,0
0.8919,9.634547E-05,13.3785,0,0.8919,0.0001701991,13.3785,0
0.8928,0.0001728847,13.392,0,0.8928,0.0002077974,13.392,0
0.8937,7.754635E-05,13.4055,0,0.8937,0.0001863127,13.4055,0
0.8946,-3.692683E-06,13.419,0,0.8946,0.0001795987,13.419,0
0.8955,-9.399558E-06,13.4325,0,0.8955,0.0001712062,13.4325,0
0.8964,1.309224E-05,13.446,0,0.8964,6.948959E-05,13.446,0
0.8973,2.652018E-05,13.4595,0,0.8973,8.82887E-05,13.4595,0
0.8982,-2.517739E-05,13.473,0,0.8982,5.471885E-05,13.473,0
0.8991,1.040665E-05,13.4865,0,0.8991,2.21561E-05,13.4865,0
0.9,-6.64683E-05,13.5,0,0.9,3.424125E-05,13.5,0
0.9009,-0.0001349508,13.5135,0,0.9009,6.042573E-06,13.5135,0
0.9018,-0.000115816,13.527,0,0.9018,-3.726253E-05,13.527,0
0.9027,-0.0001487144,13.5405,0,0.9027,-7.553216E-05,13.5405,0
0.9036,-0.000190341,13.554,0,0.9036,-0.000175906,13.554,0
0.9045,-0.0001242084,13.5675,0,0.9045,-0.0003350271,13.5675,0
0.9054,7.351797E-05,13.581,0,0.9054,-0.0003826963,13.581,0
0.9063,0.0001742275,13.5945,0,0.9063,-0.0004142519,13.5945,0
0.9072,9.735256E-05,13.608,0,0.9072,-0.0003064927,13.608,0
0.9081,4.632639E-05,13.6215,0,0.9081,-3.088426E-05,13.6215,0
0.909,0.0001017166,13.635,0,0.909,0.000295079,13.635,0
0.9099,4.46479E-05,13.6485,0,0.9099,0.0005394674,13.6485,0
0.9108,-0.0001292439,13.662,0,0.9108,0.0005508812,13.662,0
0.9117,-9.701686E-05,13.6755,0,0.9117,0.0003377127,13.6755,0
0.9126,5.136187E-05,13.689,0,0.9126,0.0001661708,13.689,0
0.9135,-3.961242E-05,13.7025,0,0.9135,0.0001352865,13.7025,0
0.9144,-4.263371E-05,13.716,0,0.9144,0.0001070878,13.716,0
0.9153,7.217517E-05,13.7295,0,0.9153,2.383459E-05,13.7295,0
0.9162,8.661021E-05,13.743,0,0.9162,-5.337606E-05,13.743,0
0.9171,-2.920577E-05,13.7565,0,0.9171,-0.000126894,13.7565,0
0.918,-0.0001651637,13.77,0,0.918,-0.0001748989,13.77,0
0.9189,-0.0002131685,13.7835,0,0.9189,-0.0001530785,13.7835,0
0.9198,-0.0001070878,13.797,0,0.9198,-0.0001185016,13.797,0
0.9207,-4.867628E-05,13.8105,0,0.9207,-4.33051E-05,13.8105,0
0.9216,-0.0001322652,13.824,0,0.9216,-3.860533E-05,13.824,0
0.9225,4.36408E-06,13.8375,0,0.9225,-6.51255E-05,13.8375,0
0.9234,0.0001819486,13.851,0,0.9234,-7.486076E-05,13.851,0
0.9243,0.0001473716,13.8645,0,0.9243,-6.6804E-05,13.8645,0
0.9252,4.46479E-05,13.878,0,0.9252,-0.0001215228,13.878,0
0.9261,0.000136965,13.8915,0,0.9261,-0.0001745632,13.8915,0
0.927,0.000109102,13.905,0,0.927,-0.0001084306,13.905,0
0.9279,7.620356E-05,13.9185,0,0.9279,-6.143282E-05,13.9185,0
0.9288,6.57969E-05,13.932,0,0.9288,-9.063859E-05,13.932,0
0.9297,0.0001265583,13.9455,0,0.9297,-5.975433E-05,13.9455,0
0.9306,3.659113E-05,13.959,0,0.9306,0,13.959,0
0.9315,2.652018E-05,13.9725,0,0.9315,6.411841E-05,13.9725,0
0.9324,4.196231E-05,13.986,0,0.9324,-7.217517E-05,13.986,0
0.9333,1.544213E-05,13.9995,0,0.9333,-8.996719E-05,13.9995,0
0.9342,-2.484169E-05,14.013,0,0.9342,5.136187E-05,14.013,0
0.9351,3.659113E-05,14.0265,0,0.9351,3.054856E-05,14.0265,0
0.936,3.457694E-05,14.04,0,0.936,-9.903105E-05,14.04,0
0.9369,-3.927672E-05,14.0535,0,0.9369,-3.323415E-05,14.0535,0
0.9378,-9.735256E-05,14.067,0,0.9378,0.0001168231,14.067,0
0.9387,-0.0001027237,14.0805,0,0.9387,-3.121996E-05,14.0805,0
0.9396001,-2.719158E-05,14.094,0,0.9396001,-0.0001111162,14.094,0
0.9405,-7.284657E-05,14.1075,0,0.9405,-4.53193E-05,14.1075,0
0.9414001,-7.888914E-05,14.121,0,0.9414001,-5.606165E-05,14.121,0
0.9423,-1.745632E-05,14.1345,0,0.9423,-5.304036E-05,14.1345,0
0.9432001,-6.378271E-06,14.148,0,0.9432001,2.920577E-05,14.148,0
0.9441,-1.846342E-05,14.1615,0,0.9441,1.443504E-05,14.1615,0
0.9450001,0.000102388,14.175,0,0.9450001,2.584878E-05,14.175,0
0.9459,0.0001003738,14.1885,0,0.9459,4.599069E-05,14.1885,0
0.9468,8.526741E-05,14.202,0,0.9468,2.349889E-05,14.202,0
0.9477,0.0001064164,14.2155,0,0.9477,6.881819E-05,14.2155,0
0.9486,4.800488E-05,14.229,0,0.9486,-3.356985E-06,14.229,0
0.9495,2.21561E-05,14.2425,0,0.9495,-0.0001748989,14.2425,0
0.9504,9.735256E-06,14.256,0,0.9504,-0.0002333104,14.256,0
0.9513,-0.000207126,14.2695,0,0.9513,-0.0001765774,14.2695,0
0.9522,-0.0001836271,14.283,0,0.9522,-0.0002007477,14.283,0
0.9531,4.800488E-05,14.2965,0,0.9531,-0.0001916838,14.2965,0
0.954,2.1149E-05,14.31,0,0.954,-1.510643E-05,14.31,0
0.9549,0.0002017548,14.3235,0,0.9549,0.0002615091,14.3235,0
0.9558,0.0002923934,14.337,0,0.9558,0.000274937,14.337,0
0.9567,5.471885E-05,14.3505,0,0.9567,0.0002467384,14.3505,0
0.9576,3.457694E-05,14.364,0,0.9576,0.0002386816,14.364,0
0.9585,5.874724E-05,14.3775,0,0.9585,5.136187E-05,14.3775,0
0.9594,3.994812E-05,14.391,0,0.9594,-1.107805E-05,14.391,0
0.9603,-1.376364E-05,14.4045,0,0.9603,-2.887007E-05,14.4045,0
0.9612,9.063859E-06,14.418,0,0.9612,2.047761E-05,14.418,0
0.9621,-2.316319E-05,14.4315,0,0.9621,1.577783E-05,14.4315,0
0.963,-2.316319E-05,14.445,0,0.963,0.0001017166,14.445,0
0.9639,1.409934E-05,14.4585,0,0.9639,0.0001262226,14.4585,0
0.9648,-7.821774E-05,14.472,0,0.9648,-6.71397E-05,14.472,0
0.9657,-3.189136E-05,14.4855,0,0.9657,-8.661021E-05,14.4855,0
0.9666,5.270466E-05,14.499,0,0.9666,-0.0001467002,14.499,0
0.9675,1.510643E-05,14.5125,0,0.9675,-0.0001366293,14.5125,0
0.9684,-3.021286E-06,14.526,0,0.9684,-0.0001151446,14.526,0
0.9693,5.337606E-05,14.5395,0,0.9693,-0.0001121233,14.5395,0
0.9702,3.323415E-05,14.553,0,0.9702,-3.289845E-05,14.553,0
0.9711,3.121996E-05,14.5665,0,0.9711,9.634547E-05,14.5665,0
0.972,-3.692683E-06,14.58,0,0.972,5.337606E-05,14.58,0
0.9729,-4.46479E-05,14.5935,0,0.9729,-1.678492E-05,14.5935,0
0.9738,-2.18204E-05,14.607,0,0.9738,-9.735256E-06,14.607,0
0.9747,-0.0001010452,14.6205,0,0.9747,5.035477E-06,14.6205,0
0.9756,-0.0001990692,14.634,0,0.9756,2.1149E-05,14.634,0
0.9765,-0.0001185016,14.6475,0,0.9765,-8.023193E-05,14.6475,0
0.9774,-0.0001356222,14.661,0,0.9774,-0.0002128328,14.661,0
0.9783,-0.0001393149,14.6745,0,0.9783,-0.0002135042,14.6745,0
0.9792,5.035477E-06,14.688,0,0.9792,-0.000263859,14.688,0
0.9801,2.584878E-05,14.7015,0,0.9801,-0.0002897078,14.7015,0
0.981,-8.191043E-05,14.715,0,0.981,-0.0001221943,14.715,0
0.9819,5.706874E-05,14.7285,0,0.9819,0.0001809415,14.7285,0
0.9828,8.291753E-05,14.742,0,0.9828,0.0002991073,14.742,0
0.9837,-0.0001168231,14.7555,0,0.9837,0.0001379721,14.7555,0
0.9846,-0.0001453574,14.769,0,0.9846,4.934768E-05,14.769,0
0.9855,-5.404745E-05,14.7825,0,0.9855,6.6804E-05,14.7825,0
0.9864,-7.418937E-05,14.796,0,0.9864,0.0001373007,14.796,0
0.9873,4.061952E-05,14.8095,0,0.9873,7.183947E-05,14.8095,0
0.9882,0.0001144732,14.823,0,0.9882,-9.735256E-06,14.823,0
0.9891,-1.913481E-05,14.8365,0,0.9891,-1.007095E-05,14.8365,0
0.99,1.007095E-06,14.85,0,0.99,-6.57969E-05,14.85,0
0.9909,1.040665E-05,14.8635,0,0.9909,-2.517739E-05,14.8635,0
0.9918,-5.471885E-05,14.877,0,0.9918,3.826963E-05,14.877,0
0.9927,3.927672E-05,14.8905,0,0.9927,3.692683E-06,14.8905,0
0.9936,0.000144686,14.904,0,0.9936,-8.82887E-05,14.904,0
0.9945,8.291753E-05,14.9175,0,0.9945,4.36408E-06,14.9175,0
0.9954,6.948959E-05,14.931,0,0.9954,2.652018E-05,14.931,0
0.9963,0.000105745,14.9445,0,0.9963,-3.659113E-05,14.9445,0
0.9972,5.270466E-05,14.958,0,0.9972,2.853437E-05,14.958,0
0.9981,-0.0001000381,14.9715,0,0.9981,7.721065E-06,14.9715,0
0.999,-5.941863E-05,14.985,0,0.999,-2.450599E-05,14.985,0
0.9999,-8.291753E-05,14.9985,0,0.9999,-2.853437E-05,14.9985,0
1.0008,-5.270466E-05,15.012,0,1.0008,-8.426032E-05,15.012,0
1.0017,-2.1149E-05,15.0255,0,1.0017,-9.365987E-05,15.0255,0
1.0026,-0.0001054093,15.039,0,1.0026,-9.970245E-05,15.039,0
1.0035,-8.96315E-05,15.0525,0,1.0035,-9.634547E-05,15.0525,0
1.0044,-4.800488E-05,15.066,0,1.0044,-5.639734E-05,15.066,0
1.0053,-0.0001487144,15.0795,0,1.0053,-7.049668E-06,15.0795,0
1.0062,-0.0001164874,15.093,0,1.0062,-2.853437E-05,15.093,0
1.0071,-0.000175906,15.1065,0,1.0071,-0.0001084306,15.1065,0
1.008,-0.0003602045,15.12,0,1.008,-0.0001178302,15.12,0
1.0089,-0.0004065309,15.1335,0,1.0089,-0.0002591592,15.1335,0
1.0098,-0.000376318,15.147,0,1.0098,-0.000383032,15.147,0
1.0107,-0.0003350271,15.1605,0,1.0107,-0.0003132067,15.1605,0
1.0116,-0.0003118639,15.174,0,1.0116,-0.0002252537,15.174,0
1.0125,-1.812772E-05,15.1875,0,1.0125,-0.0002366674,15.1875,0
1.0134,0.0004860914,15.201,0,1.0134,5.136187E-05,15.201,0
1.0143,0.0004790417,15.2145,0,1.0143,6.143282E-05,15.2145,0
1.0152,0.0001829557,15.228,0,1.0152,-6.378271E-06,15.228,0
1.0161,0.0001393149,15.2415,0,1.0161,7.721065E-05,15.2415,0
1.017,9.903105E-05,15.255,0,1.017,0.0001238727,15.255,0
1.0179,4.800488E-05,15.2685,0,1.0179,0.0001359579,15.2685,0
1.0188,-5.505455E-05,15.282,0,1.0188,0.0001064164,15.282,0
1.0197,-3.256275E-05,15.2955,0,1.0197,8.89601E-05,15.2955,0
1.0206,-3.356985E-07,15.309,0,1.0206,5.673304E-05,15.309,0
1.0215,-0.0002185397,15.3225,0,1.0215,5.102617E-05,15.3225,0
1.0224,-0.0002893721,15.336,0,1.0224,-3.793393E-05,15.336,0
1.0233,-0.0001225299,15.3495,0,1.0233,-0.0001084306,15.3495,0
1.0242,-9.567407E-05,15.363,0,1.0242,-6.814679E-05,15.363,0
1.0251,-3.390555E-05,15.3765,0,1.0251,-4.53193E-05,15.3765,0
1.026,0.0002141756,15.39,0,1.026,-6.54612E-05,15.39,0
1.0269,0.0003474479,15.4035,0,1.0269,-2.349889E-06,15.4035,0
1.0278,0.000291722,15.417,0,1.0278,2.24918E-05,15.417,0
1.0287,0.0001473716,15.4305,0,1.0287,0.0002205539,15.4305,0
1.0296,2.887007E-05,15.444,0,1.0296,0.0002437171,15.444,0
1.0305,0.0001178302,15.4575,0,1.0305,0.0001366293,15.4575,0
1.0314,0.000224918,15.471,0,1.0314,0.0001030594,15.471,0
1.0323,0.0001822843,15.4845,0,1.0323,6.478981E-05,15.4845,0
1.0332,0.0001876554,15.498,0,1.0332,3.189136E-05,15.498,0
1.0341,0.0003756466,15.5115,0,1.0341,-1.342794E-06,15.5115,0
1.035,0.000256138,15.525,0,1.035,5.874724E-05,15.525,0
1.0359,0.000115816,15.5385,0,1.0359,5.606165E-05,15.5385,0
1.0368,7.486076E-05,15.552,0,1.0368,-4.867628E-05,15.552,0
1.0377,-4.666209E-05,15.5655,0,1.0377,-8.795301E-05,15.5655,0
1.0386,-0.000109102,15.579,0,1.0386,-3.189136E-05,15.579,0
1.0395,-9.701686E-05,15.5925,0,1.0395,-2.719158E-05,15.5925,0
1.0404,-5.874724E-05,15.606,0,1.0404,-7.083238E-05,15.606,0
1.0413,-0.0001064164,15.6195,0,1.0413,-8.96315E-05,15.6195,0
1.0422,-0.0001060807,15.633,0,1.0422,-4.834058E-05,15.633,0
1.0431,-0.0001339437,15.6465,0,1.0431,-0.0001537499,15.6465,0
1.044,-3.054856E-05,15.66,0,1.044,-0.0004518502,15.66,0
1.0449,9.063859E-06,15.6735,0,1.0449,-0.0004924697,15.6735,0
1.0458,-0.0001376364,15.687,0,1.0458,-0.0006019074,15.687,0
1.0467,-0.0001168231,15.7005,0,1.0467,-0.0007482719,15.7005,0
1.0476,4.834058E-05,15.714,0,1.0476,-0.0002289464,15.714,0
1.0485,4.800488E-05,15.7275,0,1.0485,0.0005381246,15.7275,0
1.0494,0.0001104448,15.741,0,1.0494,0.001052415,15.741,0
1.0503,4.46479E-05,15.7545,0,1.0503,0.0007294728,15.7545,0
1.0512,-3.457694E-05,15.768,0,1.0512,0.0003393912,15.768,0
1.0521,-8.89601E-05,15.7815,0,1.0521,0.000256138,15.7815,0
1.053,-0.0002252537,15.795,0,1.053,8.761731E-05,15.795,0
1.0539,-0.0002725872,15.8085,0,1.0539,-4.766919E-05,15.8085,0
1.0548,-0.0001577783,15.822,0,1.0548,-0.0001393149,15.822,0
1.0557,-0.0001889983,15.8355,0,1.0557,-0.0001164874,15.8355,0
1.0566,-0.0003135424,15.849,0,1.0566,-7.687495E-05,15.849,0
1.0575,-9.701686E-05,15.8625,0,1.0575,-2.24918E-05,15.8625,0
1.0584,0.0001748989,15.876,0,1.0584,-7.016098E-05,15.876,0
1.0593,0.0001950408,15.8895,0,1.0593,-0.0001433432,15.8895,0
1.0602,0.0001232013,15.903,0,1.0602,-9.701686E-05,15.903,0
1.0611,0.0001356222,15.9165,0,1.0611,-0.000126894,15.9165,0
1.062,-6.848249E-05,15.93,0,1.062,-0.0001033951,15.93,0
1.0629,-4.766919E-05,15.9435,0,1.0629,-0.0001131304,15.9435,0
1.0638,1.443504E-05,15.957,0,1.0638,-0.0001037308,15.957,0
1.0647,-8.224613E-05,15.9705,0,1.0647,-4.162661E-05,15.9705,0
1.0656,-0.0001208515,15.984,0,1.0656,-2.853437E-05,15.984,0
1.0665,-5.236896E-05,15.9975,0,1.0665,-4.061952E-05,15.9975,0
1.0674,4.36408E-06,16.011,0,1.0674,-3.491264E-05,16.011,0
1.0683,2.18204E-05,16.0245,0,1.0683,-2.752728E-05,16.0245,0
1.0692,3.826963E-05,16.038,0,1.0692,1.040665E-05,16.038,0
1.0701,8.224613E-05,16.0515,0,1.0701,-1.342794E-05,16.0515,0
1.071,5.841154E-05,16.065,0,1.071,-4.33051E-05,16.065,0
1.0719,8.89601E-05,16.0785,0,1.0719,-3.860533E-05,16.0785,0
1.0728,-3.356985E-07,16.092,0,1.0728,2.853437E-05,16.092,0
1.0737,-1.846342E-05,16.1055,0,1.0737,0.0001352865,16.1055,0
1.0746,6.881819E-05,16.119,0,1.0746,0.0001265583,16.119,0
1.0755,-2.484169E-05,16.1325,0,1.0755,0.0001114519,16.1325,0
1.0764,-0.0001426719,16.146,0,1.0764,7.351797E-05,16.146,0
1.0773,-6.277562E-05,16.1595,0,1.0773,5.740444E-05,16.1595,0
1.0782,-1.007095E-05,16.173,0,1.0782,7.083238E-05,16.173,0
1.0791,3.021286E-06,16.1865,0,1.0791,4.43122E-05,16.1865,0
1.08,-4.061952E-05,16.2,0,1.08,-0.0002323034,16.2,0
1.0809,-0.0001305867,16.2135,0,1.0809,-0.0004374151,16.2135,0
1.0818,-0.0001752346,16.227,0,1.0818,-0.0004427863,16.227,0
1.0827,-0.0002151827,16.2405,0,1.0827,-0.0004971694,16.2405,0
1.0836,-0.000102388,16.254,0,1.0836,-0.000355169,16.254,0
1.0845,4.129091E-05,16.2675,0,1.0845,1.409934E-05,16.2675,0
1.0854,0.0002423743,16.281,0,1.0854,0.0004196231,16.281,0
1.0863,0.0003568475,16.2945,0,1.0863,0.0003904173,16.2945,0
1.0872,0.0005149615,16.308,0,1.0872,0.0005206683,16.308,0
1.0881,0.0003890745,16.3215,0,1.0881,0.0004535287,16.3215,0
1.089,0.0002356603,16.335,0,1.089,0.0003662471,16.335,0
1.0899,0.0001930266,16.3485,0,1.0899,0.0001950408,16.3485,0
1.0908,7.821774E-05,16.362,0,1.0908,4.46479E-05,16.362,0
1.0917,-1.376364E-05,16.3755,0,1.0917,2.786297E-05,16.3755,0
1.0926,-7.687495E-05,16.389,0,1.0926,8.795301E-05,16.389,0
1.0935,-7.486076E-05,16.4025,0,1.0935,5.069047E-05,16.4025,0
1.0944,-0.0001510643,16.416,0,1.0944,-4.565499E-05,16.416,0
1.0953,-0.0001292439,16.4295,0,1.0953,-0.000133608,16.4295,0
1.0962,-0.0001164874,16.443,0,1.0962,-0.0001701991,16.443,0
1.0971,-0.0001950408,16.4565,0,1.0971,-0.0001722133,16.4565,0
1.098,-0.0002091402,16.47,0,1.098,-0.0001265583,16.47,0
1.0989,-0.0002279393,16.4835,0,1.0989,-0.0001822843,16.4835,0
1.0998,-0.0002766156,16.497,0,1.0998,-0.0002030976,16.497,0
1.1007,-0.0001863127,16.5105,0,1.1007,-0.0001362936,16.5105,0
1.1016,-2.853437E-05,16.524,0,1.1016,-0.0001413291,16.524,0
1.1025,-0.0001856413,16.5375,0,1.1025,-9.433127E-05,16.5375,0
1.1034,-0.0002977645,16.551,0,1.1034,-4.46479E-05,16.551,0
1.1043,-0.000172549,16.5645,0,1.1043,-6.243992E-05,16.5645,0
1.1052,2.719158E-05,16.578,0,1.1052,-8.526741E-05,16.578,0
1.1061,-4.46479E-05,16.5915,0,1.1061,-0.0002175326,16.5915,0
1.107,-4.46479E-05,16.605,0,1.107,-0.0003158923,16.605,0
1.1079,1.712062E-05,16.6185,0,1.1079,-0.0002913863,16.6185,0
1.1088,5.337606E-05,16.632,0,1.1088,-0.000190341,16.632,0
1.1097,2.987716E-05,16.6455,0,1.1097,3.692683E-06,16.6455,0
1.1106,-5.136187E-05,16.659,0,1.1106,0.0002615091,16.659,0
1.1115,-2.047761E-05,16.6725,0,1.1115,0.0002722515,16.6725,0
1.1124,5.874724E-05,16.686,0,1.1124,0.0001114519,16.686,0
1.1133,-1.913481E-05,16.6995,0,1.1133,0.0001064164,16.6995,0
1.1142,-1.678492E-06,16.713,0,1.1142,9.466698E-05,16.713,0
1.1151,7.821774E-05,16.7265,0,1.1151,-1.342794E-06,16.7265,0
1.116,7.721065E-06,16.74,0,1.116,4.129091E-05,16.74,0
1.1169,-2.316319E-05,16.7535,0,1.1169,2.484169E-05,16.7535,0
1.1178,9.265278E-05,16.767,0,1.1178,3.356985E-07,16.767,0
1.1187,0.00024271,16.7805,0,1.1187,3.726253E-05,16.7805,0
1.1196,0.0001849699,16.794,0,1.1196,2.517739E-05,16.794,0
1.1205,8.560311E-05,16.8075,0,1.1205,-8.89601E-05,16.8075,0
1.1214,5.673304E-05,16.821,0,1.1214,-0.0001638209,16.821,0
1.1223,0.0001185016,16.8345,0,1.1223,-0.0002695659,16.8345,0
1.1232,4.36408E-06,16.848,0,1.1232,-0.0002829938,16.848,0
1.1241,-2.517739E-05,16.8615,0,1.1241,-0.0002806439,16.8615,0
1.125,0.0001003738,16.875,0,1.125,-0.0001040665,16.875,0
1.1259,5.270466E-05,16.8885,0,1.1259,0.0001111162,16.8885,0
1.1268,-7.083238E-05,16.902,0,1.1268,0.0004370794,16.902,0
1.1277,-3.356985E-06,16.9155,0,1.1277,0.0001990692,16.9155,0
1.1286,1.712062E-05,16.929,0,1.1286,-7.049668E-06,16.929,0
1.1295,-6.78111E-05,16.9425,0,1.1295,9.030289E-05,16.9425,0
1.1304,1.376364E-05,16.956,0,1.1304,4.36408E-05,16.956,0
1.1313,0.000119173,16.9695,0,1.1313,-2.484169E-05,16.9695,0
1.1322,-3.256275E-05,16.983,0,1.1322,6.042573E-06,16.983,0
1.1331,-8.090334E-05,16.9965,0,1.1331,2.484169E-05,16.9965,0
1.134,-8.426032E-05,17.01,0,1.134,-6.009003E-05,17.01,0
1.1349,-7.049668E-05,17.0235,0,1.1349,-5.169757E-05,17.0235,0
1.1358,-1.409934E-05,17.037,0,1.1358,-7.351797E-05,17.037,0
1.1367,4.867628E-05,17.0505,0,1.1367,-0.0001164874,17.0505,0
1.1376,3.021286E-06,17.064,0,1.1376,-0.0001540856,17.064,0
1.1385,-1.712062E-05,17.0775,0,1.1385,-0.0002047761,17.0775,0
1.1394,6.042573E-06,17.091,0,1.1394,-0.0002621805,17.091,0
1.1403,-7.553216E-05,17.1045,0,1.1403,-0.0002131685,17.1045,0
1.1412,-3.994812E-05,17.118,0,1.1412,-0.0001470359,17.118,0
1.1421,9.198138E-05,17.1315,0,1.1421,-6.881819E-05,17.1315,0
1.143,-3.994812E-05,17.145,0,1.143,-2.786297E-05,17.145,0
1.1439,1.040665E-05,17.1585,0,1.1439,-2.349889E-06,17.1585,0
1.1448,0.0001537499,17.172,0,1.1448,2.349889E-05,17.172,0
1.1457,9.063859E-06,17.1855,0,1.1457,-2.18204E-05,17.1855,0
1.1466,-7.016098E-05,17.199,0,1.1466,-3.356985E-06,17.199,0
1.1475,3.927672E-05,17.2125,0,1.1475,6.378271E-06,17.2125,0
1.1484,0.0001500572,17.226,0,1.1484,-4.028382E-06,17.226,0
1.1493,0.0001225299,17.2395,0,1.1493,7.385367E-06,17.2395,0
1.1502,2.24918E-05,17.253,0,1.1502,6.814679E-05,17.253,0
1.1511,7.721065E-06,17.2665,0,1.1511,0.0001544213,17.2665,0
1.152,-1.678492E-05,17.28,0,1.152,0.0001030594,17.28,0
1.1529,9.063859E-06,17.2935,0,1.1529,9.298848E-05,17.2935,0
1.1538,-6.378271E-06,17.307,0,1.1538,0.0001514,17.307,0
1.1547,-4.599069E-05,17.3205,0,1.1547,6.210422E-05,17.3205,0
1.1556,5.337606E-05,17.334,0,1.1556,-4.061952E-05,17.334,0
1.1565,3.894102E-05,17.3475,0,1.1565,-1.242084E-05,17.3475,0
1.1574,-5.706874E-06,17.361,0,1.1574,2.484169E-05,17.361,0
1.1583,-1.376364E-05,17.3745,0,1.1583,-0.0001983978,17.3745,0
1.1592,-7.653925E-05,17.388,0,1.1592,-0.0002373388,17.388,0
1.1601,-0.0001248798,17.4015,0,1.1601,-0.0001399863,17.4015,0
1.161,-6.009003E-05,17.415,0,1.161,-0.0001013809,17.415,0
1.1619,-6.61326E-05,17.4285,0,1.1619,-9.063859E-05,17.4285,0
1.1628,1.309224E-05,17.442,0,1.1628,7.989624E-05,17.442,0
1.1637,2.887007E-05,17.4555,0,1.1637,0.0001769131,17.4555,0
1.1646,3.021286E-06,17.469,0,1.1646,0.000119173,17.469,0
1.1655,-5.706874E-06,17.4825,0,1.1655,5.471885E-05,17.4825,0
1.1664,-8.69459E-05,17.496,0,1.1664,-4.699779E-05,17.496,0
1.1673,-0.0002098116,17.5095,0,1.1673,-1.678492E-05,17.5095,0
1.1682,-8.291753E-05,17.523,0,1.1682,0.0002212253,17.523,0
1.1691,-5.706874E-06,17.5365,0,1.1691,0.0002145113,17.5365,0
1.17,-0.000207126,17.55,0,1.17,0.0002064546,17.55,0
1.1709,-0.0001107805,17.5635,0,1.1709,0.0001386435,17.5635,0
1.1718,-2.18204E-05,17.577,0,1.1718,0.0001285725,17.577,0
1.1727,-4.867628E-05,17.5905,0,1.1727,8.358892E-05,17.5905,0
1.1736,-9.567407E-05,17.604,0,1.1736,1.846342E-05,17.604,0
1.1745,5.471885E-05,17.6175,0,1.1745,4.33051E-05,17.6175,0
1.1754,-6.143282E-05,17.631,0,1.1754,-4.800488E-05,17.631,0
1.1763,-0.0001990692,17.6445,0,1.1763,-0.000112459,17.6445,0
1.1772,-0.0002145113,17.658,0,1.1772,-7.553216E-05,17.658,0
1.1781,-0.0001748989,17.6715,0,1.1781,-4.46479E-05,17.6715,0
1.179,-8.82887E-05,17.685,0,1.179,-6.54612E-05,17.685,0
1.1799,-9.869535E-05,17.6985,0,1.1799,-0.0001037308,17.6985,0
1.1808,-0.0002051118,17.712,0,1.1808,-0.0001037308,17.712,0
1.1817,-9.231708E-05,17.7255,0,1.1817,-0.000102388,17.7255,0
1.1826,0.0001107805,17.739,0,1.1826,-0.0001507286,17.739,0
1.1835,-5.035477E-05,17.7525,0,1.1835,-8.86244E-05,17.7525,0
1.1844,-6.311131E-05,17.766,0,1.1844,-6.076142E-05,17.766,0
1.1853,0.0001433432,17.7795,0,1.1853,-9.365987E-05,17.7795,0
1.1862,0.0001560998,17.793,0,1.1862,-0.0001346151,17.793,0
1.1871,4.53193E-05,17.8065,0,1.1871,-0.0002312963,17.8065,0
1.188,0.000105745,17.82,0,1.188,-0.0002064546,17.82,0
1.1889,0.000193698,17.8335,0,1.1889,-0.0001752346,17.8335,0
1.1898,0.0001765774,17.847,0,1.1898,-0.0001037308,17.847,0
1.1907,0.0001477073,17.8605,0,1.1907,3.692683E-05,17.8605,0
1.1916,0.0002141756,17.874,0,1.1916,0.0001312581,17.874,0
1.1925,0.0002145113,17.8875,0,1.1925,6.948959E-05,17.8875,0
1.1934,0.0001628138,17.901,0,1.1934,7.049668E-06,17.901,0
1.1943,-3.021286E-06,17.9145,0,1.1943,8.392462E-05,17.9145,0
1.1952,-8.090334E-05,17.928,0,1.1952,0.0001701991,17.928,0
1.1961,-4.968337E-05,17.9415,0,1.1961,0.0001218585,17.9415,0
1.197,-8.69459E-05,17.955,0,1.197,0.0001346151,17.955,0
1.1979,-4.565499E-05,17.9685,0,1.1979,0.0001698634,17.9685,0
1.1988,-8.493171E-05,17.982,0,1.1988,3.961242E-05,17.982,0
1.1997,5.841154E-05,17.9955,0,1.1997,6.042573E-06,17.9955,0
1.2006,9.903105E-05,18.009,0,1.2006,6.948959E-05,18.009,0
1.2015,-4.733349E-05,18.0225,0,1.2015,2.1149E-05,18.0225,0
1.2024,-0.0001000381,18.036,0,1.2024,-2.584878E-05,18.036,0
1.2033,-3.021286E-06,18.0495,0,1.2033,-1.409934E-05,18.0495,0
1.2042,9.970245E-05,18.063,0,1.2042,1.510643E-05,18.063,0
1.2051,0.0001030594,18.0765,0,1.2051,-4.699779E-05,18.0765,0
1.206,6.076142E-05,18.09,0,1.206,-9.500267E-05,18.09,0
1.2069,0.0001044022,18.1035,0,1.2069,-8.627451E-05,18.1035,0
1.2078,-2.685588E-06,18.117,0,1.2078,-2.752728E-05,18.117,0
1.2087,-2.719158E-05,18.1305,0,1.2087,-2.719158E-05,18.1305,0
1.2096,0.0001215228,18.144,0,1.2096,-3.994812E-05,18.144,0
1.2105,-3.961242E-05,18.1575,0,1.2105,-7.586786E-05,18.1575,0
1.2114,-0.0001661708,18.171,0,1.2114,-0.0001816129,18.171,0
1.2123,-0.00018262,18.1845,0,1.2123,-0.000260502,18.1845,0
1.2132,-0.0002306248,18.198,0,1.2132,-0.0002866865,18.198,0
1.2141,-0.0002537881,18.2115,0,1.2141,-0.000207126,18.2115,0
1.215,-0.0002380102,18.225,0,1.215,-0.0004380865,18.225,0
1.2159,-0.0001752346,18.2385,0,1.2159,-0.0004125734,18.2385,0
1.2168,9.466698E-05,18.252,0,1.2168,-0.0004011597,18.252,0
1.2177,0.0002470741,18.2655,0,1.2177,-0.0003655757,18.2655,0
1.2186,0.000105745,18.279,0,1.2186,-6.076142E-05,18.279,0
1.2195,2.920577E-05,18.2925,0,1.2195,0.0002413672,18.2925,0
1.2204,2.752728E-05,18.306,0,1.2204,0.0003105211,18.306,0
1.2213,-1.040665E-05,18.3195,0,1.2213,0.0004662852,18.3195,0
1.2222,-4.39765E-05,18.333,0,1.2222,0.0003108568,18.333,0
1.2231,1.745632E-05,18.3465,0,1.2231,0.0001107805,18.3465,0
1.224,9.063859E-06,18.36,0,1.224,0.0002051118,18.36,0
1.2249,9.701686E-05,18.3735,0,1.2249,0.0002158541,18.3735,0
1.2258,0.000235996,18.387,0,1.2258,8.69459E-05,18.387,0
1.2267,0.0002826581,18.4005,0,1.2267,1.913481E-05,18.4005,0
1.2276,0.0001319295,18.414,0,1.2276,4.800488E-05,18.414,0
1.2285,0.0001087663,18.4275,0,1.2285,1.007095E-06,18.4275,0
1.2294,0.0001312581,18.441,0,1.2294,-7.418937E-05,18.441,0
1.2303,4.061952E-05,18.4545,0,1.2303,-0.0002145113,18.4545,0
1.2312,-4.129091E-05,18.468,0,1.2312,-0.0002326391,18.468,0
1.2321,-2.719158E-05,18.4815,0,1.2321,-5.035477E-05,18.4815,0
1.233,-5.203327E-05,18.495,0,1.233,-8.426032E-05,18.495,0
1.2339,-0.0002245823,18.5085,0,1.2339,-0.0001597925,18.5085,0
1.2348,-0.0002836652,18.522,0,1.2348,4.968337E-05,18.522,0
1.2357,-0.0001386435,18.5355,0,1.2357,2.1149E-05,18.5355,0
1.2366,-7.150377E-05,18.549,0,1.2366,-0.0001977264,18.549,0
1.2375,-0.000115816,18.5625,0,1.2375,-0.0002709087,18.5625,0
1.2384,6.64683E-05,18.576,0,1.2384,-0.0003179065,18.576,0
1.2393,0.0002944076,18.5895,0,1.2393,-0.0001997406,18.5895,0
1.2402,0.0002803082,18.603,0,1.2402,-6.881819E-05,18.603,0
1.2411,8.023193E-05,18.6165,0,1.2411,0.0001769131,18.6165,0
1.242,-2.081331E-05,18.63,0,1.242,0.0003400626,18.63,0
1.2429,-4.263371E-05,18.6435,0,1.2429,0.0002796368,18.6435,0
1.2438,-3.994812E-05,18.657,0,1.2438,0.0001339437,18.657,0
1.2447,-6.478981E-05,18.6705,0,1.2447,4.599069E-05,18.6705,0
1.2456,-0.0001839628,18.684,0,1.2456,0.0001738918,18.684,0
1.2465,-0.0001386435,18.6975,0,1.2465,0.0001658351,18.6975,0
1.2474,-0.0001077592,18.711,0,1.2474,6.143282E-05,18.711,0
1.2483,-0.0002558022,18.7245,0,1.2483,0.0001769131,18.7245,0
1.2492,-0.0002222324,18.738,0,1.2492,0.0001144732,18.738,0
1.2501,8.392462E-05,18.7515,0,1.2501,-9.802396E-05,18.7515,0
1.251,7.217517E-05,18.765,0,1.251,1.007095E-06,18.765,0
1.2519,-5.371176E-05,18.7785,0,1.2519,3.759823E-05,18.7785,0
1.2528,9.634547E-05,18.792,0,1.2528,-3.793393E-05,18.792,0
1.2537,0.0002239109,18.8055,0,1.2537,-5.404745E-05,18.8055,0
1.2546,0.0001245441,18.819,0,1.2546,-5.203327E-05,18.819,0
1.2555,7.821774E-05,18.8325,0,1.2555,2.081331E-05,18.8325,0
1.2564,0.0001171588,18.846,0,1.2564,0.0002652018,18.846,0
1.2573,0.0001621424,18.8595,0,1.2573,0.0002061189,18.8595,0
1.2582,1.846342E-05,18.873,0,1.2582,9.869535E-05,18.873,0
1.2591,-9.768826E-05,18.8865,0,1.2591,7.553216E-05,18.8865,0
1.26,6.411841E-05,18.9,0,1.26,1.577783E-05,18.9,0
1.2609,0.0001141375,18.9135,0,1.2609,-4.129091E-05,18.9135,0
1.2618,-2.18204E-05,18.927,0,1.2618,-6.982528E-05,18.927,0
1.2627,-8.627451E-05,18.9405,0,1.2627,-0.0001164874,18.9405,0
1.2636,-5.673304E-05,18.954,0,1.2636,-0.0001658351,18.954,0
1.2645,-8.157473E-05,18.9675,0,1.2645,-0.0001772488,18.9675,0
1.2654,-0.0001618067,18.981,0,1.2654,-0.0002178683,18.981,0
1.2663,-0.0001396506,18.9945,0,1.2663,-0.0002803082,18.9945,0
1.2672,-1.107805E-05,19.008,0,1.2672,-0.0003279774,19.008,0
1.2681,-0.0001020523,19.0215,0,1.2681,-0.0002259251,19.0215,0
1.269,-0.0001084306,19.035,0,1.269,-6.445411E-05,19.035,0
1.2699,-8.426032E-05,19.0485,0,1.2699,-2.685588E-05,19.0485,0
1.2708,-9.097429E-05,19.062,0,1.2708,2.014191E-06,19.062,0
1.2717,-0.0002440528,19.0755,0,1.2717,0.000148043,19.0755,0
1.2726,-0.0003350271,19.089,0,1.2726,0.0001228656,19.089,0
1.2735,-0.000109102,19.1025,0,1.2735,4.901198E-05,19.1025,0
1.2744,7.888914E-05,19.116,0,1.2744,1.477073E-05,19.116,0
1.2753,0.0001443503,19.1295,0,1.2753,2.383459E-05,19.1295,0
1.2762,0.0002544594,19.143,0,1.2762,-7.888914E-05,19.143,0
1.2771,0.0003185779,19.1565,0,1.2771,-0.0001779202,19.1565,0
1.278,0.0002373388,19.17,0,1.278,-0.0002511025,19.17,0
1.2789,0.0001332723,19.1835,0,1.2789,-0.0002413672,19.1835,0
1.2798,0.000109102,19.197,0,1.2798,-0.0001990692,19.197,0
1.2807,4.162661E-05,19.2105,0,1.2807,-0.0001715419,19.2105,0
1.2816,-4.061952E-05,19.224,0,1.2816,-4.867628E-05,19.224,0
1.2825,-4.867628E-05,19.2375,0,1.2825,9.600977E-05,19.2375,0
1.2834,-5.438316E-05,19.251,0,1.2834,0.0002155184,19.251,0
1.2843,-3.021286E-06,19.2645,0,1.2843,6.78111E-05,19.2645,0
1.2852,-0.0001104448,19.278,0,1.2852,-0.000207126,19.278,0
1.2861,-0.0002383459,19.2915,0,1.2861,-0.0002279393,19.2915,0
1.287,-8.795301E-05,19.305,0,1.287,-0.0002077974,19.305,0
1.2879,5.337606E-05,19.3185,0,1.2879,3.356985E-06,19.3185,0
1.2888,-3.524834E-05,19.332,0,1.2888,0.0003259632,19.332,0
1.2897,-2.450599E-05,19.3455,0,1.2897,0.0002440528,19.3455,0
1.2906,8.157473E-05,19.359,0,1.2906,7.351797E-05,19.359,0
1.2915,7.049668E-06,19.3725,0,1.2915,-7.016098E-05,19.3725,0
1.2924,-3.692683E-05,19.386,0,1.2924,-0.0001742275,19.386,0
1.2933,2.853437E-05,19.3995,0,1.2933,-0.000186984,19.3995,0
1.2942,2.349889E-06,19.413,0,1.2942,-5.169757E-05,19.413,0
1.2951,-4.49836E-05,19.4265,0,1.2951,0.0001665064,19.4265,0
1.296,-2.853437E-05,19.44,0,1.296,0.0002185397,19.44,0
1.2969,-3.927672E-05,19.4535,0,1.2969,0.0002356603,19.4535,0
1.2978,-6.948959E-05,19.467,0,1.2978,0.0002104829,19.467,0
1.2987,-7.351797E-05,19.4805,0,1.2987,-1.107805E-05,19.4805,0
1.2996,-5.606165E-05,19.494,0,1.2996,6.814679E-05,19.494,0
1.3005,-5.337606E-05,19.5075,0,1.3005,5.203327E-05,19.5075,0
1.3014,3.121996E-05,19.521,0,1.3014,0.0001094377,19.521,0
1.3023,-0.0001211871,19.5345,0,1.3023,-4.733349E-05,19.5345,0
1.3032,-0.0001379721,19.548,0,1.3032,-0.0001104448,19.548,0
1.3041,-5.539025E-05,19.5615,0,1.3041,-0.0001185016,19.5615,0
1.305,-9.298848E-05,19.575,0,1.305,-7.016098E-05,19.575,0
1.3059,1.443504E-05,19.5885,0,1.3059,-0.0001319295,19.5885,0
1.3068,4.263371E-05,19.602,0,1.3068,-0.0002145113,19.602,0
1.3077,0.0001285725,19.6155,0,1.3077,-0.0001510643,19.6155,0
1.3086,0.0001279011,19.629,0,1.3086,-0.0001500572,19.629,0
1.3095,5.807584E-05,19.6425,0,1.3095,-0.000154757,19.6425,0
1.3104,4.599069E-05,19.656,0,1.3104,-0.0001054093,19.656,0
1.3113,0.0001594568,19.6695,0,1.3113,0.0001554284,19.6695,0
1.3122,7.351797E-05,19.683,0,1.3122,0.0005152972,19.683,0
1.3131,-0.0001232013,19.6965,0,1.3131,0.0002997787,19.6965,0
1.314,-8.661021E-05,19.71,0,1.314,9.265278E-05,19.71,0
1.3149,-5.975433E-05,19.7235,0,1.3149,1.644922E-05,19.7235,0
1.3158,-9.802396E-05,19.737,0,1.3158,-2.920577E-05,19.737,0
1.3167,-0.0001141375,19.7505,0,1.3167,-2.047761E-05,19.7505,0
1.3176,-2.652018E-05,19.764,0,1.3176,2.383459E-05,19.764,0
1.3185,-0.0001487144,19.7775,0,1.3185,8.560311E-05,19.7775,0
1.3194,-0.0001557641,19.791,0,1.3194,-3.793393E-05,19.791,0
1.3203,-7.016098E-05,19.8045,0,1.3203,-0.0001550927,19.8045,0
1.3212,-0.0001560998,19.818,0,1.3212,-0.0002333104,19.818,0
1.3221,-0.0001080949,19.8315,0,1.3221,-0.0002762798,19.8315,0
1.323,-4.129091E-05,19.845,0,1.323,-0.0002467384,19.845,0
1.3239,-1.678492E-06,19.8585,0,1.3239,-9.903105E-05,19.8585,0
1.3248,9.835965E-05,19.872,0,1.3248,4.36408E-06,19.872,0
1.3257,0.0001285725,19.8855,0,1.3257,-9.164568E-05,19.8855,0
1.3266,-2.014191E-06,19.899,0,1.3266,9.835965E-05,19.899,0
1.3275,-3.591974E-05,19.9125,0,1.3275,9.164568E-05,19.9125,0
1.3284,-2.920577E-05,19.926,0,1.3284,-7.284657E-05,19.926,0
1.3293,-7.821774E-05,19.9395,0,1.3293,-0.0003353628,19.9395,0
1.3302,-2.517739E-05,19.953,0,1.3302,-0.0003568475,19.953,0
1.3311,0.0001413291,19.9665,0,1.3311,-0.0003152209,19.9665,0
1.332,0.0001430075,19.98,0,1.332,-0.000274937,19.98,0
1.3329,0.0001943694,19.9935,0,1.3329,-0.0001507286,19.9935,0
1.3338,0.0001889983,20.007,0,1.3338,0.0001238727,20.007,0
1.3347,7.217517E-05,20.0205,0,1.3347,0.0003017929,20.0205,0
1.3356,-0.0001282368,20.034,0,1.3356,8.69459E-05,20.034,0
1.3365,-0.000193698,20.0475,0,1.3365,5.102617E-05,20.0475,0
1.3374,-4.229801E-05,20.061,0,1.3374,4.800488E-05,20.061,0
1.3383,7.653925E-05,20.0745,0,1.3383,0,20.0745,0
1.3392,0.0001174945,20.088,0,1.3392,4.699779E-06,20.088,0
1.3401,0.0001923552,20.1015,0,1.3401,8.258183E-05,20.1015,0
1.341,0.0002118257,20.115,0,1.341,-7.721065E-06,20.115,0
1.3419,0.0001705348,20.1285,0,1.3419,-4.666209E-05,20.1285,0
1.3428,9.634547E-05,20.142,0,1.3428,9.030289E-05,20.142,0
1.3437,0.0001701991,20.1555,0,1.3437,8.86244E-05,20.1555,0
1.3446,0.0003299916,20.169,0,1.3446,3.793393E-05,20.169,0
1.3455,0.0002628519,20.1825,0,1.3455,1.846342E-05,20.1825,0
1.3464,0.0002601663,20.196,0,1.3464,1.644922E-05,20.196,0
1.3473,0.0003266346,20.2095,0,1.3473,5.639734E-05,20.2095,0
1.3482,0.0002396887,20.223,0,1.3482,0.0001013809,20.223,0
1.3491,2.786297E-05,20.2365,0,1.3491,0.0001312581,20.2365,0
1.35,5.035477E-06,20.25,0,1.35,-1.510643E-05,20.25,0
1.3509,-1.443504E-05,20.2635,0,1.3509,-0.0001671778,20.2635,0
1.3518,0.0001007095,20.277,0,1.3518,-0.0003471122,20.277,0
1.3527,7.620356E-05,20.2905,0,1.3527,-0.0002111543,20.2905,0
1.3536,-0.0001520714,20.304,0,1.3536,-0.0002185397,20.304,0
1.3545,-9.332418E-05,20.3175,0,1.3545,-0.0002353246,20.3175,0
1.3554,-4.095522E-05,20.331,0,1.3554,-0.0001809415,20.331,0
1.3563,-0.0001910124,20.3445,0,1.3563,3.726253E-05,20.3445,0
1.3572,-0.000189334,20.358,0,1.3572,0.0001255512,20.358,0
1.3581,-8.056764E-05,20.3715,0,1.3581,0.0001349508,20.3715,0
1.359,-0.0001305867,20.385,0,1.359,0.0003702754,20.385,0
1.3599,-0.0001943694,20.3985,0,1.3599,0.0003085069,20.3985,0
1.3608,-0.0001238727,20.412,0,1.3608,0.0002222324,20.412,0
1.3617,-0.0001601282,20.4255,0,1.3617,0.0001621424,20.4255,0
1.3626,-0.0002131685,20.439,0,1.3626,0.0001349508,20.439,0
1.3635,-0.0003296559,20.4525,0,1.3635,0.0001577783,20.4525,0
1.3644,-0.0003034714,20.466,0,1.3644,-5.706874E-06,20.466,0
1.3653,-0.0002970932,20.4795,0,1.3653,-8.426032E-05,20.4795,0
1.3662,-0.000390753,20.493,0,1.3662,-3.256275E-05,20.493,0
1.3671,-0.0003773251,20.5065,0,1.3671,-1.779202E-05,20.5065,0
1.368,-0.0002151827,20.52,0,1.368,-6.64683E-05,20.52,0
1.3689,8.89601E-05,20.5335,0,1.3689,-0.0001211871,20.5335,0
1.3698,0.0001671778,20.547,0,1.3698,-0.0001668421,20.547,0
1.3707,-7.989624E-05,20.5605,0,1.3707,-0.0001510643,20.5605,0
1.3716,-2.719158E-05,20.574,0,1.3716,-0.0001795987,20.574,0
1.3725,9.500267E-05,20.5875,0,1.3725,-0.000115816,20.5875,0
1.3734,0.0002084688,20.601,0,1.3734,-4.699779E-05,20.601,0
1.3743,0.0002225681,20.6145,0,1.3743,-5.807584E-05,20.6145,0
1.3752,0.0002225681,20.628,0,1.3752,2.047761E-05,20.628,0
1.3761,0.0001654994,20.6415,0,1.3761,-1.879912E-05,20.6415,0
1.377,0.0001000381,20.655,0,1.377,-4.968337E-05,20.655,0
1.3779,5.069047E-05,20.6685,0,1.3779,-5.404745E-05,20.6685,0
1.3788,1.913481E-05,20.682,0,1.3788,-2.551309E-05,20.682,0
1.3797,-9.097429E-05,20.6955,0,1.3797,-1.141375E-05,20.6955,0
1.3806,-0.0001007095,20.709,0,1.3806,1.174945E-05,20.709,0
1.3815,-2.584878E-05,20.7225,0,1.3815,3.726253E-05,20.7225,0
1.3824,-6.042573E-05,20.736,0,1.3824,1.577783E-05,20.736,0
1.3833,-8.493171E-05,20.7495,0,1.3833,6.74754E-05,20.7495,0
1.3842,-7.956054E-05,20.763,0,1.3842,3.726253E-05,20.763,0
1.3851,-3.323415E-05,20.7765,0,1.3851,-3.927672E-05,20.7765,0
1.386,-9.768826E-05,20.79,0,1.386,2.484169E-05,20.79,0
1.3869,-4.666209E-05,20.8035,0,1.3869,0.0001104448,20.8035,0
1.3878,3.356985E-07,20.817,0,1.3878,-5.639734E-05,20.817,0
1.3887,-9.768826E-05,20.8305,0,1.3887,-6.009003E-05,20.8305,0
1.3896,-9.500267E-05,20.844,0,1.3896,5.337606E-05,20.844,0
1.3905,-2.450599E-05,20.8575,0,1.3905,-4.095522E-05,20.8575,0
1.3914,-9.332418E-05,20.871,0,1.3914,-0.0001373007,20.871,0
1.3923,-9.701686E-05,20.8845,0,1.3923,-0.0004823987,20.8845,0
1.3932,-6.881819E-05,20.898,0,1.3932,-0.0004394293,20.898,0
1.3941,-7.821774E-05,20.9115,0,1.3941,-0.0003632258,20.9115,0
1.395,-5.706874E-05,20.925,0,1.395,-0.0006428626,20.925,0
1.3959,-4.666209E-05,20.9385,0,1.3959,-0.0006096284,20.9385,0
1.3968,-0.0001151446,20.952,0,1.3968,6.042573E-06,20.952,0
1.3977,-5.941863E-05,20.9655,0,1.3977,0.0002568093,20.9655,0
1.3986,4.263371E-05,20.979,0,1.3986,0.0001742275,20.979,0
1.3995,6.378271E-06,20.9925,0,1.3995,0.0004495003,20.9925,0
1.4004,-4.263371E-05,21.006,0,1.4004,0.0005663233,21.006,0
1.4013,4.968337E-05,21.0195,0,1.4013,0.000562295,21.0195,0
1.4022,3.021286E-05,21.033,0,1.4022,0.0005273823,21.033,0
1.4031,-8.023193E-05,21.0465,0,1.4031,0.0004058595,21.0465,0
1.404,-5.706874E-06,21.06,0,1.404,0.0002453956,21.06,0
1.4049,7.855344E-05,21.0735,0,1.4049,0.0002051118,21.0735,0
1.4058,9.903105E-05,21.087,0,1.4058,0.000130251,21.087,0
1.4067,0.0001037308,21.1005,0,1.4067,6.814679E-05,21.1005,0
1.4076,1.443504E-05,21.114,0,1.4076,2.014191E-05,21.114,0
1.4085,-2.316319E-05,21.1275,0,1.4085,-2.719158E-05,21.1275,0
1.4094,3.021286E-05,21.141,0,1.4094,-3.121996E-05,21.141,0
1.4103,-2.685588E-06,21.1545,0,1.4103,4.53193E-05,21.1545,0
1.4112,2.24918E-05,21.168,0,1.4112,-1.275654E-05,21.168,0
1.4121,0.0001910124,21.1815,0,1.4121,5.035477E-06,21.1815,0
1.413,0.0001413291,21.195,0,1.413,-8.056763E-06,21.195,0
1.4139,7.016098E-05,21.2085,0,1.4139,-0.0001879911,21.2085,0
1.4148,4.263371E-05,21.222,0,1.4148,-0.0002477455,21.222,0
1.4157,2.1149E-05,21.2355,0,1.4157,-0.0001033951,21.2355,0
1.4166,-3.256275E-05,21.249,0,1.4166,-5.505455E-05,21.249,0
1.4175,-4.666209E-05,21.2625,0,1.4175,-4.33051E-05,21.2625,0
1.4184,-4.36408E-05,21.276,0,1.4184,-0.0001037308,21.276,0
1.4193,-1.309224E-05,21.2895,0,1.4193,-0.000112459,21.2895,0
1.4202,7.721065E-06,21.303,0,1.4202,-5.572595E-05,21.303,0
1.4211,4.733349E-05,21.3165,0,1.4211,-2.887007E-05,21.3165,0
1.422,9.903105E-05,21.33,0,1.422,-8.090334E-05,21.33,0
1.4229,1.846342E-05,21.3435,0,1.4229,-8.358892E-05,21.3435,0
1.4238,-0.0001386435,21.357,0,1.4238,-5.471885E-05,21.357,0
1.4247,-0.0002158541,21.3705,0,1.4247,-7.284657E-05,21.3705,0
1.4256,-0.0002477455,21.384,0,1.4256,-9.936675E-05,21.384,0
1.4265,-0.0003320058,21.3975,0,1.4265,-0.0001312581,21.3975,0
1.4274,-0.0002732586,21.411,0,1.4274,-0.0001299153,21.411,0
1.4283,-0.0002124971,21.4245,0,1.4283,-0.0001527428,21.4245,0
1.4292,-0.0002124971,21.438,0,1.4292,-6.982528E-05,21.438,0
1.4301,-2.417029E-05,21.4515,0,1.4301,-3.021286E-06,21.4515,0
1.431,0.0002500954,21.465,0,1.431,-4.766919E-05,21.465,0
1.4319,0.0001668421,21.4785,0,1.4319,-9.634547E-05,21.4785,0
1.4328,0.0001279011,21.492,0,1.4328,-0.000115816,21.492,0
1.4337,0.000312871,21.5055,0,1.4337,-9.365987E-05,21.5055,0
1.4346,0.0002890364,21.519,0,1.4346,-5.371176E-05,21.519,0
1.4355,5.941863E-05,21.5325,0,1.4355,-8.358892E-05,21.5325,0
1.4364,6.176852E-05,21.546,0,1.4364,-0.0001272297,21.546,0
1.4373,0.0001413291,21.5595,0,1.4373,-0.0002017548,21.5595,0
1.4382,0.0001265583,21.573,0,1.4382,-0.0002732586,21.573,0
1.4391,0.0001366293,21.5865,0,1.4391,-0.0002645304,21.5865,0
1.44,0.0001463645,21.6,0,1.44,-0.0001584497,21.6,0
1.4409,0.0001312581,21.6135,0,1.4409,-9.701686E-05,21.6135,0
1.4418,0.0001299153,21.627,0,1.4418,0.0001470359,21.627,0
1.4427,0.0001299153,21.6405,0,1.4427,0.0002618448,21.6405,0
1.4436,-7.049668E-06,21.654,0,1.4436,0.0001238727,21.654,0
1.4445,-3.189136E-05,21.6675,0,1.4445,3.189136E-05,21.6675,0
1.4454,-7.385367E-06,21.681,0,1.4454,7.721065E-06,21.681,0
1.4463,7.586786E-05,21.6945,0,1.4463,-2.1149E-05,21.6945,0
1.4472,5.001907E-05,21.708,0,1.4472,-2.047761E-05,21.708,0
1.4481,2.1149E-05,21.7215,0,1.4481,-2.081331E-05,21.7215,0
1.449,-8.728161E-06,21.735,0,1.449,-4.733349E-05,21.735,0
1.4499,5.471885E-05,21.7485,0,1.4499,-4.061952E-05,21.7485,0
1.4508,7.586786E-05,21.762,0,1.4508,-1.544213E-05,21.762,0
1.4517,6.6804E-05,21.7755,0,1.4517,-1.376364E-05,21.7755,0
1.4526,0.0001007095,21.789,0,1.4526,-5.136187E-05,21.789,0
1.4535,3.793393E-05,21.8025,0,1.4535,-2.719158E-05,21.8025,0
1.4544,8.89601E-05,21.816,0,1.4544,-2.18204E-05,21.816,0
1.4553,3.390555E-05,21.8295,0,1.4553,-0.0001242084,21.8295,0
1.4562,-0.000102388,21.843,0,1.4562,-0.0001678492,21.843,0
1.4571,-0.0001618067,21.8565,0,1.4571,-0.0001853056,21.8565,0
1.458,-0.0001198444,21.87,0,1.458,-0.0002474098,21.87,0
1.4589,-3.558404E-05,21.8835,0,1.4589,-0.000144686,21.8835,0
1.4598,-2.24918E-05,21.897,0,1.4598,-0.0001735561,21.897,0
1.4607,-0.0001265583,21.9105,0,1.4607,-7.016098E-05,21.9105,0
1.4616,-7.888914E-05,21.924,0,1.4616,0.0001819486,21.924,0
1.4625,-3.927672E-05,21.9375,0,1.4625,3.121996E-05,21.9375,0
1.4634,-2.1149E-05,21.951,0,1.4634,7.553216E-05,21.951,0
1.4643,-0.000197055,21.9645,0,1.4643,9.365987E-05,21.9645,0
1.4652,-0.0001789273,21.978,0,1.4652,7.486076E-05,21.978,0
1.4661,-7.687495E-05,21.9915,0,1.4661,5.069047E-05,21.9915,0
1.467,-0.0001685206,22.005,0,1.467,7.385367E-05,22.005,0
1.4679,-0.0001292439,22.0185,0,1.4679,6.344701E-05,22.0185,0
1.4688,3.121996E-05,22.032,0,1.4688,2.18204E-05,22.032,0
1.4697,0.0001524071,22.0455,0,1.4697,1.510643E-05,22.0455,0
1.4706,1.275654E-05,22.059,0,1.4706,1.678492E-06,22.059,0
1.4715,-1.812772E-05,22.0725,0,1.4715,4.699779E-06,22.0725,0
1.4724,4.196231E-05,22.086,0,1.4724,1.510643E-05,22.086,0
1.4733,6.143282E-05,22.0995,0,1.4733,3.189136E-05,22.0995,0
1.4742,1.242084E-05,22.113,0,1.4742,6.713969E-06,22.113,0
1.4751,-0.0001534142,22.1265,0,1.4751,-7.016098E-05,22.1265,0
1.476,-8.627451E-05,22.14,0,1.476,-2.551309E-05,22.14,0
1.4769,6.210422E-05,22.1535,0,1.4769,8.224613E-05,22.1535,0
1.4778,-7.385367E-06,22.167,0,1.4778,0.0002286107,22.167,0
1.4787,-4.733349E-05,22.1805,0,1.4787,0.0002960861,22.1805,0
1.4796,5.740444E-05,22.194,0,1.4796,0.000164828,22.194,0
1.4805,3.356985E-07,22.2075,0,1.4805,0.000133608,22.2075,0
1.4814,-5.035477E-05,22.221,0,1.4814,0.0001211871,22.221,0
1.4823,6.848249E-05,22.2345,0,1.4823,0.000105745,22.2345,0
1.4832,0.0001430075,22.248,0,1.4832,9.500267E-05,22.248,0
1.4841,-0.0001362936,22.2615,0,1.4841,6.814679E-05,22.2615,0
1.485,-0.0002155184,22.275,0,1.485,-6.814679E-05,22.275,0
1.4859,-0.0001366293,22.2885,0,1.4859,-0.0001510643,22.2885,0
1.4868,-0.0001064164,22.302,0,1.4868,-0.0002474098,22.302,0
1.4877,-0.0001433432,22.3155,0,1.4877,-0.0002840009,22.3155,0
1.4886,1.342794E-06,22.329,0,1.4886,-0.0002138399,22.329,0
1.4895,0.0002594949,22.3425,0,1.4895,-0.0001607996,22.3425,0
1.4904,0.0002897078,22.356,0,1.4904,2.316319E-05,22.356,0
1.4913,4.800488E-05,22.3695,0,1.4913,0.0004092164,22.3695,0
1.4922,-3.457694E-05,22.383,0,1.4922,0.0005045548,22.383,0
1.4931,-1.376364E-05,22.3965,0,1.4931,0.0002225681,22.3965,0
1.494,-0.0001544213,22.41,0,1.494,9.097429E-05,22.41,0
1.4949,-0.0001027237,22.4235,0,1.4949,9.298848E-05,22.4235,0
1.4958,-4.800488E-05,22.437,0,1.4958,1.040665E-05,22.437,0
1.4967,-0.0001450217,22.4505,0,1.4967,-3.457694E-05,22.4505,0
1.4976,-0.0001631495,22.464,0,1.4976,2.987716E-05,22.464,0
1.4985,3.189136E-05,22.4775,0,1.4985,-2.618448E-05,22.4775,0
1.4994,0.000140322,22.491,0,1.4994,-6.176852E-05,22.491,0
1.5003,6.176852E-05,22.5045,0,1.5003,-7.418937E-05,22.5045,0
1.5012,-8.795301E-05,22.518,0,1.5012,-7.016098E-05,22.518,0
1.5021,-0.000112459,22.5315,0,1.5021,-4.229801E-05,22.5315,0
1.503,2.1149E-05,22.545,0,1.503,-8.459602E-05,22.545,0
1.5039,7.687495E-05,22.5585,0,1.5039,-0.0001560998,22.5585,0
1.5048,-5.841154E-05,22.572,0,1.5048,-0.0001282368,22.572,0
1.5057,8.258183E-05,22.5855,0,1.5057,-0.0001305867,22.5855,0
1.5066,0.0003474479,22.599,0,1.5066,-0.0001279011,22.599,0
1.5075,0.0001164874,22.6125,0,1.5075,-0.0001104448,22.6125,0
1.5084,-0.0001084306,22.626,0,1.5084,-0.0001554284,22.626,0
1.5093,3.793393E-05,22.6395,0,1.5093,-0.0001292439,22.6395,0
1.5102,0.0001728847,22.653,0,1.5102,-8.123904E-05,22.653,0
1.5111,0.0001205158,22.6665,0,1.5111,-4.867628E-05,22.6665,0
1.512,0.0001695277,22.68,0,1.512,-6.411841E-05,22.68,0
1.5129,9.097429E-05,22.6935,0,1.5129,-8.224613E-05,22.6935,0
1.5138,8.090334E-05,22.707,0,1.5138,-0.0001077592,22.707,0
1.5147,-5.203327E-05,22.7205,0,1.5147,-7.754635E-05,22.7205,0
1.5156,-0.0002870222,22.734,0,1.5156,-0.0001040665,22.734,0
1.5165,-0.0003098497,22.7475,0,1.5165,-0.0001198444,22.7475,0
1.5174,-0.000193698,22.761,0,1.5174,-9.668116E-05,22.761,0
1.5183,-0.0001601282,22.7745,0,1.5183,-2.517739E-05,22.7745,0
1.5192,-5.572595E-05,22.788,0,1.5192,-4.867628E-05,22.788,0
1.5201,0.0001517357,22.8015,0,1.5201,-0.0001329366,22.8015,0
1.521,9.097429E-05,22.815,0,1.521,-8.560311E-05,22.815,0
1.5219,-8.392462E-06,22.8285,0,1.5219,-6.478981E-05,22.8285,0
1.5228,-2.316319E-05,22.842,0,1.5228,-0.0001064164,22.842,0
1.5237,-8.291753E-05,22.8555,0,1.5237,-5.270466E-05,22.8555,0
1.5246,-0.0001433432,22.869,0,1.5246,9.063859E-06,22.869,0
1.5255,-0.0001423362,22.8825,0,1.5255,-4.129091E-05,22.8825,0
1.5264,-0.000109102,22.896,0,1.5264,-4.028382E-05,22.896,0
1.5273,-2.719158E-05,22.9095,0,1.5273,-3.424125E-05,22.9095,0
1.5282,2.349889E-05,22.923,0,1.5282,-7.049668E-06,22.923,0
1.5291,-6.713969E-07,22.9365,0,1.5291,1.980621E-05,22.9365,0
1.53,0.0001359579,22.95,0,1.53,2.618448E-05,22.95,0
1.5309,6.6804E-05,22.9635,0,1.5309,4.834058E-05,22.9635,0
1.5318,-7.821774E-05,22.977,0,1.5318,8.258183E-05,22.977,0
1.5327,-5.706874E-05,22.9905,0,1.5327,8.560311E-05,22.9905,0
1.5336,-1.242084E-05,23.004,0,1.5336,5.438316E-05,23.004,0
1.5345,-0.0001309224,23.0175,0,1.5345,0.0001054093,23.0175,0
1.5354,-0.0001044022,23.031,0,1.5354,0.0001077592,23.031,0
1.5363,-8.224613E-05,23.0445,0,1.5363,3.659113E-05,23.0445,0
1.5372,-0.0001362936,23.058,0,1.5372,-4.36408E-06,23.058,0
1.5381,-0.000161471,23.0715,0,1.5381,1.107805E-05,23.0715,0
1.539,-0.0001983978,23.085,0,1.539,-2.047761E-05,23.085,0
1.5399,-0.0001654994,23.0985,0,1.5399,1.846342E-05,23.0985,0
1.5408,-4.733349E-05,23.112,0,1.5408,-1.913481E-05,23.112,0
1.5417,-5.706874E-06,23.1255,0,1.5417,-0.0001537499,23.1255,0
1.5426,-9.298848E-05,23.139,0,1.5426,-0.0001171588,23.139,0
1.5435,-0.0001040665,23.1525,0,1.5435,-0.0001769131,23.1525,0
1.5444,-2.316319E-05,23.166,0,1.5444,-0.0002339818,23.166,0
1.5453,-8.761731E-05,23.1795,0,1.5453,-0.0002017548,23.1795,0
1.5462,2.652018E-05,23.193,0,1.5462,-0.0001299153,23.193,0
1.5471,0.0001252155,23.2065,0,1.5471,-0.0001225299,23.2065,0
1.548,3.356985E-06,23.22,0,1.548,0.0001044022,23.22,0
1.5489,0.0001003738,23.2335,0,1.5489,8.761731E-05,23.2335,0
1.5498,0.000274937,23.247,0,1.5498,9.970245E-05,23.247,0
1.5507,0.0001930266,23.2605,0,1.5507,0.0002007477,23.2605,0
1.5516,1.846342E-05,23.274,0,1.5516,0.0001685206,23.274,0
1.5525,-6.713969E-07,23.2875,0,1.5525,0.0001312581,23.2875,0
1.5534,9.231708E-05,23.301,0,1.5534,8.123904E-05,23.301,0
1.5543,0.0001084306,23.3145,0,1.5543,7.721065E-06,23.3145,0
1.5552,0.0001426719,23.328,0,1.5552,-6.243992E-05,23.328,0
1.5561,0.0001258869,23.3415,0,1.5561,-0.0001117876,23.3415,0
1.557,7.016098E-05,23.355,0,1.557,-0.0001621424,23.355,0
1.5579,0.0001483787,23.3685,0,1.5579,-0.0001373007,23.3685,0
1.5588,9.970245E-05,23.382,0,1.5588,6.881819E-05,23.382,0
1.5597,3.424125E-05,23.3955,0,1.5597,0.0002124971,23.3955,0
1.5606,0.0001312581,23.409,0,1.5606,0.000330663,23.409,0
1.5615,4.263371E-05,23.4225,0,1.5615,0.0002205539,23.4225,0
1.5624,4.733349E-05,23.436,0,1.5624,0.0002222324,23.436,0
1.5633,0.0001111162,23.4495,0,1.5633,0.000190341,23.4495,0
1.5642,5.203327E-05,23.463,0,1.5642,-2.047761E-05,23.463,0
1.5651,-3.793393E-05,23.4765,0,1.5651,-9.164568E-05,23.4765,0
1.566,-2.584878E-05,23.49,0,1.566,-6.881819E-05,23.49,0
1.5669,1.846342E-05,23.5035,0,1.5669,-0.0001641566,23.5035,0
1.5678,6.042573E-06,23.517,0,1.5678,-0.0003343557,23.517,0
1.5687,-9.869535E-05,23.5305,0,1.5687,-0.0002984359,23.5305,0
1.5696,-0.0001077592,23.544,0,1.5696,-0.0001121233,23.544,0
1.5705,-8.761731E-05,23.5575,0,1.5705,-0.0001671778,23.5575,0
1.5714,-0.000189334,23.571,0,1.5714,9.399558E-06,23.571,0
1.5723,-0.0003252918,23.5845,0,1.5723,0.0001232013,23.5845,0
1.5732,-0.0002776226,23.598,0,1.5732,-5.001907E-05,23.598,0
1.5741,-0.000154757,23.6115,0,1.5741,-3.088426E-05,23.6115,0
1.575,-1.007095E-05,23.625,0,1.575,0.000112459,23.625,0
1.5759,0.0004625925,23.6385,0,1.5759,0.0001856413,23.6385,0
1.5768,0.0006838178,23.652,0,1.5768,0.000158114,23.652,0
1.5777,0.0003165637,23.6655,0,1.5777,9.903105E-05,23.6655,0
1.5786,0.0001054093,23.679,0,1.5786,0.0001977264,23.679,0
1.5795,8.426032E-05,23.6925,0,1.5795,0.0002017548,23.6925,0
1.5804,2.316319E-05,23.706,0,1.5804,5.774014E-05,23.706,0
1.5813,2.316319E-05,23.7195,0,1.5813,-2.18204E-05,23.7195,0
1.5822,-9.735256E-06,23.733,0,1.5822,-3.759823E-05,23.733,0
1.5831,-0.0001584497,23.7465,0,1.5831,-5.673304E-05,23.7465,0
1.584,-7.049668E-05,23.76,0,1.584,-0.0001211871,23.76,0
1.5849,-1.443504E-05,23.7735,0,1.5849,-0.0001554284,23.7735,0
1.5858,-0.0001601282,23.787,0,1.5858,-0.0001185016,23.787,0
1.5867,-0.0001399863,23.8005,0,1.5867,-0.0001070878,23.8005,0
1.5876,2.652018E-05,23.814,0,1.5876,-0.000133608,23.814,0
1.5885,-1.712062E-05,23.8275,0,1.5885,-0.0001107805,23.8275,0
1.5894,5.471885E-05,23.841,0,1.5894,-0.0001174945,23.841,0
1.5903,9.030289E-05,23.8545,0,1.5903,-0.0001540856,23.8545,0
1.5912,-5.102617E-05,23.868,0,1.5912,-0.0001530785,23.868,0
1.5921,-0.0001856413,23.8815,0,1.5921,-0.0001104448,23.8815,0
1.593,-0.0001070878,23.895,0,1.593,-9.903105E-05,23.895,0
1.5939,-2.517739E-05,23.9085,0,1.5939,-7.687495E-05,23.9085,0
1.5948,-1.913481E-05,23.922,0,1.5948,-6.915389E-05,23.922,0
1.5957,-5.035477E-05,23.9355,0,1.5957,-1.376364E-05,23.9355,0
1.5966,-0.0001121233,23.949,0,1.5966,5.706874E-06,23.949,0
1.5975,-0.0001148089,23.9625,0,1.5975,-1.913481E-05,23.9625,0
1.5984,-0.0001299153,23.976,0,1.5984,-5.706874E-06,23.976,0
1.5993,-0.000158114,23.9895,0,1.5993,3.054856E-05,23.9895,0
1.6002,-8.023193E-05,24.003,0,1.6002,2.014191E-05,24.003,0
1.6011,1.242084E-05,24.0165,0,1.6011,-2.21561E-05,24.0165,0
1.602,-7.385367E-05,24.03,0,1.602,3.591974E-05,24.03,0
1.6029,3.457694E-05,24.0435,0,1.6029,1.544213E-05,24.0435,0
1.6038,7.183947E-05,24.057,0,1.6038,-6.210422E-05,24.057,0
1.6047,0.0002178683,24.0705,0,1.6047,-2.047761E-05,24.0705,0
1.6056,0.0003501335,24.084,0,1.6056,-1.007095E-05,24.084,0
1.6065,0.0002897078,24.0975,0,1.6065,-4.46479E-05,24.0975,0
1.6074,4.229801E-05,24.111,0,1.6074,-5.438316E-05,24.111,0
1.6083,-6.378271E-06,24.1245,0,1.6083,-6.881819E-05,24.1245,0
1.6092,-6.143282E-05,24.138,0,1.6092,-3.591974E-05,24.138,0
1.6101,-0.0001366293,24.1515,0,1.6101,-1.510643E-05,24.1515,0
1.611,-6.881819E-05,24.165,0,1.611,-3.524834E-05,24.165,0
1.6119,-7.687495E-05,24.1785,0,1.6119,-3.793393E-05,24.1785,0
1.6128,-0.0001373007,24.192,0,1.6128,2.1149E-05,24.192,0
1.6137,-9.668116E-05,24.2055,0,1.6137,1.007095E-05,24.2055,0
1.6146,2.584878E-05,24.219,0,1.6146,-1.141375E-05,24.219,0
1.6155,-6.478981E-05,24.2325,0,1.6155,1.007095E-05,24.2325,0
1.6164,-9.802396E-05,24.246,0,1.6164,-1.107805E-05,24.246,0
1.6173,-5.035477E-06,24.2595,0,1.6173,-5.639734E-05,24.2595,0
1.6182,-3.994812E-05,24.273,0,1.6182,-3.894102E-05,24.273,0
1.6191,-0.0001305867,24.2865,0,1.6191,-1.309224E-05,24.2865,0
1.62,-5.941863E-05,24.3,0,1.62,-7.318227E-05,24.3,0
1.6209,-8.89601E-05,24.3135,0,1.6209,-0.0001232013,24.3135,0
1.6218,-2.652018E-05,24.327,0,1.6218,-0.0001211871,24.327,0
1.6227,-2.047761E-05,24.3405,0,1.6227,2.349889E-06,24.3405,0
1.6236,-0.0001017166,24.354,0,1.6236,6.009003E-05,24.354,0
1.6245,-5.505455E-05,24.3675,0,1.6245,2.349889E-05,24.3675,0
1.6254,-8.392462E-06,24.381,0,1.6254,5.706874E-06,24.381,0
1.6263,-6.881819E-05,24.3945,0,1.6263,6.478981E-05,24.3945,0
1.6272,-8.627451E-05,24.408,0,1.6272,7.486076E-05,24.408,0
1.6281,2.450599E-05,24.4215,0,1.6281,1.309224E-05,24.4215,0
1.629,-8.392462E-06,24.435,0,1.629,1.040665E-05,24.435,0
1.6299,-0.000130251,24.4485,0,1.6299,-5.035477E-06,24.4485,0
1.6308,-4.39765E-05,24.462,0,1.6308,-4.095522E-05,24.462,0
1.6317,1.409934E-05,24.4755,0,1.6317,-3.256275E-05,24.4755,0
1.6326,-6.109713E-05,24.489,0,1.6326,7.721065E-06,24.489,0
1.6335,-3.121996E-05,24.5025,0,1.6335,3.356985E-07,24.5025,0
1.6344,2.014191E-06,24.516,0,1.6344,-3.860533E-05,24.516,0
1.6353,3.726253E-05,24.5295,0,1.6353,3.692683E-06,24.5295,0
1.6362,5.035477E-05,24.543,0,1.6362,3.088426E-05,24.543,0
1.6371,-1.678492E-05,24.5565,0,1.6371,-3.659113E-05,24.5565,0
1.638,3.054856E-05,24.57,0,1.638,-0.0001017166,24.57,0
1.6389,3.021286E-06,24.5835,0,1.6389,-0.000115816,24.5835,0
1.6398,-7.183947E-05,24.597,0,1.6398,-8.090334E-05,24.597,0
1.6407,-3.323415E-05,24.6105,0,1.6407,-6.61326E-05,24.6105,0
1.6416,2.014191E-06,24.624,0,1.6416,-1.812772E-05,24.624,0
1.6425,-9.097429E-05,24.6375,0,1.6425,3.726253E-05,24.6375,0
1.6434,-4.766919E-05,24.651,0,1.6434,-2.987716E-05,24.651,0
1.6443,-2.618448E-05,24.6645,0,1.6443,-0.0001275654,24.6645,0
1.6452,-5.706874E-06,24.678,0,1.6452,-0.0001467002,24.678,0
1.6461,-6.478981E-05,24.6915,0,1.6461,-0.0001013809,24.6915,0
1.647,-7.754635E-05,24.705,0,1.647,-9.533837E-05,24.705,0
1.6479,-3.256275E-05,24.7185,0,1.6479,-8.291753E-05,24.7185,0
1.6488,1.544213E-05,24.732,0,1.6488,-4.129091E-05,24.732,0
1.6497,1.510643E-05,24.7455,0,1.6497,3.826963E-05,24.7455,0
1.6506,-3.289845E-05,24.759,0,1.6506,5.404745E-05,24.759,0
1.6515,-9.735256E-06,24.7725,0,1.6515,1.141375E-05,24.7725,0
1.6524,3.659113E-05,24.786,0,1.6524,2.786297E-05,24.786,0
1.6533,-6.54612E-05,24.7995,0,1.6533,9.030289E-05,24.7995,0
1.6542,-8.392462E-06,24.813,0,1.6542,6.61326E-05,24.813,0
1.6551,0.0001245441,24.8265,0,1.6551,2.853437E-05,24.8265,0
1.656,-1.644922E-05,24.84,0,1.656,6.74754E-05,24.84,0
1.6569,-2.349889E-06,24.8535,0,1.6569,1.913481E-05,24.8535,0
1.6578,9.298848E-05,24.867,0,1.6578,-2.719158E-05,24.867,0
1.6587,-0.0001154803,24.8805,0,1.6587,-8.69459E-05,24.8805,0
1.6596,-0.0001295796,24.894,0,1.6596,-0.0001101091,24.894,0
1.6605,-4.53193E-05,24.9075,0,1.6605,-0.0001312581,24.9075,0
1.6614,2.349889E-06,24.921,0,1.6614,-9.567407E-05,24.921,0
1.6623,7.318227E-05,24.9345,0,1.6623,-7.351797E-05,24.9345,0
1.6632,7.620356E-05,24.948,0,1.6632,-4.39765E-05,24.948,0
1.6641,6.411841E-05,24.9615,0,1.6641,7.721065E-06,24.9615,0
1.665,-8.728161E-06,24.975,0,1.665,-2.349889E-06,24.975,0
1.6659,5.471885E-05,24.9885,0,1.6659,-3.323415E-05,24.9885,0
1.6668,5.874724E-05,25.002,0,1.6668,7.049668E-06,25.002,0
1.6677,1.007095E-05,25.0155,0,1.6677,-4.46479E-05,25.0155,0
1.6686,8.560311E-05,25.029,0,1.6686,-0.0001131304,25.029,0
1.6695,7.754635E-05,25.0425,0,1.6695,-6.51255E-05,25.0425,0
1.6704,0.0001346151,25.056,0,1.6704,-3.457694E-05,25.056,0
1.6713,0.0001775845,25.0695,0,1.6713,-0.000102388,25.0695,0
1.6722,9.063859E-05,25.083,0,1.6722,-8.69459E-05,25.083,0
1.6731,5.203327E-05,25.0965,0,1.6731,-2.417029E-05,25.0965,0
1.674,7.385367E-05,25.11,0,1.674,1.242084E-05,25.11,0
1.6749,0.0001097734,25.1235,0,1.6749,2.081331E-05,25.1235,0
1.6758,0.0001601282,25.137,0,1.6758,-2.081331E-05,25.137,0
1.6767,9.063859E-05,25.1505,0,1.6767,1.107805E-05,25.1505,0
1.6776,1.577783E-05,25.164,0,1.6776,3.088426E-05,25.164,0
1.6785,6.411841E-05,25.1775,0,1.6785,3.692683E-06,25.1775,0
1.6794,9.063859E-05,25.191,0,1.6794,9.063859E-06,25.191,0
1.6803,2.920577E-05,25.2045,0,1.6803,4.766919E-05,25.2045,0
1.6812,7.318227E-05,25.218,0,1.6812,2.517739E-05,25.218,0
1.6821,0.0001121233,25.2315,0,1.6821,1.678492E-06,25.2315,0
1.683,6.143282E-05,25.245,0,1.683,4.49836E-05,25.245,0
1.6839,8.358892E-05,25.2585,0,1.6839,2.853437E-05,25.2585,0
1.6848,0.0001299153,25.272,0,1.6848,-1.611353E-05,25.272,0
1.6857,4.36408E-06,25.2855,0,1.6857,3.021286E-06,25.2855,0
1.6866,-5.404745E-05,25.299,0,1.6866,6.54612E-05,25.299,0
1.6875,-2.18204E-05,25.3125,0,1.6875,3.659113E-05,25.3125,0
1.6884,-5.841154E-05,25.326,0,1.6884,-6.713969E-07,25.326,0
1.6893,-3.726253E-05,25.3395,0,1.6893,-4.934768E-05,25.3395,0
1.6902,-8.291753E-05,25.353,0,1.6902,-5.706874E-06,25.353,0
1.6911,-0.0001789273,25.3665,0,1.6911,4.129091E-05,25.3665,0
1.692,-0.0001218585,25.38,0,1.692,3.994812E-05,25.38,0
1.6929,-4.33051E-05,25.3935,0,1.6929,6.54612E-05,25.3935,0
1.6938,-0.00018262,25.407,0,1.6938,0.0001255512,25.407,0
1.6947,-0.0001487144,25.4205,0,1.6947,0.0001195087,25.4205,0
1.6956,9.735256E-06,25.434,0,1.6956,3.524834E-05,25.434,0
1.6965,-0.0001144732,25.4475,0,1.6965,5.404745E-05,25.4475,0
1.6974,-0.0001332723,25.461,0,1.6974,4.632639E-05,25.461,0
1.6983,-3.088426E-05,25.4745,0,1.6983,7.721065E-06,25.4745,0
1.6992,-9.701686E-05,25.488,0,1.6992,2.014191E-05,25.488,0
1.7001,-0.0001779202,25.5015,0,1.7001,1.040665E-05,25.5015,0
1.701,-0.0001315938,25.515,0,1.701,1.107805E-05,25.515,0
1.7019,-6.6804E-05,25.5285,0,1.7019,-2.383459E-05,25.5285,0
1.7028,-1.712062E-05,25.542,0,1.7028,-7.016098E-05,25.542,0
1.7037,2.853437E-05,25.5555,0,1.7037,-6.478981E-05,25.5555,0
1.7046,6.814679E-05,25.569,0,1.7046,-5.035477E-05,25.569,0
1.7055,6.344701E-05,25.5825,0,1.7055,-0.0001221943,25.5825,0
1.7064,7.049668E-05,25.596,0,1.7064,-0.0001493858,25.596,0
1.7073,4.39765E-05,25.6095,0,1.7073,-9.533837E-05,25.6095,0
1.7082,6.344701E-05,25.623,0,1.7082,-3.558404E-05,25.623,0
1.7091,0.0001017166,25.6365,0,1.7091,-3.692683E-05,25.6365,0
1.71,2.786297E-05,25.65,0,1.71,6.411841E-05,25.65,0
1.7109,-5.706874E-05,25.6635,0,1.7109,0.0001420005,25.6635,0
1.7118,-2.920577E-05,25.677,0,1.7118,0.0001151446,25.677,0
1.7127,8.023193E-05,25.6905,0,1.7127,7.821774E-05,25.6905,0
1.7136,-7.284657E-05,25.704,0,1.7136,7.016098E-05,25.704,0
1.7145,-4.733349E-05,25.7175,0,1.7145,2.719158E-05,25.7175,0
1.7154,6.713969E-06,25.731,0,1.7154,1.678492E-06,25.731,0
1.7163,-2.652018E-05,25.7445,0,1.7163,-4.46479E-05,25.7445,0
1.7172,-0.0001198444,25.758,0,1.7172,-4.599069E-05,25.758,0
1.7181,-7.821774E-05,25.7715,0,1.7181,-1.007095E-05,25.7715,0
1.719,6.277562E-05,25.785,0,1.719,-4.061952E-05,25.785,0
1.7199,0.0001379721,25.7985,0,1.7199,-5.572595E-05,25.7985,0
1.7208,3.524834E-05,25.812,0,1.7208,2.349889E-05,25.812,0
1.7217,9.231708E-05,25.8255,0,1.7217,1.913481E-05,25.8255,0
1.7226,0.0001832914,25.839,0,1.7226,-3.894102E-05,25.839,0
1.7235,5.874724E-05,25.8525,0,1.7235,9.735256E-06,25.8525,0
1.7244,1.309224E-05,25.866,0,1.7244,3.356985E-06,25.866,0
1.7253,1.745632E-05,25.8795,0,1.7253,-3.390555E-05,25.8795,0
1.7262,-2.618448E-05,25.893,0,1.7262,-3.524834E-05,25.893,0
1.7271,-0.0001305867,25.9065,0,1.7271,-1.644922E-05,25.9065,0
1.728,-0.0001164874,25.92,0,1.728,-9.231708E-05,25.92,0
1.7289,-0.0001765774,25.9335,0,1.7289,-0.000109102,25.9335,0
1.7298,-9.903105E-05,25.947,0,1.7298,-0.000115816,25.947,0
1.7307,-0.0001094377,25.9605,0,1.7307,-0.0001044022,25.9605,0
1.7316,-0.0001426719,25.974,0,1.7316,-0.0001279011,25.974,0
1.7325,-7.016098E-05,25.9875,0,1.7325,-0.0001641566,25.9875,0
1.7334,9.063859E-06,26.001,0,1.7334,-0.00018262,26.001,0
1.7343,-3.121996E-05,26.0145,0,1.7343,-0.0001332723,26.0145,0
1.7352,-9.063859E-06,26.028,0,1.7352,-0.0001597925,26.028,0
1.7361,0.0001067521,26.0415,0,1.7361,-0.0002155184,26.0415,0
1.737,2.652018E-05,26.055,0,1.737,-0.0001540856,26.055,0
1.7379,-1.712062E-05,26.0685,0,1.7379,-0.0001426719,26.0685,0
1.7388,0.0001420005,26.082,0,1.7388,-0.0001685206,26.082,0
1.7397,0.0001983978,26.0955,0,1.7397,-0.0001346151,26.0955,0
1.7406,0.0001161517,26.109,0,1.7406,-7.586786E-05,26.109,0
1.7415,0.0001540856,26.1225,0,1.7415,-6.814679E-05,26.1225,0
1.7424,0.0001534142,26.136,0,1.7424,-4.43122E-05,26.136,0
1.7433,0.0001738918,26.1495,0,1.7433,-6.076142E-05,26.1495,0
1.7442,0.0001141375,26.163,0,1.7442,-7.385367E-06,26.163,0
1.7451,-3.894102E-05,26.1765,0,1.7451,4.129091E-05,26.1765,0
1.746,-4.53193E-05,26.19,0,1.746,1.342794E-06,26.19,0
1.7469,-0.0001094377,26.2035,0,1.7469,-2.081331E-05,26.2035,0
1.7478,-0.0002168612,26.217,0,1.7478,5.337606E-05,26.217,0
1.7487,-0.0001644923,26.2305,0,1.7487,8.090334E-05,26.2305,0
1.7496,-7.956054E-05,26.244,0,1.7496,6.243992E-05,26.244,0
1.7505,-0.0001560998,26.2575,0,1.7505,0.000102388,26.2575,0
1.7514,-0.0001104448,26.271,0,1.7514,0.0001003738,26.271,0
1.7523,-5.874724E-05,26.2845,0,1.7523,7.586786E-05,26.2845,0
1.7532,-6.009003E-05,26.298,0,1.7532,7.956054E-05,26.298,0
1.7541,-0.0001299153,26.3115,0,1.7541,0.0001027237,26.3115,0
1.755,-7.721065E-05,26.325,0,1.755,0.0001070878,26.325,0
1.7559,2.652018E-05,26.3385,0,1.7559,0.0001228656,26.3385,0
1.7568,0.0001584497,26.352,0,1.7568,0.0001198444,26.352,0
1.7577,0.0002064546,26.3655,0,1.7577,0.0001037308,26.3655,0
1.7586,0.0001376364,26.379,0,1.7586,8.426032E-05,26.379,0
1.7595,0.0001164874,26.3925,0,1.7595,2.719158E-05,26.3925,0
1.7604,8.761731E-05,26.406,0,1.7604,-1.107805E-05,26.406,0
1.7613,-2.987716E-05,26.4195,0,1.7613,3.054856E-05,26.4195,0
1.7622,-4.36408E-06,26.433,0,1.7622,7.049668E-06,26.433,0
1.7631,8.157473E-05,26.4465,0,1.7631,-2.18204E-05,26.4465,0
1.764,-6.61326E-05,26.46,0,1.764,1.745632E-05,26.46,0
1.7649,-9.970245E-05,26.4735,0,1.7649,1.510643E-05,26.4735,0
1.7658,1.275654E-05,26.487,0,1.7658,-3.088426E-05,26.487,0
1.7667,-7.217517E-05,26.5005,0,1.7667,-1.846342E-05,26.5005,0
1.7676,-0.0001554284,26.514,0,1.7676,-1.678492E-06,26.514,0
1.7685,-6.478981E-05,26.5275,0,1.7685,-3.256275E-05,26.5275,0
1.7694,-4.29694E-05,26.541,0,1.7694,-4.229801E-05,26.541,0
1.7703,3.323415E-05,26.5545,0,1.7703,-3.826963E-05,26.5545,0
1.7712,-1.007095E-05,26.568,0,1.7712,-3.524834E-05,26.568,0
1.7721,-0.0001668421,26.5815,0,1.7721,-6.378271E-05,26.5815,0
1.773,-0.0001433432,26.595,0,1.773,-0.0001097734,26.595,0
1.7739,-2.517739E-05,26.6085,0,1.7739,-0.0001379721,26.6085,0
1.7748,-0.0001080949,26.622,0,1.7748,-9.903105E-05,26.622,0
1.7757,-0.0001295796,26.6355,0,1.7757,-8.89601E-05,26.6355,0
1.7766,-6.042573E-06,26.649,0,1.7766,-0.0001171588,26.649,0
1.7775,-0.0001040665,26.6625,0,1.7775,-3.994812E-05,26.6625,0
1.7784,-9.466698E-05,26.676,0,1.7784,-3.692683E-05,26.676,0
1.7793,-4.53193E-05,26.6895,0,1.7793,-0.0001225299,26.6895,0
1.7802,-1.141375E-05,26.703,0,1.7802,-0.0001490501,26.703,0
1.7811,-0.0001067521,26.7165,0,1.7811,-0.0001248798,26.7165,0
1.782,-0.0001030594,26.73,0,1.782,-8.056764E-05,26.73,0
1.7829,-7.821774E-05,26.7435,0,1.7829,-5.673304E-05,26.7435,0
1.7838,1.544213E-05,26.757,0,1.7838,-6.948959E-05,26.757,0
1.7847,-2.920577E-05,26.7705,0,1.7847,3.021286E-05,26.7705,0
1.7856,-9.433127E-05,26.784,0,1.7856,0.0001144732,26.784,0
1.7865,-3.390555E-05,26.7975,0,1.7865,3.591974E-05,26.7975,0
1.7874,2.1149E-05,26.811,0,1.7874,2.349889E-05,26.811,0
1.7883,-2.349889E-06,26.8245,0,1.7883,8.89601E-05,26.8245,0
1.7892,2.014191E-06,26.838,0,1.7892,5.438316E-05,26.838,0
1.7901,8.358892E-05,26.8515,0,1.7901,2.316319E-05,26.8515,0
1.791,1.242084E-05,26.865,0,1.791,5.673304E-05,26.865,0
1.7919,0.0001010452,26.8785,0,1.7919,5.337606E-05,26.8785,0
1.7928,0.0001675135,26.892,0,1.7928,1.007095E-06,26.892,0
1.7937,1.712062E-05,26.9055,0,1.7937,-1.779202E-05,26.9055,0
1.7946,1.779202E-05,26.919,0,1.7946,1.745632E-05,26.919,0
1.7955,3.256275E-05,26.9325,0,1.7955,2.014191E-06,26.9325,0
1.7964,-8.392462E-06,26.946,0,1.7964,-1.208515E-05,26.946,0
1.7973,8.560311E-05,26.9595,0,1.7973,-4.028382E-06,26.9595,0
1.7982,3.424125E-05,26.973,0,1.7982,4.33051E-05,26.973,0
1.7991,-7.452507E-05,26.9865,0,1.7991,5.304036E-05,26.9865,0
1.8,-2.417029E-05,27,0,1.8,5.706874E-06,27,0
1.8009,2.349889E-06,27.0135,0,1.8009,-3.155566E-05,27.0135,0
1.8018,-0.0001379721,27.027,0,1.8018,1.443504E-05,27.027,0
1.8027,-9.265278E-05,27.0405,0,1.8027,-1.040665E-05,27.0405,0
1.8036,5.438316E-05,27.054,0,1.8036,-7.519646E-05,27.054,0
1.8045,-8.795301E-05,27.0675,0,1.8045,-3.860533E-05,27.0675,0
1.8054,-1.040665E-05,27.081,0,1.8054,-5.136187E-05,27.081,0
1.8063,0.0001148089,27.0945,0,1.8063,-7.620356E-05,27.0945,0
1.8072,-4.36408E-06,27.108,0,1.8072,-5.035477E-05,27.108,0
1.8081,-0.0001030594,27.1215,0,1.8081,-5.438316E-05,27.1215,0
1.809,-4.39765E-05,27.135,0,1.809,-6.076142E-05,27.135,0
1.8099,-4.49836E-05,27.1485,0,1.8099,-7.150377E-05,27.1485,0
1.8108,-3.994812E-05,27.162,0,1.8108,-7.553216E-05,27.162,0
1.8117,-5.807584E-05,27.1755,0,1.8117,-5.471885E-05,27.1755,0
1.8126,-0.0001134661,27.189,0,1.8126,-4.33051E-05,27.189,0
1.8135,-4.095522E-05,27.2025,0,1.8135,-4.33051E-05,27.2025,0
1.8144,-1.107805E-05,27.216,0,1.8144,-3.356985E-05,27.216,0
1.8153,-4.867628E-05,27.2295,0,1.8153,1.577783E-05,27.2295,0
1.8162,-7.418937E-05,27.243,0,1.8162,1.040665E-05,27.243,0
1.8171,-6.009003E-05,27.2565,0,1.8171,-5.001907E-05,27.2565,0
1.818,-0.0001171588,27.27,0,1.818,1.678492E-06,27.27,0
1.8189,-8.560311E-05,27.2835,0,1.8189,9.063859E-06,27.2835,0
1.8198,-3.356985E-07,27.297,0,1.8198,-2.987716E-05,27.297,0
1.8207,5.035477E-06,27.3105,0,1.8207,-4.699779E-05,27.3105,0
1.8216,-3.256275E-05,27.324,0,1.8216,-2.28275E-05,27.324,0
