X[s],"Trigno IM sensor 3: EMG 3 (IM)",X[s],"Trigno IM sensor 3: Mag 3.Z (IM)",X[s],"Trigno IM sensor 4: EMG 4 (IM)",X[s],"Trigno IM sensor 4: Mag 4.Z (IM)"
0.000000,0.0001863127,0.000000,51,0.000000,0.0005367819,0.000000,96
0.0009,5.874724E-05,0.0135,53,0.0009,0.0006455482,0.0135,96
0.0018,6.713969E-06,0.027,52,0.0018,0.0003454337,0.027,99
0.0027,6.109713E-05,0.0405,52,0.0027,0.0002121614,0.0405,99
0.0036,6.378271E-05,0.054,52,0.0036,0.0002386816,0.054,95
0.0045,-2.652018E-05,0.0675,53,0.0045,0.0001738918,0.0675,94
0.0054,-2.719158E-05,0.081,51,0.0054,0.0001007095,0.081,98
0.0063,3.189136E-05,0.0945,50,0.0063,2.21561E-05,0.0945,97
0.0072,1.242084E-05,0.108,52,0.0072,-7.620356E-05,0.108,96
0.0081,3.054856E-05,0.1215,50,0.0081,-9.835965E-05,0.1215,97
0.009000001,7.452507E-05,0.135,51,0.009000001,-3.121996E-05,0.135,99
0.0099,9.097429E-05,0.1485,53,0.0099,2.719158E-05,0.1485,99
0.0108,5.706874E-06,0.162,52,0.0108,-5.539025E-05,0.162,96
0.0117,9.063859E-06,0.1755,53,0.0117,-0.0001604639,0.1755,98
0.0126,-2.584878E-05,0.189,52,0.0126,-0.0002171969,0.189,97
0.0135,-7.721065E-05,0.2025,53,0.0135,-0.0002823224,0.2025,98
0.0144,-7.016098E-05,0.216,53,0.0144,-0.0002645304,0.216,97
0.0153,-4.934768E-05,0.2295,52,0.0153,-2.853437E-05,0.2295,97
0.0162,-4.766919E-05,0.243,53,0.0162,-7.049668E-06,0.243,97
0.0171,-1.678492E-06,0.2565,51,0.0171,-5.539025E-05,0.2565,94
0.018,5.673304E-05,0.27,52,0.018,-4.36408E-05,0.27,94
0.0189,-1.443504E-05,0.2835,52,0.0189,-5.404745E-05,0.2835,94
0.0198,-3.659113E-05,0.297,52,0.0198,-8.795301E-05,0.297,96
0.0207,-6.61326E-05,0.3105,51,0.0207,-5.941863E-05,0.3105,100
0.0216,-0.0001188373,0.324,52,0.0216,-7.217517E-05,0.324,97
0.0225,-8.627451E-05,0.3375,51,0.0225,-0.0001185016,0.3375,95
0.0234,-3.323415E-05,0.351,54,0.0234,-0.0001389792,0.351,93
0.0243,1.040665E-05,0.3645,53,0.0243,-0.0001943694,0.3645,96
0.0252,5.606165E-05,0.378,52,0.0252,-0.0002057832,0.378,95
0.0261,8.82887E-05,0.3915,51,0.0261,-0.000161471,0.3915,100
0.027,9.198138E-05,0.405,52,0.027,-7.687495E-05,0.405,99
0.0279,8.560311E-05,0.4185,52,0.0279,7.217517E-05,0.4185,99
0.0288,4.599069E-05,0.432,51,0.0288,2.719158E-05,0.432,96
0.0297,-3.424125E-05,0.4455,52,0.0297,-4.33051E-05,0.4455,99
0.0306,-2.652018E-05,0.459,52,0.0306,-2.853437E-05,0.459,97
0.0315,-1.644922E-05,0.4725,52,0.0315,-0.000164828,0.4725,97
0.0324,2.450599E-05,0.486,51,0.0324,-0.0002296178,0.486,99
0.0333,-2.1149E-05,0.4995,52,0.0333,-0.0003021286,0.4995,96
0.0342,-8.996719E-05,0.513,52,0.0342,-0.0003951171,0.513,97
0.0351,-1.712062E-05,0.5265,51,0.0351,-0.0003779965,0.5265,98
0.036,-0.0001074235,0.54,51,0.036,-0.0002101472,0.54,98
0.0369,-9.735256E-05,0.5535,50,0.0369,1.980621E-05,0.5535,99
0.0378,5.706874E-06,0.567,52,0.0378,0.0003514763,0.567,98
0.0387,-4.733349E-05,0.5805,51,0.0387,0.0006022431,0.5805,97
0.0396,-8.526741E-05,0.594,50,0.0396,0.0004065309,0.594,101
0.0405,-3.021286E-05,0.6075,50,0.0405,0.0001591211,0.6075,97
0.0414,1.040665E-05,0.621,50,0.0414,2.987716E-05,0.621,97
0.0423,-3.021286E-06,0.6345,52,0.0423,-5.606165E-05,0.6345,98
0.0432,-6.009003E-05,0.648,51,0.0432,-0.0002732586,0.648,96
0.0441,-3.659113E-05,0.6615,52,0.0441,-0.0002262608,0.6615,98
0.045,2.920577E-05,0.675,51,0.045,-0.00024271,0.675,99
0.0459,5.035477E-06,0.6885,51,0.0459,-0.0002312963,0.6885,99
0.0468,-5.673304E-05,0.702,52,0.0468,-0.0001510643,0.702,99
0.0477,-3.356985E-07,0.7155,50,0.0477,-7.553216E-05,0.7155,97
0.0486,0.000115816,0.729,52,0.0486,0.0002168612,0.729,97
0.0495,1.812772E-05,0.7425,52,0.0495,0.000591165,0.7425,97
0.0504,8.392462E-06,0.756,50,0.0504,0.0006240635,0.756,99
0.0513,5.807584E-05,0.7695,51,0.0513,0.0003682612,0.7695,97
0.0522,7.351797E-05,0.783,51,0.0522,0.0001765774,0.783,99
0.0531,1.376364E-05,0.7965,52,0.0531,0.0001054093,0.7965,100
0.054,-2.349889E-05,0.81,52,0.054,6.076142E-05,0.81,97
0.0549,-1.309224E-05,0.8235,52,0.0549,3.189136E-05,0.8235,101
0.0558,3.356985E-07,0.837,53,0.0558,-2.18204E-05,0.837,98
0.0567,-4.53193E-05,0.8505,54,0.0567,-2.517739E-05,0.8505,98
0.0576,-2.18204E-05,0.864,53,0.0576,-5.136187E-05,0.864,95
0.0585,8.392462E-06,0.8775,52,0.0585,-0.0001171588,0.8775,98
0.0594,-7.016098E-05,0.891,50,0.0594,-0.0001426719,0.891,97
0.0603,-0.0001285725,0.9045,51,0.0603,-0.0001134661,0.9045,97
0.0612,-8.090334E-05,0.918,52,0.0612,-0.0001084306,0.918,101
0.0621,-0.0001795987,0.9315,51,0.0621,-3.659113E-05,0.9315,99
0.063,-0.0002339818,0.945,52,0.063,3.256275E-05,0.945,98
0.0639,-0.0001923552,0.9585,50,0.0639,-2.719158E-05,0.9585,99
0.0648,-7.183947E-05,0.972,52,0.0648,-6.009003E-05,0.972,101
0.0657,3.390555E-05,0.9855,52,0.0657,-8.627451E-05,0.9855,99
0.0666,7.183947E-05,0.999,53,0.0666,-7.888914E-05,0.999,101
0.0675,0.0002554666,1.0125,52,0.0675,-0.0001000381,1.0125,99
0.0684,0.0001430075,1.026,53,0.0684,-6.71397E-05,1.026,96
0.0693,4.129091E-05,1.0395,53,0.0693,-0.0001037308,1.0395,97
0.0702,2.1149E-05,1.053,53,0.0702,-7.083238E-05,1.053,100
0.0711,-5.035477E-06,1.0665,52,0.0711,0.0001242084,1.0665,100
0.072,6.344701E-05,1.08,53,0.072,0.0001356222,1.08,100
0.0729,4.934768E-05,1.0935,52,0.0729,6.378271E-06,1.0935,100
0.07380001,-0.0001252155,1.107,52,0.07380001,-2.719158E-05,1.107,98
0.07470001,-0.0001161517,1.1205,51,0.07470001,-6.411841E-05,1.1205,95
0.0756,4.599069E-05,1.134,51,0.0756,-9.533837E-05,1.134,98
0.0765,-1.779202E-05,1.1475,51,0.0765,-0.0001319295,1.1475,97
0.0774,2.719158E-05,1.161,51,0.0774,-0.0002621805,1.161,98
0.0783,9.634547E-05,1.1745,52,0.0783,-0.0002836652,1.1745,98
0.0792,-9.869535E-05,1.188,52,0.0792,-0.0001262226,1.188,98
0.0801,-0.0002128328,1.2015,50,0.0801,-7.620356E-05,1.2015,102
0.081,-9.567407E-05,1.215,51,0.081,-3.591974E-05,1.215,100
0.0819,5.069047E-05,1.2285,50,0.0819,-2.383459E-05,1.2285,101
0.0828,0.0001258869,1.242,50,0.0828,-9.600977E-05,1.242,100
0.0837,0.000126894,1.2555,48,0.0837,-0.000115816,1.2555,101
0.0846,-7.049668E-06,1.269,49,0.0846,-0.0001299153,1.269,100
0.0855,-0.0001198444,1.2825,48,0.0855,-2.584878E-05,1.2825,96
0.0864,-0.0001265583,1.296,48,0.0864,1.309224E-05,1.296,99
0.0873,-0.0001319295,1.3095,49,0.0873,5.270466E-05,1.3095,99
0.0882,-0.000112459,1.323,49,0.0882,-1.174945E-05,1.323,101
0.0891,-4.699779E-06,1.3365,47,0.0891,-5.941863E-05,1.3365,103
0.09,9.063859E-06,1.35,47,0.09,-4.36408E-06,1.35,101
0.0909,1.443504E-05,1.3635,48,0.0909,-2.652018E-05,1.3635,101
0.0918,5.874724E-05,1.377,49,0.0918,4.36408E-06,1.377,103
0.0927,0.0001430075,1.3905,49,0.0927,0.0001735561,1.3905,102
0.0936,1.913481E-05,1.404,48,0.0936,0.0002981003,1.404,103
0.09450001,-1.779202E-05,1.4175,48,0.09450001,0.000158114,1.4175,104
0.09540001,2.1149E-05,1.431,49,0.09540001,4.36408E-06,1.431,103
0.09630001,2.920577E-05,1.4445,47,0.09630001,-1.712062E-05,1.4445,101
0.0972,-9.063859E-06,1.458,48,0.0972,2.24918E-05,1.458,101
0.0981,2.584878E-05,1.4715,48,0.0981,1.443504E-05,1.4715,101
0.099,5.539025E-05,1.485,46,0.099,3.692683E-05,1.485,104
0.0999,0.0001211871,1.4985,47,0.0999,-1.745632E-05,1.4985,102
0.1008,0.0001413291,1.512,47,0.1008,-6.915389E-05,1.512,102
0.1017,0.000144686,1.5255,46,0.1017,-0.0001168231,1.5255,102
0.1026,0.0001285725,1.539,46,0.1026,-0.0001554284,1.539,104
0.1035,4.263371E-05,1.5525,46,0.1035,-0.0001668421,1.5525,102
0.1044,-9.869535E-05,1.566,47,0.1044,-0.000246067,1.566,103
0.1053,-0.0001950408,1.5795,46,0.1053,-6.881819E-05,1.5795,103
0.1062,-0.0001910124,1.593,47,0.1062,0.0002574807,1.593,102
0.1071,-2.517739E-05,1.6065,45,0.1071,0.0003434196,1.6065,104
0.108,2.853437E-05,1.62,46,0.108,0.0002262608,1.62,102
0.1089,-3.323415E-05,1.6335,45,0.1089,0.0001493858,1.6335,101
0.1098,3.860533E-05,1.647,45,0.1098,5.304036E-05,1.647,101
0.1107,9.399558E-06,1.6605,46,0.1107,4.39765E-05,1.6605,104
0.1116,3.356985E-07,1.674,45,0.1116,7.855344E-05,1.674,106
0.1125,-1.477073E-05,1.6875,46,0.1125,4.39765E-05,1.6875,100
0.1134,-7.049668E-06,1.701,46,0.1134,-1.745632E-05,1.701,105
0.1143,-5.337606E-05,1.7145,47,0.1143,-3.256275E-05,1.7145,105
0.1152,-7.721065E-05,1.728,46,0.1152,-0.000133608,1.728,108
0.1161,-2.18204E-05,1.7415,46,0.1161,-0.0001560998,1.7415,107
0.117,-3.994812E-05,1.755,45,0.117,-7.821774E-05,1.755,102
0.1179,-9.869535E-05,1.7685,46,0.1179,-7.922484E-05,1.7685,105
0.1188,-8.358892E-05,1.782,46,0.1188,-4.867628E-05,1.782,103
0.1197,-5.404745E-05,1.7955,46,0.1197,0.0001097734,1.7955,97
0.1206,2.081331E-05,1.809,46,0.1206,0.0001030594,1.809,105
0.1215,4.263371E-05,1.8225,46,0.1215,-2.517739E-05,1.8225,105
0.1224,7.049668E-06,1.836,47,0.1224,-0.0001795987,1.836,102
0.1233,4.36408E-06,1.8495,44,0.1233,-0.0003749752,1.8495,104
0.1242,-4.36408E-06,1.863,45,0.1242,-0.0004233158,1.863,105
0.1251,-8.392462E-06,1.8765,45,0.1251,-0.0004239872,1.8765,100
0.126,1.242084E-05,1.89,45,0.126,-0.0003226062,1.89,103
0.1269,-3.356985E-07,1.9035,46,0.1269,2.014191E-05,1.9035,104
0.1278,-4.33051E-05,1.917,46,0.1278,0.0004629282,1.917,103
0.1287,1.846342E-05,1.9305,46,0.1287,0.0005186542,1.9305,102
0.1296,-1.846342E-05,1.944,46,0.1296,0.0003461051,1.944,105
0.1305,-0.0001601282,1.9575,47,0.1305,0.0002769512,1.9575,107
0.1314,-0.0001292439,1.971,46,0.1314,0.0001769131,1.971,101
0.1323,-1.376364E-05,1.9845,46,0.1323,6.74754E-05,1.9845,101
0.1332,5.706874E-06,1.998,46,0.1332,5.203327E-05,1.998,104
0.1341,-9.063859E-06,2.0115,48,0.1341,1.577783E-05,2.0115,105
0.135,-3.356985E-06,2.025,47,0.135,-7.687495E-05,2.025,104
0.1359,3.692683E-06,2.0385,46,0.1359,-0.0001198444,2.0385,102
0.1368,3.591974E-05,2.052,46,0.1368,-0.0001426719,2.052,104
0.1377,5.304036E-05,2.0655,46,0.1377,-0.000158114,2.0655,106
0.1386,2.349889E-06,2.079,46,0.1386,-0.0001641566,2.079,100
0.1395,3.323415E-05,2.0925,46,0.1395,-0.0001779202,2.0925,100
0.1404,6.076142E-05,2.106,46,0.1404,-0.0001591211,2.106,102
0.1413,1.745632E-05,2.1195,45,0.1413,-0.0001490501,2.1195,103
0.1422,3.289845E-05,2.133,48,0.1422,-0.0001195087,2.133,98
0.1431,1.644922E-05,2.1465,48,0.1431,-6.344701E-05,2.1465,103
0.144,-0.0001198444,2.16,46,0.144,-3.591974E-05,2.16,105
0.1449,-5.774014E-05,2.1735,48,0.1449,-5.203327E-05,2.1735,102
0.1458,8.86244E-05,2.187,47,0.1458,-5.438316E-05,2.187,98
0.1467,4.800488E-05,2.2005,49,0.1467,-3.961242E-05,2.2005,103
0.1476,-1.107805E-05,2.214,48,0.1476,-2.652018E-05,2.214,105
0.1485,3.189136E-05,2.2275,50,0.1485,-4.733349E-05,2.2275,104
0.1494,-3.323415E-05,2.241,49,0.1494,-4.229801E-05,2.241,105
0.1503,-2.383459E-05,2.2545,49,0.1503,-7.016098E-05,2.2545,105
0.1512,-5.270466E-05,2.268,48,0.1512,-5.438316E-05,2.268,103
0.1521,-8.89601E-05,2.2815,48,0.1521,-7.049668E-06,2.2815,99
0.153,-2.719158E-05,2.295,47,0.153,-2.517739E-05,2.295,103
0.1539,3.457694E-05,2.3085,48,0.1539,-6.948959E-05,2.3085,99
0.1548,6.176852E-05,2.322,48,0.1548,3.356985E-06,2.322,102
0.1557,7.653925E-05,2.3355,49,0.1557,-2.819867E-05,2.3355,98
0.1566,8.82887E-05,2.349,49,0.1566,-0.0002500954,2.349,99
0.1575,3.591974E-05,2.3625,50,0.1575,-0.0001708705,2.3625,101
0.1584,1.007095E-06,2.376,49,0.1584,-0.0002239109,2.376,103
0.1593,4.263371E-05,2.3895,50,0.1593,-0.0002635233,2.3895,100
0.1602,8.123904E-05,2.403,48,0.1602,-0.0001722133,2.403,105
0.1611,0.0001339437,2.4165,49,0.1611,-9.701686E-05,2.4165,102
0.162,0.0001688563,2.43,50,0.162,2.551309E-05,2.43,103
0.1629,0.0002185397,2.4435,49,0.1629,0.0003414054,2.4435,99
0.1638,0.0001607996,2.457,50,0.1638,0.0002970932,2.457,100
0.1647,6.344701E-05,2.4705,50,0.1647,0.0002205539,2.4705,101
0.1656,-5.001907E-05,2.484,51,0.1656,0.0002067903,2.484,99
0.1665,-9.500267E-05,2.4975,50,0.1665,0.0002628519,2.4975,103
0.1674,-0.0001054093,2.511,50,0.1674,0.0001853056,2.511,103
0.1683,-0.0002218967,2.5245,50,0.1683,-2.786297E-05,2.5245,100
0.1692,-0.0002356603,2.538,51,0.1692,-2.685588E-05,2.538,101
0.1701,-0.0001641566,2.5515,49,0.1701,-5.337606E-05,2.5515,99
0.171,-0.0001070878,2.565,52,0.171,-4.666209E-05,2.565,100
0.1719,6.6804E-05,2.5785,50,0.1719,1.040665E-05,2.5785,103
0.1728,0.0001426719,2.592,49,0.1728,2.450599E-05,2.592,102
0.1737,2.21561E-05,2.6055,50,0.1737,-0.0001232013,2.6055,98
0.1746,-5.941863E-05,2.619,50,0.1746,-0.0002192111,2.619,101
0.1755,-8.123904E-05,2.6325,52,0.1755,-0.0002067903,2.6325,102
0.1764,-0.0001094377,2.646,53,0.1764,-0.0002615091,2.646,101
0.1773,-4.53193E-05,2.6595,52,0.1773,-0.0002205539,2.6595,100
0.1782,-8.661021E-05,2.673,52,0.1782,-3.659113E-05,2.673,104
0.1791,-7.049668E-05,2.6865,52,0.1791,0.0003991455,2.6865,101
0.18,0.000185977,2.7,50,0.18,0.000418616,2.7,101
0.1809,0.0002897078,2.7135,52,0.1809,0.0001836271,2.7135,102
0.1818,0.0001362936,2.727,52,0.1818,0.0001067521,2.727,103
0.1827,5.304036E-05,2.7405,51,0.1827,2.887007E-05,2.7405,104
0.1836,9.298848E-05,2.754,52,0.1836,-3.289845E-05,2.754,101
0.1845,-2.014191E-06,2.7675,51,0.1845,5.438316E-05,2.7675,100
0.1854,-2.383459E-05,2.781,51,0.1854,0.0001232013,2.781,100
0.1863,2.517739E-05,2.7945,51,0.1863,4.46479E-05,2.7945,98
0.1872,0.0001470359,2.808,50,0.1872,-5.001907E-05,2.808,98
0.1881,0.0001040665,2.8215,52,0.1881,-0.0002225681,2.8215,101
0.189,4.49836E-05,2.835,51,0.189,-0.000323949,2.835,101
0.1899,-3.021286E-06,2.8485,53,0.1899,-0.0004417792,2.8485,105
0.1908,-3.692683E-05,2.862,52,0.1908,-0.0004481575,2.862,103
0.1917,-3.256275E-05,2.8755,51,0.1917,-0.0002484169,2.8755,98
0.1926,-0.0001315938,2.889,52,0.1926,-5.136187E-05,2.889,97
0.1935,-5.337606E-05,2.9025,52,0.1935,0.0002413672,2.9025,100
0.1944,2.853437E-05,2.916,51,0.1944,0.0002930648,2.916,99
0.1953,-6.143282E-05,2.9295,52,0.1953,0.0003880674,2.9295,98
0.1962,-0.0001077592,2.943,52,0.1962,0.0002803082,2.943,101
0.1971,-9.701686E-05,2.9565,54,0.1971,8.224613E-05,2.9565,101
0.198,-0.0001339437,2.97,53,0.198,9.030289E-05,2.97,97
0.1989,-7.016098E-05,2.9835,52,0.1989,7.788205E-05,2.9835,98
0.1998,-7.284657E-05,2.997,51,0.1998,-1.074235E-05,2.997,101
0.2007,-6.915389E-05,3.0105,52,0.2007,2.047761E-05,3.0105,99
0.2016,-7.553216E-05,3.024,53,0.2016,2.484169E-05,3.024,100
0.2025,-1.846342E-05,3.0375,53,0.2025,-1.812772E-05,3.0375,100
0.2034,4.733349E-05,3.051,53,0.2034,-4.733349E-05,3.051,100
0.2043,2.24918E-05,3.0645,53,0.2043,-0.0001037308,3.0645,102
0.2052,-5.639734E-05,3.078,0,0.2052,-0.000119173,3.078,0
0.2061,-7.049668E-05,3.0915,0,0.2061,-0.0001386435,3.0915,0
0.207,5.706874E-06,3.105,0,0.207,-0.0001346151,3.105,0
0.2079,4.46479E-05,3.1185,0,0.2079,-0.0001319295,3.1185,0
0.2088,-1.913481E-05,3.132,0,0.2088,-9.835965E-05,3.132,0
0.2097,-2.719158E-05,3.1455,0,0.2097,-0.0001712062,3.1455,0
0.2106,1.678492E-05,3.159,0,0.2106,-0.0002333104,3.159,0
0.2115,-1.007095E-06,3.1725,0,0.2115,-0.0001712062,3.1725,0
0.2124,6.948959E-05,3.186,0,0.2124,-0.0001493858,3.186,0
0.2133,5.203327E-05,3.1995,0,0.2133,-8.493171E-05,3.1995,0
0.2142,-9.735256E-06,3.213,0,0.2142,6.948959E-05,3.213,0
0.2151,-3.323415E-05,3.2265,0,0.2151,0.000179263,3.2265,0
0.216,-2.014191E-06,3.24,0,0.216,0.0001245441,3.24,0
0.2169,-4.129091E-05,3.2535,0,0.2169,5.740444E-05,3.2535,0
0.2178,-2.752728E-05,3.267,0,0.2178,8.358892E-05,3.267,0
0.2187,-6.948959E-05,3.2805,0,0.2187,0.0001339437,3.2805,0
0.2196,-0.000203769,3.294,0,0.2196,0.000144686,3.294,0
0.2205,-6.344701E-05,3.3075,0,0.2205,4.733349E-05,3.3075,0
0.2214,7.620356E-05,3.321,0,0.2214,-5.841154E-05,3.321,0
0.2223,-2.24918E-05,3.3345,0,0.2223,-6.78111E-05,3.3345,0
0.2232,-6.143282E-05,3.348,0,0.2232,-0.0001178302,3.348,0
0.2241,-1.141375E-05,3.3615,0,0.2241,-0.0001399863,3.3615,0
0.225,-8.258183E-05,3.375,0,0.225,-0.0001198444,3.375,0
0.2259,-6.61326E-05,3.3885,0,0.2259,-0.0001148089,3.3885,0
0.2268,-6.210422E-05,3.402,0,0.2268,-0.0001101091,3.402,0
0.2277,-0.0001460288,3.4155,0,0.2277,-0.0001467002,3.4155,0
0.2286,-0.000105745,3.429,0,0.2286,-5.505455E-05,3.429,0
0.2295,-1.980621E-05,3.4425,0,0.2295,6.109713E-05,3.4425,0
0.2304,-1.174945E-05,3.456,0,0.2304,7.620356E-05,3.456,0
0.2313,-2.517739E-05,3.4695,0,0.2313,5.471885E-05,3.4695,0
0.2322,-2.28275E-05,3.483,0,0.2322,0.0001077592,3.483,0
0.2331,-1.510643E-05,3.4965,0,0.2331,9.567407E-05,3.4965,0
0.234,-9.063859E-06,3.51,0,0.234,0.0001151446,3.51,0
0.2349,1.812772E-05,3.5235,0,0.2349,4.263371E-05,3.5235,0
0.2358,-1.309224E-05,3.537,0,0.2358,-2.014191E-06,3.537,0
0.2367,-1.443504E-05,3.5505,0,0.2367,-5.807584E-05,3.5505,0
0.2376,6.176852E-05,3.564,0,0.2376,-0.0001040665,3.564,0
0.2385,3.591974E-05,3.5775,0,0.2385,-8.560311E-05,3.5775,0
0.2394,5.572595E-05,3.591,0,0.2394,-6.478981E-05,3.591,0
0.2403,0.0001473716,3.6045,0,0.2403,-8.224613E-05,3.6045,0
0.2412,0.0001211871,3.618,0,0.2412,1.040665E-05,3.618,0
0.2421,0.0002064546,3.6315,0,0.2421,6.6804E-05,3.6315,0
0.243,0.0002413672,3.645,0,0.243,6.948959E-05,3.645,0
0.2439,0.0001097734,3.6585,0,0.2439,3.927672E-05,3.6585,0
0.2448,3.121996E-05,3.672,0,0.2448,-2.719158E-05,3.672,0
0.2457,-3.457694E-05,3.6855,0,0.2457,-2.1149E-05,3.6855,0
0.2466,-0.0001393149,3.699,0,0.2466,-1.779202E-05,3.699,0
0.2475,-0.0002286107,3.7125,0,0.2475,-0.0001037308,3.7125,0
0.2484,-0.0003682612,3.726,0,0.2484,-0.0003299916,3.726,0
0.2493,-0.00036289,3.7395,0,0.2493,-0.0005367819,3.7395,0
0.2502,-0.0002077974,3.753,0,0.2502,-0.0006260776,3.753,0
0.2511,-0.0001762417,3.7665,0,0.2511,-0.0006912032,3.7665,0
0.252,-1.409934E-05,3.78,0,0.252,-0.000421973,3.78,0
0.2529,0.0002205539,3.7935,0,0.2529,0.000154757,3.7935,0
0.2538,0.0004411078,3.807,0,0.2538,0.0007177233,3.807,0
0.2547,0.000415259,3.8205,0,0.2547,0.0008946364,3.8205,0
0.2556,0.0001416648,3.834,0,0.2556,0.0006710613,3.834,0
0.2565,7.888914E-05,3.8475,0,0.2565,0.000548867,3.8475,0
0.2574,3.121996E-05,3.861,0,0.2574,0.0003672541,3.861,0
0.2583,4.867628E-05,3.8745,0,0.2583,0.0001500572,3.8745,0
0.2592,4.263371E-05,3.888,0,0.2592,3.625543E-05,3.888,0
0.2601,-1.913481E-05,3.9015,0,0.2601,-3.256275E-05,3.9015,0
0.261,-6.478981E-05,3.915,0,0.261,-8.157473E-05,3.915,0
0.2619,-5.404745E-05,3.9285,0,0.2619,-8.82887E-05,3.9285,0
0.2628,-5.673304E-05,3.942,0,0.2628,-3.121996E-05,3.942,0
0.2637,-8.795301E-05,3.9555,0,0.2637,-7.519646E-05,3.9555,0
0.2646,-9.164568E-05,3.969,0,0.2646,-0.0001530785,3.969,0
0.2655,-0.0001550927,3.9825,0,0.2655,-0.0001094377,3.9825,0
0.2664,-9.298848E-05,3.996,0,0.2664,-0.0001238727,3.996,0
0.2673,-5.035477E-06,4.0095,0,0.2673,-0.0001728847,4.0095,0
0.2682,-1.007095E-06,4.023,0,0.2682,-0.0001943694,4.023,0
0.2691,-3.189136E-05,4.0365,0,0.2691,-0.0001795987,4.0365,0
0.27,3.121996E-05,4.05,0,0.27,-0.0001359579,4.05,0
0.2709,0.0001654994,4.0635,0,0.2709,-0.000144686,4.0635,0
0.2718,0.0002504311,4.077,0,0.2718,-9.198138E-05,4.077,0
0.2727,0.0001151446,4.0905,0,0.2727,-5.639734E-05,4.0905,0
0.2736,2.584878E-05,4.104,0,0.2736,-8.392462E-05,4.104,0
0.2745,-3.524834E-05,4.1175,0,0.2745,-0.0001017166,4.1175,0
0.2754,-0.0001483787,4.131,0,0.2754,-0.0001326009,4.131,0
0.2763,-0.0001983978,4.1445,0,0.2763,-9.063859E-05,4.1445,0
0.2772,-0.0002061189,4.158,0,0.2772,-4.766919E-05,4.158,0
0.2781,-0.0001722133,4.1715,0,0.2781,-7.385367E-05,4.1715,0
0.279,-0.0001560998,4.185,0,0.279,-7.049668E-06,4.185,0
0.2799,-8.358892E-05,4.1985,0,0.2799,-2.719158E-05,4.1985,0
0.2808,-2.719158E-05,4.212,0,0.2808,-7.553216E-05,4.212,0
0.2817,-5.404745E-05,4.2255,0,0.2817,-5.304036E-05,4.2255,0
0.2826,-0.0001037308,4.239,0,0.2826,-6.814679E-05,4.239,0
0.2835,-6.478981E-05,4.2525,0,0.2835,-8.627451E-05,4.2525,0
0.2844,-1.040665E-05,4.266,0,0.2844,-8.627451E-05,4.266,0
0.2853,5.270466E-05,4.2795,0,0.2853,-0.0001587854,4.2795,0
0.2862,1.678492E-05,4.293,0,0.2862,-0.000249424,4.293,0
0.2871,-5.706874E-06,4.3065,0,0.2871,-0.0002746014,4.3065,0
0.288,2.014191E-05,4.32,0,0.288,-0.0003021286,4.32,0
0.2889,5.606165E-05,4.3335,0,0.2889,-0.0002064546,4.3335,0
0.2898,9.768826E-05,4.347,0,0.2898,0.0001755703,4.347,0
0.2907,0.0001963836,4.3605,0,0.2907,0.0004360723,4.3605,0
0.2916,0.0002930648,4.374,0,0.2916,0.0004169375,4.374,0
0.2925,9.768826E-05,4.3875,0,0.2925,0.0002947433,4.3875,0
0.2934,3.826963E-05,4.401,0,0.2934,0.0001789273,4.401,0
0.2943,8.526741E-05,4.4145,0,0.2943,0.0001534142,4.4145,0
0.2952,3.323415E-05,4.428,0,0.2952,0.0001040665,4.428,0
0.2961,-4.968337E-05,4.4415,0,0.2961,8.291753E-05,4.4415,0
0.297,-0.0001054093,4.455,0,0.297,0.0001067521,4.455,0
0.2979,-0.0002312963,4.4685,0,0.2979,9.097429E-05,4.4685,0
0.2988,-0.0001849699,4.482,0,0.2988,-7.553216E-05,4.482,0
0.2997,-0.0001232013,4.4955,0,0.2997,-0.0001201801,4.4955,0
0.3006,-5.337606E-05,4.509,0,0.3006,-0.0002232395,4.509,0
0.3015,0.000190341,4.5225,0,0.3015,-0.0002893721,4.5225,0
0.3024,0.0003420768,4.536,0,0.3024,-0.0001470359,4.536,0
0.3033,0.0002695659,4.5495,0,0.3033,8.426032E-05,4.5495,0
0.3042,0.0001416648,4.563,0,0.3042,0.0002762798,4.563,0
0.3051,0.0001017166,4.5765,0,0.3051,0.0001500572,4.5765,0
0.306,-9.399558E-06,4.59,0,0.306,5.807584E-05,4.59,0
0.3069,-0.0001104448,4.6035,0,0.3069,-6.378271E-06,4.6035,0
0.3078,-6.344701E-05,4.617,0,0.3078,-5.069047E-05,4.617,0
0.3087,-1.477073E-05,4.6305,0,0.3087,-7.922484E-05,4.6305,0
0.3096,-8.82887E-05,4.644,0,0.3096,-1.712062E-05,4.644,0
0.3105,-6.478981E-05,4.6575,0,0.3105,4.800488E-05,4.6575,0
0.3114,2.450599E-05,4.671,0,0.3114,6.143282E-05,4.671,0
0.3123,2.954147E-05,4.6845,0,0.3123,2.21561E-05,4.6845,0
0.3132,-9.063859E-06,4.698,0,0.3132,1.712062E-05,4.698,0
0.3141,-6.71397E-05,4.7115,0,0.3141,7.888914E-05,4.7115,0
0.315,3.793393E-05,4.725,0,0.315,2.014191E-06,4.725,0
0.3159,5.203327E-05,4.7385,0,0.3159,-8.023193E-05,4.7385,0
0.3168,-3.860533E-05,4.752,0,0.3168,3.524834E-05,4.752,0
0.3177,-8.358892E-05,4.7655,0,0.3177,6.277562E-05,4.7655,0
0.3186,-6.478981E-05,4.779,0,0.3186,2.786297E-05,4.779,0
0.3195,-9.433127E-05,4.7925,0,0.3195,-7.049668E-06,4.7925,0
0.3204,-1.980621E-05,4.806,0,0.3204,-0.0001282368,4.806,0
0.3213,-3.860533E-05,4.8195,0,0.3213,-0.0002329748,4.8195,0
0.3222,-1.443504E-05,4.833,0,0.3222,-0.0002259251,4.833,0
0.3231,-4.061952E-05,4.8465,0,0.3231,-0.000193698,4.8465,0
0.324,-9.701686E-05,4.86,0,0.324,-0.0001171588,4.86,0
0.3249,-4.129091E-05,4.8735,0,0.3249,-8.526741E-05,4.8735,0
0.3258,3.591974E-05,4.887,0,0.3258,1.040665E-05,4.887,0
0.3267,3.356985E-06,4.9005,0,0.3267,0.0001399863,4.9005,0
0.3276,-5.673304E-05,4.914,0,0.3276,9.600977E-05,4.914,0
0.3285,-2.18204E-05,4.9275,0,0.3285,8.761731E-05,4.9275,0
0.3294,-2.551309E-05,4.941,0,0.3294,8.459602E-05,4.941,0
0.3303,-8.69459E-05,4.9545,0,0.3303,5.505455E-05,4.9545,0
0.3312,1.040665E-05,4.968,0,0.3312,1.376364E-05,4.968,0
0.3321,9.231708E-05,4.9815,0,0.3321,-3.155566E-05,4.9815,0
0.333,-5.774014E-05,4.995,0,0.333,-3.054856E-05,4.995,0
0.3339,-4.49836E-05,5.0085,0,0.3339,-5.639734E-05,5.0085,0
0.3348,-2.014191E-06,5.022,0,0.3348,-0.0001242084,5.022,0
0.3357,-6.076142E-05,5.0355,0,0.3357,-0.0001755703,5.0355,0
0.3366,-0.0001168231,5.049,0,0.3366,-0.0002487526,5.049,0
0.3375,-9.097429E-05,5.0625,0,0.3375,-0.0003226062,5.0625,0
0.3384,-6.109713E-05,5.076,0,0.3384,-0.0002252537,5.076,0
0.3393,-1.242084E-05,5.0895,0,0.3393,-8.560311E-05,5.0895,0
0.3402,2.18204E-05,5.103,0,0.3402,-5.539025E-05,5.103,0
0.3411,3.189136E-05,5.1165,0,0.3411,0.0002212253,5.1165,0
0.342,-2.450599E-05,5.13,0,0.342,0.0003722896,5.13,0
0.3429,-0.0001232013,5.1435,0,0.3429,6.57969E-05,5.1435,0
0.3438,-0.000158114,5.157,0,0.3438,4.061952E-05,5.157,0
0.3447,-0.0001134661,5.1705,0,0.3447,2.383459E-05,5.1705,0
0.3456,-2.316319E-05,5.184,0,0.3456,-3.793393E-05,5.184,0
0.3465,8.82887E-05,5.1975,0,0.3465,-8.728161E-06,5.1975,0
0.3474,9.365987E-05,5.211,0,0.3474,8.493171E-05,5.211,0
0.3483,6.948959E-05,5.2245,0,0.3483,-0.0001097734,5.2245,0
0.3492,4.867628E-05,5.238,0,0.3492,-0.0001430075,5.238,0
0.3501,7.721065E-06,5.2515,0,0.3501,-3.457694E-05,5.2515,0
0.351,-2.551309E-05,5.265,0,0.351,-0.0001292439,5.265,0
0.3519,-1.913481E-05,5.2785,0,0.3519,-0.0003370413,5.2785,0
0.3528,-4.53193E-05,5.292,0,0.3528,-0.0003497978,5.292,0
0.3537,-9.567407E-05,5.3055,0,0.3537,-0.0004025025,5.3055,0
0.3546,-3.591974E-05,5.319,0,0.3546,-0.0003474479,5.319,0
0.3555,0.0001178302,5.3325,0,0.3555,-6.311131E-05,5.3325,0
0.3564,0.0002034333,5.346,0,0.3564,0.0002245823,5.346,0
0.3573,1.980621E-05,5.3595,0,0.3573,0.0003743038,5.3595,0
0.3582,-3.692683E-06,5.373,0,0.3582,0.0001742275,5.373,0
0.3591,0.000105745,5.3865,0,0.3591,9.970245E-05,5.3865,0
0.36,-2.752728E-05,5.4,0,0.36,0.0001305867,5.4,0
0.3609,-0.0001386435,5.4135,0,0.3609,-0.0002759442,5.4135,0
0.3618,-0.0001560998,5.427,0,0.3618,-0.0006180209,5.427,0
0.3627,-8.661021E-05,5.4405,0,0.3627,-0.0003440909,5.4405,0
0.3636,-8.123904E-05,5.454,0,0.3636,-0.0002574807,5.454,0
0.3645,-3.289845E-05,5.4675,0,0.3645,-0.0001282368,5.4675,0
0.3654,6.411841E-05,5.481,0,0.3654,0.0004031739,5.481,0
0.3663,0.0002806439,5.4945,0,0.3663,0.0008979935,5.4945,0
0.3672,0.0003175708,5.508,0,0.3672,0.000871809,5.508,0
0.3681,0.0002453956,5.5215,0,0.3681,0.0006482337,5.5215,0
0.369,0.000246067,5.535,0,0.369,0.0004612497,5.535,0
0.3699,0.0001943694,5.5485,0,0.3699,0.0002823224,5.5485,0
0.3708,5.740444E-05,5.562,0,0.3708,0.0001799344,5.562,0
0.3717,-2.18204E-05,5.5755,0,0.3717,6.54612E-05,5.5755,0
0.3726,2.786297E-05,5.589,0,0.3726,-2.014191E-06,5.589,0
0.3735,-2.1149E-05,5.6025,0,0.3735,-3.961242E-05,5.6025,0
0.3744,-8.358892E-05,5.616,0,0.3744,-5.001907E-05,5.616,0
0.3753,-5.404745E-05,5.6295,0,0.3753,-5.169757E-05,5.6295,0
0.3762,-1.577783E-05,5.643,0,0.3762,-7.116808E-05,5.643,0
0.3771,-0.0001107805,5.6565,0,0.3771,-0.0002574807,5.6565,0
0.378,-0.0001654994,5.67,0,0.378,-0.0002531167,5.67,0
0.3789,-0.0001285725,5.6835,0,0.3789,-0.000218204,5.6835,0
0.3798,-3.256275E-05,5.697,0,0.3798,-0.0002380102,5.697,0
0.3807,0.0001017166,5.7105,0,0.3807,-0.0001940337,5.7105,0
0.3816,0.0001010452,5.724,0,0.3816,-0.000316228,5.724,0
0.3825,7.721065E-06,5.7375,0,0.3825,-0.0003863889,5.7375,0
0.3834,0.0001121233,5.751,0,0.3834,-0.0002806439,5.751,0
0.3843,0.0001218585,5.7645,0,0.3843,-0.0001540856,5.7645,0
0.3852,0.0001067521,5.778,0,0.3852,-7.251087E-05,5.778,0
0.3861,5.136187E-05,5.7915,0,0.3861,-0.0001644923,5.7915,0
0.387,4.666209E-05,5.805,0,0.387,-7.553216E-05,5.805,0
0.3879,7.687495E-05,5.8185,0,0.3879,-5.035477E-05,5.8185,0
0.3888,5.807584E-05,5.832,0,0.3888,-0.000148043,5.832,0
0.3897,9.567407E-05,5.8455,0,0.3897,-0.0001319295,5.8455,0
0.3906,-5.371176E-06,5.859,0,0.3906,4.867628E-05,5.859,0
0.3915,-8.224613E-05,5.8725,0,0.3915,0.0001010452,5.8725,0
0.3924,-3.256275E-05,5.886,0,0.3924,0.000119173,5.886,0
0.3933,-0.0001117876,5.8995,0,0.3933,0.0001339437,5.8995,0
0.3942,-0.0002511025,5.913,0,0.3942,0.0001117876,5.913,0
0.3951,-0.0002161898,5.9265,0,0.3951,9.634547E-05,5.9265,0
0.396,-0.0001409934,5.94,0,0.396,-1.846342E-05,5.94,0
0.3969,-0.0001426719,5.9535,0,0.3969,-6.6804E-05,5.9535,0
0.3978,-0.0002937362,5.967,0,0.3978,-9.063859E-06,5.967,0
0.3987,-0.0003011215,5.9805,0,0.3987,-1.174945E-05,5.9805,0
0.3996,-0.0001443503,5.994,0,0.3996,-5.236896E-05,5.994,0
0.4005,-6.478981E-05,6.0075,0,0.4005,-3.256275E-05,6.0075,0
0.4014,4.766919E-05,6.021,0,0.4014,-1.174945E-05,6.021,0
0.4023,0.0001373007,6.0345,0,0.4023,-5.136187E-05,6.0345,0
0.4032,3.323415E-05,6.048,0,0.4032,-4.800488E-05,6.048,0
0.4041,-9.735256E-06,6.0615,0,0.4041,-4.36408E-06,6.0615,0
0.405,3.994812E-05,6.075,0,0.405,2.652018E-05,6.075,0
0.4059,-2.383459E-05,6.0885,0,0.4059,4.766919E-05,6.0885,0
0.4068,-4.33051E-05,6.102,0,0.4068,-3.692683E-06,6.102,0
0.4077,-6.848249E-05,6.1155,0,0.4077,-2.652018E-05,6.1155,0
0.4086,-6.009003E-05,6.129,0,0.4086,1.577783E-05,6.129,0
0.4095,1.779202E-05,6.1425,0,0.4095,4.733349E-05,6.1425,0
0.4104,3.524834E-05,6.156,0,0.4104,-2.450599E-05,6.156,0
0.4113,-2.752728E-05,6.1695,0,0.4113,-0.0001507286,6.1695,0
0.4122,-4.599069E-05,6.183,0,0.4122,-0.0001554284,6.183,0
0.4131,-1.644922E-05,6.1965,0,0.4131,-0.0002440528,6.1965,0
0.414,8.392462E-06,6.21,0,0.414,-0.0003105211,6.21,0
0.4149,9.097429E-05,6.2235,0,0.4149,-0.0002453956,6.2235,0
0.4158,0.0001832914,6.237,0,0.4158,-0.0001577783,6.237,0
0.4167,0.000186984,6.2505,0,0.4167,-1.376364E-05,6.2505,0
0.4176,2.349889E-05,6.264,0,0.4176,7.721065E-05,6.264,0
0.4185,1.376364E-05,6.2775,0,0.4185,0.000327306,6.2775,0
0.4194,5.740444E-05,6.291,0,0.4194,0.0003367056,6.291,0
0.4203,-2.383459E-05,6.3045,0,0.4203,0.0001366293,6.3045,0
0.4212,-0.0001104448,6.318,0,0.4212,-2.618448E-05,6.318,0
0.4221,-0.0001097734,6.3315,0,0.4221,3.323415E-05,6.3315,0
0.423,1.913481E-05,6.345,0,0.423,0.000278294,6.345,0
0.4239,-4.129091E-05,6.3585,0,0.4239,0.0002574807,6.3585,0
0.4248,-0.0001456931,6.372,0,0.4248,0.000312871,6.372,0
0.4257,-9.835965E-05,6.3855,0,0.4257,0.0002762798,6.3855,0
0.4266,-1.107805E-05,6.399,0,0.4266,0.0001064164,6.399,0
0.4275,7.888914E-05,6.4125,0,0.4275,0.000144686,6.4125,0
0.4284,0.0001027237,6.426,0,0.4284,9.097429E-05,6.426,0
0.4293,5.270466E-05,6.4395,0,0.4293,-1.712062E-05,6.4395,0
0.4302,0.0001070878,6.453,0,0.4302,-1.376364E-05,6.453,0
0.4311,4.934768E-05,6.4665,0,0.4311,-4.867628E-05,6.4665,0
0.432,-3.256275E-05,6.48,0,0.432,-0.0001520714,6.48,0
0.4329,-5.404745E-05,6.4935,0,0.4329,-0.0001628138,6.4935,0
0.4338,-1.779202E-05,6.507,0,0.4338,-0.0002312963,6.507,0
0.4347,-1.913481E-05,6.5205,0,0.4347,-0.0001685206,6.5205,0
0.4356,-7.486076E-05,6.534,0,0.4356,-9.332418E-05,6.534,0
0.4365,2.047761E-05,6.5475,0,0.4365,-7.049668E-05,6.5475,0
0.4374,0.000112459,6.561,0,0.4374,-0.0001050736,6.561,0
0.4383,1.980621E-05,6.5745,0,0.4383,-5.774014E-05,6.5745,0
0.4392,7.049668E-05,6.588,0,0.4392,-0.0001171588,6.588,0
0.4401,0.0001839628,6.6015,0,0.4401,-0.000257145,6.6015,0
0.441,8.560311E-05,6.615,0,0.441,-0.0003346914,6.615,0
0.4419,8.560311E-05,6.6285,0,0.4419,-0.0003622186,6.6285,0
0.4428,6.378271E-05,6.642,0,0.4428,-0.0002907149,6.642,0
0.4437,-5.270466E-05,6.6555,0,0.4437,-0.0001050736,6.6555,0
0.4446,-8.761731E-05,6.669,0,0.4446,0.0001735561,6.669,0
0.4455,-1.107805E-05,6.6825,0,0.4455,0.0001782559,6.6825,0
0.4464,5.539025E-05,6.696,0,0.4464,0.000105745,6.696,0
0.4473,6.311131E-05,6.7095,0,0.4473,0.0001245441,6.7095,0
0.4482,3.591974E-05,6.723,0,0.4482,0.0001460288,6.723,0
0.4491,-5.941863E-05,6.7365,0,0.4491,0.0001661708,6.7365,0
0.45,-0.0001326009,6.75,0,0.45,0.0001151446,6.75,0
0.4509,-0.0001319295,6.7635,0,0.4509,1.040665E-05,6.7635,0
0.4518,-7.284657E-05,6.777,0,0.4518,4.061952E-05,6.777,0
0.4527,0.0001272297,6.7905,0,0.4527,3.424125E-05,6.7905,0
0.4536,0.0001420005,6.804,0,0.4536,-4.061952E-05,6.804,0
0.4545,-2.081331E-05,6.8175,0,0.4545,-3.826963E-05,6.8175,0
0.4554,-5.606165E-05,6.831,0,0.4554,-5.807584E-05,6.831,0
0.4563,8.728161E-06,6.8445,0,0.4563,-8.023193E-05,6.8445,0
0.4572,-2.316319E-05,6.858,0,0.4572,-7.016098E-05,6.858,0
0.4581,-3.054856E-05,6.8715,0,0.4581,-0.0001228656,6.8715,0
0.459,5.673304E-05,6.885,0,0.459,-0.0001742275,6.885,0
0.4599,0.0001514,6.8985,0,0.4599,-0.0002030976,6.8985,0
0.4608,9.500267E-05,6.912,0,0.4608,-0.0001930266,6.912,0
0.4617,-6.6804E-05,6.9255,0,0.4617,-0.0001487144,6.9255,0
0.4626,-0.0001487144,6.939,0,0.4626,-2.349889E-06,6.939,0
0.4635,-0.0001050736,6.9525,0,0.4635,0.0001164874,6.9525,0
0.4644,-0.0001514,6.966,0,0.4644,8.728161E-06,6.966,0
0.4653,-0.0001470359,6.9795,0,0.4653,-5.572595E-05,6.9795,0
0.4662,-5.404745E-05,6.993,0,0.4662,-6.009003E-05,6.993,0
0.4671,1.678492E-06,7.0065,0,0.4671,1.947051E-05,7.0065,0
0.468,-4.028382E-05,7.02,0,0.468,9.567407E-05,7.02,0
0.4689,7.049668E-06,7.0335,0,0.4689,0.0001735561,7.0335,0
0.4698,-5.706874E-06,7.047,0,0.4698,0.0001681849,7.047,0
0.4707,-0.0001312581,7.0605,0,0.4707,6.109713E-05,7.0605,0
0.4716,-0.0001295796,7.074,0,0.4716,2.819867E-05,7.074,0
0.4725,-0.0001044022,7.0875,0,0.4725,0.0001101091,7.0875,0
0.4734,-0.0001641566,7.101,0,0.4734,1.712062E-05,7.101,0
0.4743,-0.0001816129,7.1145,0,0.4743,-7.586786E-05,7.1145,0
0.4752,-0.0001829557,7.128,0,0.4752,-4.46479E-05,7.128,0
0.4761,-0.000154757,7.1415,0,0.4761,-0.0001144732,7.1415,0
0.477,-7.385367E-05,7.155,0,0.477,-0.0001654994,7.155,0
0.4779,-6.848249E-05,7.1685,0,0.4779,-0.0001201801,7.1685,0
0.4788,-9.130999E-05,7.182,0,0.4788,-5.673304E-05,7.182,0
0.4797,-6.881819E-05,7.1955,0,0.4797,-6.076142E-05,7.1955,0
0.4806,1.544213E-05,7.209,0,0.4806,-8.627451E-05,7.209,0
0.4815,1.947051E-05,7.2225,0,0.4815,1.913481E-05,7.2225,0
0.4824,0.0001326009,7.236,0,0.4824,6.948959E-05,7.236,0
0.4833,0.0001967193,7.2495,0,0.4833,5.404745E-05,7.2495,0
0.4842,7.116808E-05,7.263,0,0.4842,9.903105E-05,7.263,0
0.4851,-3.021286E-05,7.2765,0,0.4851,7.318227E-05,7.2765,0
0.486,6.210422E-05,7.29,0,0.486,2.920577E-05,7.29,0
0.4869,8.69459E-05,7.3035,0,0.4869,4.061952E-05,7.3035,0
0.4878,9.768826E-05,7.317,0,0.4878,6.881819E-05,7.317,0
0.4887,7.217517E-05,7.3305,0,0.4887,-5.404745E-05,7.3305,0
0.4896,-5.807584E-05,7.344,0,0.4896,-0.0001295796,7.344,0
0.4905,-5.606165E-05,7.3575,0,0.4905,-0.0002635233,7.3575,0
0.4914,1.342794E-05,7.371,0,0.4914,-0.0004535287,7.371,0
0.4923,-4.901198E-05,7.3845,0,0.4923,-0.0005391318,7.3845,0
0.4932,-5.337606E-05,7.398,0,0.4932,-0.0004380865,7.398,0
0.4941,6.143282E-05,7.4115,0,0.4941,-0.0001326009,7.4115,0
0.495,0.0001047379,7.425,0,0.495,0.0003971313,7.425,0
0.4959,0.0001500572,7.4385,0,0.4959,0.0005220111,7.4385,0
0.4968,0.0001567712,7.452,0,0.4968,0.0002893721,7.452,0
0.4977,9.567407E-05,7.4655,0,0.4977,0.0002484169,7.4655,0
0.4986,7.049668E-05,7.479,0,0.4986,0.0002400244,7.479,0
0.4995,3.390555E-05,7.4925,0,0.4995,0.0001520714,7.4925,0
0.5004,-1.107805E-05,7.506,0,0.5004,-1.107805E-05,7.506,0
0.5013,-5.740444E-05,7.5195,0,0.5013,-0.0001211871,7.5195,0
0.5022,-0.0001138018,7.533,0,0.5022,-8.89601E-05,7.533,0
0.5031,-0.0001644923,7.5465,0,0.5031,1.678492E-05,7.5465,0
0.504,-8.69459E-05,7.56,0,0.504,9.970245E-05,7.56,0
0.5049,-2.517739E-05,7.5735,0,0.5049,0.0001232013,7.5735,0
0.5058,3.692683E-06,7.587,0,0.5058,0.0001258869,7.587,0
0.5067,-1.678492E-05,7.6005,0,0.5067,4.934768E-05,7.6005,0
0.5076,-9.835965E-05,7.614,0,0.5076,-3.591974E-05,7.614,0
0.5085,-0.0002185397,7.6275,0,0.5085,-0.0001161517,7.6275,0
0.5094,-0.000189334,7.641,0,0.5094,-0.0002057832,7.641,0
0.5103,-7.989624E-05,7.6545,0,0.5103,-0.0003064927,7.6545,0
0.5112,1.342794E-05,7.668,0,0.5112,-0.0001832914,7.668,0
0.5121,6.076142E-05,7.6815,0,0.5121,-9.164568E-05,7.6815,0
0.513,9.030289E-05,7.695,0,0.513,-0.0002044404,7.695,0
0.5139,7.486076E-05,7.7085,0,0.5139,-0.0002299535,7.7085,0
0.5148,0.0001255512,7.722,0,0.5148,4.36408E-05,7.722,0
0.5157,0.0001769131,7.7355,0,0.5157,4.36408E-05,7.7355,0
0.5166,0.0001030594,7.749,0,0.5166,-5.941863E-05,7.749,0
0.5175,0.0001490501,7.7625,0,0.5175,4.229801E-05,7.7625,0
0.5184,6.411841E-05,7.776,0,0.5184,7.183947E-05,7.776,0
0.5193,-5.136187E-05,7.7895,0,0.5193,-0.0001208515,7.7895,0
0.5202,-1.275654E-05,7.803,0,0.5202,-0.0002349889,7.803,0
0.5211,8.560311E-05,7.8165,0,0.5211,-0.0002608377,7.8165,0
0.522,-5.203327E-05,7.83,0,0.522,-0.0002474098,7.83,0
0.5229,1.242084E-05,7.8435,0,0.5229,-8.392462E-06,7.8435,0
0.5238,5.874724E-05,7.857,0,0.5238,0.0001795987,7.857,0
0.5247,-7.418937E-05,7.8705,0,0.5247,0.0003998169,7.8705,0
0.5256,-7.687495E-05,7.884,0,0.5256,0.0004894484,7.884,0
0.5265,1.913481E-05,7.8975,0,0.5265,0.0004317082,7.8975,0
0.5274,2.1149E-05,7.911,0,0.5274,0.0002829938,7.911,0
0.5283,5.941863E-05,7.9245,0,0.5283,-7.620356E-05,7.9245,0
0.5292,6.881819E-05,7.938,0,0.5292,-0.0001322652,7.938,0
0.5301,3.625543E-05,7.9515,0,0.5301,-0.0001178302,7.9515,0
0.531,6.378271E-06,7.965,0,0.531,-0.0002225681,7.965,0
0.5319,-3.155566E-05,7.9785,0,0.5319,-0.0002880293,7.9785,0
0.5328,-2.853437E-05,7.992,0,0.5328,-7.049668E-05,7.992,0
0.5337,-5.136187E-05,8.0055,0,0.5337,0.000105745,8.0055,0
0.5346,7.721065E-06,8.019,0,0.5346,2.719158E-05,8.019,0
0.5355,-1.678492E-06,8.0325,0,0.5355,-9.198138E-05,8.0325,0
0.5364,-6.478981E-05,8.046,0,0.5364,-0.000105745,8.046,0
0.5373,-7.956054E-05,8.0595,0,0.5373,-1.980621E-05,8.0595,0
0.5382,-3.793393E-05,8.073,0,0.5382,0.0001211871,8.073,0
0.5391,6.009003E-05,8.0865,0,0.5391,9.500267E-05,8.0865,0
0.54,0.0001393149,8.1,0,0.54,2.685588E-06,8.1,0
0.5409,0.0001097734,8.1135,0,0.5409,-4.934768E-05,8.1135,0
0.5418,7.888914E-05,8.127,0,0.5418,-0.0001769131,8.127,0
0.5427,2.920577E-05,8.1405,0,0.5427,-0.0001564355,8.1405,0
0.5436,-4.699779E-05,8.154,0,0.5436,-0.0001027237,8.154,0
0.5445,-3.356985E-05,8.1675,0,0.5445,-8.023193E-05,8.1675,0
0.5454,-2.450599E-05,8.181,0,0.5454,-6.277562E-05,8.181,0
0.5463,-0.0001416648,8.1945,0,0.5463,-5.807584E-05,8.1945,0
0.5472,-0.0001131304,8.208,0,0.5472,2.584878E-05,8.208,0
0.5481,2.047761E-05,8.2215,0,0.5481,0.000144686,8.2215,0
0.549,-4.028382E-05,8.235,0,0.549,0.0001433432,8.235,0
0.5499,-3.692683E-06,8.2485,0,0.5499,-8.023193E-05,8.2485,0
0.5508,1.644922E-05,8.262,0,0.5508,-6.51255E-05,8.262,0
0.5517,-5.941863E-05,8.2755,0,0.5517,8.627451E-05,8.2755,0
0.5526,-7.016098E-05,8.289,0,0.5526,2.819867E-05,8.289,0
0.5535,-1.846342E-05,8.3025,0,0.5535,-3.894102E-05,8.3025,0
0.5544,-1.342794E-06,8.316,0,0.5544,-1.577783E-05,8.316,0
0.5553,1.846342E-05,8.3295,0,0.5553,-0.0001185016,8.3295,0
0.5562,-1.309224E-05,8.343,0,0.5562,-0.0001920195,8.343,0
0.5571,-1.040665E-05,8.3565,0,0.5571,-5.404745E-05,8.3565,0
0.558,-3.793393E-05,8.37,0,0.558,-7.083238E-05,8.37,0
0.5589,-7.922484E-05,8.3835,0,0.5589,-8.526741E-05,8.3835,0
0.5598,-0.0001752346,8.397,0,0.5598,8.157473E-05,8.397,0
0.5607,-0.0001990692,8.4105,0,0.5607,6.210422E-05,8.4105,0
0.5616,-0.0001376364,8.424,0,0.5616,-4.33051E-05,8.424,0
0.5625,-0.0002131685,8.4375,0,0.5625,-1.947051E-05,8.4375,0
0.5634,-0.0002010834,8.451,0,0.5634,-3.222705E-05,8.451,0
0.5643,9.735256E-06,8.4645,0,0.5643,-9.433127E-05,8.4645,0
0.5652,0.0001205158,8.478,0,0.5652,-7.452507E-05,8.478,0
0.5661,0.0001151446,8.4915,0,0.5661,-6.78111E-05,8.4915,0
0.567,8.560311E-05,8.505,0,0.567,-0.0002386816,8.505,0
0.5679,5.438316E-05,8.5185,0,0.5679,-0.00039411,8.5185,0
0.5688,0.000144686,8.532,0,0.5688,-0.0003897459,8.532,0
0.5697,0.0002020905,8.5455,0,0.5697,-0.0003440909,8.5455,0
0.5706,6.61326E-05,8.559,0,0.5706,-0.000291722,8.559,0
0.5715,6.64683E-05,8.5725,0,0.5715,-1.242084E-05,8.5725,0
0.5724,6.54612E-05,8.586,0,0.5724,0.0004864271,8.586,0
0.5733,-3.256275E-05,8.5995,0,0.5733,0.0006703899,8.5995,0
0.5742,-3.793393E-05,8.613,0,0.5742,0.00042533,8.613,0
0.5751,9.600977E-05,8.6265,0,0.5751,0.0002913863,8.6265,0
0.576,7.217517E-05,8.64,0,0.576,0.0001591211,8.64,0
0.5769,-6.948959E-05,8.6535,0,0.5769,-0.0001443503,8.6535,0
0.5778,-0.000126894,8.667,0,0.5778,-0.0001470359,8.667,0
0.5787,-0.00021149,8.6805,0,0.5787,-3.021286E-05,8.6805,0
0.5796,-0.0001856413,8.694,0,0.5796,8.224613E-05,8.694,0
0.5805,-9.567407E-05,8.7075,0,0.5805,0.0002128328,8.7075,0
0.5814,1.947051E-05,8.721,0,0.5814,0.0002239109,8.721,0
0.5823,0.0001802701,8.7345,0,0.5823,-3.054856E-05,8.7345,0
0.5832,9.198138E-05,8.748,0,0.5832,-0.0001816129,8.748,0
0.5841,-6.881819E-05,8.7615,0,0.5841,-8.392462E-05,8.7615,0
0.585,-5.035477E-06,8.775,0,0.585,5.941863E-05,8.775,0
0.5859,2.719158E-05,8.7885,0,0.5859,0.0001138018,8.7885,0
0.5868,-1.174945E-05,8.802,0,0.5868,7.150377E-05,8.802,0
0.5877,3.927672E-05,8.8155,0,0.5877,3.994812E-05,8.8155,0
0.5886,8.426032E-05,8.829,0,0.5886,3.121996E-05,8.829,0
0.5895,-4.263371E-05,8.8425,0,0.5895,3.826963E-05,8.8425,0
0.5904,3.356985E-07,8.856,0,0.5904,-1.913481E-05,8.856,0
0.5913,4.33051E-05,8.8695,0,0.5913,-0.0001131304,8.8695,0
0.5922,1.242084E-05,8.883,0,0.5922,-0.0001816129,8.883,0
0.5931,-3.692683E-06,8.8965,0,0.5931,-0.0002208896,8.8965,0
0.594,6.6804E-05,8.91,0,0.594,-0.0002625162,8.91,0
0.5949,3.793393E-05,8.9235,0,0.5949,-0.0003125353,8.9235,0
0.5958,2.349889E-06,8.937,0,0.5958,-0.0003021286,8.937,0
0.5967,-2.014191E-06,8.9505,0,0.5967,-0.0002265965,8.9505,0
0.5976,-4.867628E-05,8.964,0,0.5976,-0.0002017548,8.964,0
0.5985,2.752728E-05,8.9775,0,0.5985,0.0001420005,8.9775,0
0.5994,2.719158E-05,8.991,0,0.5994,0.0002776226,8.991,0
0.6003,-6.076142E-05,9.0045,0,0.6003,7.586786E-05,9.0045,0
0.6012,-3.591974E-05,9.018,0,0.6012,-2.18204E-05,9.018,0
0.6021,-1.577783E-05,9.0315,0,0.6021,-0.0001732204,9.0315,0
0.603,-9.164568E-05,9.045,0,0.603,-0.000164828,9.045,0
0.6039,-7.049668E-06,9.0585,0,0.6039,-9.433127E-05,9.0585,0
0.6048,5.471885E-05,9.072001,0,0.6048,-0.000190341,9.072001,0
0.6057,-9.735256E-06,9.0855,0,0.6057,-0.0004014954,9.0855,0
0.6066,-6.64683E-05,9.099,0,0.6066,-0.0002997787,9.099,0
0.6075,-1.409934E-05,9.1125,0,0.6075,-0.000130251,9.1125,0
0.6084,7.721065E-06,9.126,0,0.6084,-3.759823E-05,9.126,0
0.6093,-2.349889E-06,9.1395,0,0.6093,3.860533E-05,9.1395,0
0.6102,1.678492E-05,9.153,0,0.6102,0.0003320058,9.153,0
0.6111,0.0001456931,9.1665,0,0.6111,0.0006327917,9.1665,0
0.612,0.0001769131,9.18,0,0.612,0.0003927672,9.18,0
0.6129,9.903105E-05,9.1935,0,0.6129,0.0002208896,9.1935,0
0.6138,2.383459E-05,9.207,0,0.6138,0.0002232395,9.207,0
0.6147,3.424125E-05,9.2205,0,0.6147,0.000148043,9.2205,0
0.6156,1.913481E-05,9.234,0,0.6156,7.821774E-05,9.234,0
0.6165,-5.404745E-05,9.2475,0,0.6165,0.0001017166,9.2475,0
0.6174,-3.591974E-05,9.261,0,0.6174,0.0001795987,9.261,0
0.6183,-2.316319E-05,9.2745,0,0.6183,0.000105745,9.2745,0
0.6192,-7.586786E-05,9.288,0,0.6192,6.143282E-05,9.288,0
0.6201,-0.0002057832,9.3015,0,0.6201,9.063859E-06,9.3015,0
0.621,-0.0002756084,9.315,0,0.621,-5.539025E-05,9.315,0
0.6219,-0.0002547952,9.3285,0,0.6219,-8.291753E-05,9.3285,0
0.6228,-0.0001332723,9.342,0,0.6228,-6.076142E-05,9.342,0
0.6237,-2.652018E-05,9.3555,0,0.6237,-0.0001013809,9.3555,0
0.6246,4.599069E-05,9.369,0,0.6246,-9.265278E-05,9.369,0
0.6255,0.0002615091,9.3825,0,0.6255,-5.572595E-05,9.3825,0
0.6264,0.0002568093,9.396,0,0.6264,-0.000102388,9.396,0
0.6273,2.450599E-05,9.4095,0,0.6273,-0.0002547952,9.4095,0
0.6282,-4.39765E-05,9.423,0,0.6282,-0.0001560998,9.423,0
0.6291,-2.349889E-06,9.4365,0,0.6291,-9.835965E-05,9.4365,0
0.63,-8.526741E-05,9.45,0,0.63,-6.042573E-06,9.45,0
0.6309,-9.701686E-05,9.4635,0,0.6309,0.000102388,9.4635,0
0.6318,-4.766919E-05,9.477,0,0.6318,2.383459E-05,9.477,0
0.6327,-6.378271E-06,9.4905,0,0.6327,-1.141375E-05,9.4905,0
0.6336,2.047761E-05,9.504,0,0.6336,-6.74754E-05,9.504,0
0.6345,-2.987716E-05,9.5175,0,0.6345,-0.0002695659,9.5175,0
0.6354,-3.625543E-05,9.531,0,0.6354,-0.0001732204,9.531,0
0.6363,1.544213E-05,9.5445,0,0.6363,-0.0001232013,9.5445,0
0.6372,-2.349889E-06,9.558,0,0.6372,-5.774014E-05,9.558,0
0.6381,-1.007095E-06,9.5715,0,0.6381,4.263371E-05,9.5715,0
0.639,-6.982528E-05,9.585,0,0.639,5.941863E-05,9.585,0
0.6399,-0.000140322,9.5985,0,0.6399,8.023193E-05,9.5985,0
0.6408,-0.0001413291,9.612,0,0.6408,6.814679E-05,9.612,0
0.6417,-6.277562E-05,9.6255,0,0.6417,-5.438316E-05,9.6255,0
0.6426,0.0001695277,9.639,0,0.6426,-0.0002077974,9.639,0
0.6435,0.0002554666,9.6525,0,0.6435,-0.0002675517,9.6525,0
0.6444,0.000164828,9.666,0,0.6444,-0.0002205539,9.666,0
0.6453,0.0001319295,9.6795,0,0.6453,-0.0001698634,9.6795,0
0.6462,-7.049668E-06,9.693,0,0.6462,-0.0001574426,9.693,0
0.6471,-9.567407E-05,9.7065,0,0.6471,-0.0001900053,9.7065,0
0.648,-7.284657E-05,9.72,0,0.648,-3.021286E-06,9.72,0
0.6489,-3.457694E-05,9.7335,0,0.6489,0.0003380484,9.7335,0
0.6498,4.632639E-05,9.747,0,0.6498,0.0004239872,9.747,0
0.6507,5.136187E-05,9.7605,0,0.6507,0.0001688563,9.7605,0
0.6516,7.687495E-05,9.774,0,0.6516,1.409934E-05,9.774,0
0.6525,6.61326E-05,9.7875,0,0.6525,-8.493171E-05,9.7875,0
0.6534,2.1149E-05,9.801,0,0.6534,-0.0001245441,9.801,0
0.6543,3.994812E-05,9.8145,0,0.6543,4.43122E-05,9.8145,0
0.6552,8.291753E-05,9.828,0,0.6552,8.69459E-05,9.828,0
0.6561,0.0001104448,9.8415,0,0.6561,6.378271E-05,9.8415,0
0.657,-1.913481E-05,9.855,0,0.657,6.042573E-06,9.855,0
0.6579,-3.021286E-05,9.8685,0,0.6579,-6.478981E-05,9.8685,0
0.6588,-9.063859E-06,9.882,0,0.6588,-1.040665E-05,9.882,0
0.6597,-0.0001211871,9.8955,0,0.6597,4.095522E-05,9.8955,0
0.6606,-7.821774E-05,9.909,0,0.6606,2.719158E-05,9.909,0
0.6615,-9.164568E-05,9.9225,0,0.6615,-0.0001366293,9.9225,0
0.6624,-7.620356E-05,9.936,0,0.6624,-0.0002366674,9.936,0
0.6633,3.927672E-05,9.9495,0,0.6633,-0.000260502,9.9495,0
0.6642,8.426032E-05,9.963,0,0.6642,-0.0001641566,9.963,0
0.6651,-1.007095E-06,9.976501,0,0.6651,-4.229801E-05,9.976501,0
0.666,1.678492E-05,9.99,0,0.666,2.349889E-06,9.99,0
0.6669,5.874724E-05,10.0035,0,0.6669,0.0001305867,10.0035,0
0.6678,-8.627451E-05,10.017,0,0.6678,0.0001930266,10.017,0
0.6687,-3.860533E-05,10.0305,0,0.6687,0.0001121233,10.0305,0
0.6696,2.24918E-05,10.044,0,0.6696,4.599069E-05,10.044,0
0.6705,-6.478981E-05,10.0575,0,0.6705,0.0001282368,10.0575,0
0.6714,-8.493171E-05,10.071,0,0.6714,9.365987E-05,10.071,0
0.6723,-4.39765E-05,10.0845,0,0.6723,-5.404745E-05,10.0845,0
0.6732,2.349889E-06,10.098,0,0.6732,-5.539025E-05,10.098,0
0.6741,-4.095522E-05,10.1115,0,0.6741,-1.644922E-05,10.1115,0
0.675,-4.095522E-05,10.125,0,0.675,-0.0001060807,10.125,0
0.6759,7.721065E-06,10.1385,0,0.6759,-5.740444E-05,10.1385,0
0.6768,-7.721065E-06,10.152,0,0.6768,3.726253E-05,10.152,0
0.6777,-7.016098E-05,10.1655,0,0.6777,-2.584878E-05,10.1655,0
0.6786,-6.243992E-05,10.179,0,0.6786,-3.356985E-05,10.179,0
0.6795,-5.236896E-05,10.1925,0,0.6795,-2.047761E-05,10.1925,0
0.6804,3.457694E-05,10.206,0,0.6804,-3.054856E-05,10.206,0
0.6813,2.652018E-05,10.2195,0,0.6813,3.692683E-06,10.2195,0
0.6822,-2.047761E-05,10.233,0,0.6822,-0.0001164874,10.233,0
0.6831,5.706874E-06,10.2465,0,0.6831,-0.0002541238,10.2465,0
0.684,-2.047761E-05,10.26,0,0.684,5.706874E-06,10.26,0
0.6849,2.349889E-06,10.2735,0,0.6849,0.000164828,10.2735,0
0.6858,-5.471885E-05,10.287,0,0.6858,-7.855344E-05,10.287,0
0.6867,-0.0001534142,10.3005,0,0.6867,-0.0002329748,10.3005,0
0.6876,-0.0001467002,10.314,0,0.6876,-0.0002735943,10.314,0
0.6885,-0.000105745,10.3275,0,0.6885,-0.0002514381,10.3275,0
0.6894,-9.701686E-05,10.341,0,0.6894,-0.0001728847,10.341,0
0.6903,-2.853437E-05,10.3545,0,0.6903,6.64683E-05,10.3545,0
0.6912,-5.706874E-06,10.368,0,0.6912,0.0005592736,10.368,0
0.6921,7.418937E-05,10.3815,0,0.6921,0.000506569,10.3815,0
0.693,0.0001560998,10.395,0,0.693,0.0001977264,10.395,0
0.6939,3.726253E-05,10.4085,0,0.6939,6.6804E-05,10.4085,0
0.6948,-5.337606E-05,10.422,0,0.6948,3.021286E-05,10.422,0
0.6957,-1.007095E-06,10.4355,0,0.6957,-2.28275E-05,10.4355,0
0.6966,9.634547E-05,10.449,0,0.6966,-7.049668E-05,10.449,0
0.6975,-2.316319E-05,10.4625,0,0.6975,-4.934768E-05,10.4625,0
0.6984,-4.53193E-05,10.476,0,0.6984,-7.083238E-05,10.476,0
0.6993,2.887007E-05,10.4895,0,0.6993,-0.0001265583,10.4895,0
0.7002,-2.987716E-05,10.503,0,0.7002,-0.0001386435,10.503,0
0.7011,-4.028382E-05,10.5165,0,0.7011,-0.0001228656,10.5165,0
0.702,2.652018E-05,10.53,0,0.702,-0.0001164874,10.53,0
0.7029,-4.53193E-05,10.5435,0,0.7029,-0.0001037308,10.5435,0
0.7038,-2.853437E-05,10.557,0,0.7038,-8.090334E-05,10.557,0
0.7047,-2.047761E-05,10.5705,0,0.7047,-1.040665E-05,10.5705,0
0.7056,-9.970245E-05,10.584,0,0.7056,3.961242E-05,10.584,0
0.7065,-9.231708E-05,10.5975,0,0.7065,4.36408E-06,10.5975,0
0.7074,-4.53193E-05,10.611,0,0.7074,-4.129091E-05,10.611,0
0.7083,-2.383459E-05,10.6245,0,0.7083,-3.054856E-05,10.6245,0
0.7092,0.0001144732,10.638,0,0.7092,-1.712062E-05,10.638,0
0.7101,0.0001366293,10.6515,0,0.7101,-4.733349E-05,10.6515,0
0.711,-1.141375E-05,10.665,0,0.711,-4.800488E-05,10.665,0
0.7119,1.510643E-05,10.6785,0,0.7119,-4.934768E-05,10.6785,0
0.7128,5.404745E-05,10.692,0,0.7128,-7.351797E-05,10.692,0
0.7137,7.217517E-05,10.7055,0,0.7137,-3.860533E-05,10.7055,0
0.7146,-1.980621E-05,10.719,0,0.7146,-2.417029E-05,10.719,0
0.7155,9.365987E-05,10.7325,0,0.7155,-2.719158E-05,10.7325,0
0.7164,0.0001406577,10.746,0,0.7164,1.477073E-05,10.746,0
0.7173,9.634547E-05,10.7595,0,0.7173,1.812772E-05,10.7595,0
0.7182,0.0001262226,10.773,0,0.7182,4.028382E-05,10.773,0
0.7191,0.0001305867,10.7865,0,0.7191,9.735256E-06,10.7865,0
0.72,8.82887E-05,10.8,0,0.72,-2.719158E-05,10.8,0
0.7209,-5.236896E-05,10.8135,0,0.7209,-3.726253E-05,10.8135,0
0.7218,-0.00021149,10.827,0,0.7218,-2.685588E-06,10.827,0
0.7227,-0.000228275,10.8405,0,0.7227,-1.678492E-06,10.8405,0
0.7236,-0.0002239109,10.854,0,0.7236,-7.183947E-05,10.854,0
0.7245,-0.0002366674,10.8675,0,0.7245,-6.948959E-05,10.8675,0
0.7254,-0.0001809415,10.881,0,0.7254,-6.51255E-05,10.881,0
0.7263,-0.0001067521,10.8945,0,0.7263,-8.493171E-05,10.8945,0
0.7272,-7.183947E-05,10.908,0,0.7272,-7.486076E-05,10.908,0
0.7281,-9.903105E-05,10.9215,0,0.7281,-5.102617E-05,10.9215,0
0.729,-5.404745E-05,10.935,0,0.729,-3.457694E-05,10.935,0
0.7299,1.007095E-06,10.9485,0,0.7299,-4.666209E-05,10.9485,0
0.7308,7.754635E-05,10.962,0,0.7308,-5.035477E-05,10.962,0
0.7317,9.768826E-05,10.9755,0,0.7317,-2.517739E-05,10.9755,0
0.7326,4.666209E-05,10.989,0,0.7326,6.713969E-06,10.989,0
0.7335,0.0001070878,11.0025,0,0.7335,3.088426E-05,11.0025,0
0.7344,0.0001443503,11.016,0,0.7344,5.539025E-05,11.016,0
0.7353,7.284657E-05,11.0295,0,0.7353,9.097429E-05,11.0295,0
0.7362,5.337606E-05,11.043,0,0.7362,5.975433E-05,11.043,0
0.7371,9.433127E-05,11.0565,0,0.7371,2.316319E-05,11.0565,0
0.738,3.692683E-06,11.07,0,0.738,3.927672E-05,11.07,0
0.7389,-4.263371E-05,11.0835,0,0.7389,4.162661E-05,11.0835,0
0.7398,3.558404E-05,11.097,0,0.7398,3.356985E-07,11.097,0
0.7407,6.915389E-05,11.1105,0,0.7407,1.846342E-05,11.1105,0
0.7416,2.786297E-05,11.124,0,0.7416,4.263371E-05,11.124,0
0.7425,3.121996E-05,11.1375,0,0.7425,3.289845E-05,11.1375,0
0.7434,8.090334E-05,11.151,0,0.7434,1.376364E-05,11.151,0
0.7443,9.365987E-05,11.1645,0,0.7443,3.289845E-05,11.1645,0
0.7452,7.150377E-05,11.178,0,0.7452,2.920577E-05,11.178,0
0.7461,2.786297E-05,11.1915,0,0.7461,1.879912E-05,11.1915,0
0.747,3.726253E-05,11.205,0,0.747,-4.36408E-06,11.205,0
0.7479,8.493171E-05,11.2185,0,0.7479,-1.913481E-05,11.2185,0
0.7488,7.888914E-05,11.232,0,0.7488,-1.275654E-05,11.232,0
0.7497,-6.378271E-06,11.2455,0,0.7497,-5.673304E-05,11.2455,0
0.7506,2.014191E-06,11.259,0,0.7506,-0.0001211871,11.259,0
0.7515,-3.692683E-05,11.2725,0,0.7515,-9.567407E-05,11.2725,0
0.7524,-7.183947E-05,11.286,0,0.7524,-7.318227E-05,11.286,0
0.7533,-5.001907E-05,11.2995,0,0.7533,-0.0001225299,11.2995,0
0.7542,-0.0001003738,11.313,0,0.7542,-8.72816E-05,11.313,0
0.7551,-0.0001279011,11.3265,0,0.7551,-1.174945E-05,11.3265,0
0.756,-9.735256E-05,11.34,0,0.756,1.141375E-05,11.34,0
0.7569,-3.692683E-05,11.3535,0,0.7569,8.728161E-06,11.3535,0
0.7578,1.510643E-05,11.367,0,0.7578,3.054856E-05,11.367,0
0.7587,-3.927672E-05,11.3805,0,0.7587,6.54612E-05,11.3805,0
0.7596,-6.210422E-05,11.394,0,0.7596,5.471885E-05,11.394,0
0.7605,4.699779E-06,11.4075,0,0.7605,1.577783E-05,11.4075,0
0.7614,7.721065E-06,11.421,0,0.7614,-1.074235E-05,11.421,0
0.7623,-5.438316E-05,11.4345,0,0.7623,-5.673304E-05,11.4345,0
0.7632,-2.316319E-05,11.448,0,0.7632,-7.754635E-05,11.448,0
0.7641,2.1149E-05,11.4615,0,0.7641,-7.855344E-05,11.4615,0
0.765,-4.061952E-05,11.475,0,0.765,-3.793393E-05,11.475,0
0.7659,-7.049668E-06,11.4885,0,0.7659,-5.069047E-05,11.4885,0
0.7668,2.1149E-05,11.502,0,0.7668,-7.385367E-05,11.502,0
0.7677,-9.198138E-05,11.5155,0,0.7677,-6.210422E-05,11.5155,0
0.7686,-6.478981E-05,11.529,0,0.7686,-6.411841E-05,11.529,0
0.7695,5.035477E-06,11.5425,0,0.7695,-8.426032E-05,11.5425,0
0.7704,-1.779202E-05,11.556,0,0.7704,-8.493171E-05,11.556,0
0.7713,2.24918E-05,11.5695,0,0.7713,-9.298848E-05,11.5695,0
0.7722,2.752728E-05,11.583,0,0.7722,-3.927672E-05,11.583,0
0.7731,2.24918E-05,11.5965,0,0.7731,4.934768E-05,11.5965,0
0.774,5.438316E-05,11.61,0,0.774,3.692683E-05,11.61,0
0.7749,5.069047E-05,11.6235,0,0.7749,-3.927672E-05,11.6235,0
0.7758,-4.129091E-05,11.637,0,0.7758,-3.927672E-05,11.637,0
0.7767,-2.316319E-05,11.6505,0,0.7767,-3.021286E-05,11.6505,0
0.7776,4.061952E-05,11.664,0,0.7776,-4.867628E-05,11.664,0
0.7785,-3.021286E-06,11.6775,0,0.7785,-2.987716E-05,11.6775,0
0.7794,-1.913481E-05,11.691,0,0.7794,-8.358892E-05,11.691,0
0.7803,2.1149E-05,11.7045,0,0.7803,-0.0001507286,11.7045,0
0.7812,0,11.718,0,0.7812,-0.0001332723,11.718,0
0.7821,-3.927672E-05,11.7315,0,0.7821,-6.915389E-05,11.7315,0
0.783,-1.644922E-05,11.745,0,0.783,-3.860533E-05,11.745,0
0.7839,-3.121996E-05,11.7585,0,0.7839,1.678492E-06,11.7585,0
0.7848,-2.316319E-05,11.772,0,0.7848,0.0001520714,11.772,0
0.7857,2.987716E-05,11.7855,0,0.7857,0.0002625162,11.7855,0
0.7866,1.913481E-05,11.799,0,0.7866,0.0002084688,11.799,0
0.7875,-1.678492E-05,11.8125,0,0.7875,0.0001554284,11.8125,0
0.7884,2.047761E-05,11.826,0,0.7884,9.701686E-05,11.826,0
0.7893,2.887007E-05,11.8395,0,0.7893,4.36408E-05,11.8395,0
0.7902,1.376364E-05,11.853,0,0.7902,-3.356985E-07,11.853,0
0.7911,4.39765E-05,11.8665,0,0.7911,-5.673304E-05,11.8665,0
0.792,6.378271E-06,11.88,0,0.792,-4.53193E-05,11.88,0
0.7929,-1.275654E-05,11.8935,0,0.7929,-5.102617E-05,11.8935,0
0.7938,1.913481E-05,11.907,0,0.7938,-6.74754E-05,11.907,0
0.7947,-3.155566E-05,11.9205,0,0.7947,-6.143282E-05,11.9205,0
0.7956,-6.210422E-05,11.934,0,0.7956,-7.284657E-05,11.934,0
0.7965,-5.035477E-05,11.9475,0,0.7965,-9.332418E-05,11.9475,0
0.7974,-3.021286E-05,11.961,0,0.7974,-8.560311E-05,11.961,0
0.7983,-1.779202E-05,11.9745,0,0.7983,-0.0001225299,11.9745,0
0.7992,-6.74754E-05,11.988,0,0.7992,-7.586786E-05,11.988,0
0.8001,-0.0001101091,12.0015,0,0.8001,-9.063859E-06,12.0015,0
0.801,-0.000154757,12.015,0,0.801,-1.980621E-05,12.015,0
0.8019,-0.0001785916,12.0285,0,0.8019,-3.726253E-05,12.0285,0
0.8028,-0.0002326391,12.042,0,0.8028,-8.392462E-06,12.042,0
0.8037,-0.0001564355,12.0555,0,0.8037,-2.484169E-05,12.0555,0
0.8046,-0.0001174945,12.069,0,0.8046,-6.54612E-05,12.069,0
0.8055,-0.0001399863,12.0825,0,0.8055,-4.33051E-05,12.0825,0
0.8064,-6.378271E-05,12.096,0,0.8064,-4.49836E-05,12.096,0
0.8073,-3.054856E-05,12.1095,0,0.8073,-6.78111E-05,12.1095,0
0.8082,-4.196231E-05,12.123,0,0.8082,-8.69459E-05,12.123,0
0.8091,6.378271E-06,12.1365,0,0.8091,-9.835965E-05,12.1365,0
0.81,7.754635E-05,12.15,0,0.81,-8.358892E-05,12.15,0
0.8109,0.0001258869,12.1635,0,0.8109,-4.599069E-05,12.1635,0
0.8118,0.0001900053,12.177,0,0.8118,-1.174945E-05,12.177,0
0.8127,0.0001540856,12.1905,0,0.8127,6.915389E-05,12.1905,0
0.8136,8.996719E-05,12.204,0,0.8136,8.291753E-05,12.204,0
0.8145,0.0001097734,12.2175,0,0.8145,6.143282E-05,12.2175,0
0.8154,0.0001299153,12.231,0,0.8154,5.807584E-05,12.231,0
0.8163,3.021286E-05,12.2445,0,0.8163,8.157473E-05,12.2445,0
0.8172,4.229801E-05,12.258,0,0.8172,6.009003E-05,12.258,0
0.8181,9.030289E-05,12.2715,0,0.8181,3.692683E-05,12.2715,0
0.819,-1.275654E-05,12.285,0,0.819,4.934768E-05,12.285,0
0.8199,-1.712062E-05,12.2985,0,0.8199,5.203327E-05,12.2985,0
0.8208,4.43122E-05,12.312,0,0.8208,1.040665E-05,12.312,0
0.8217,7.687495E-05,12.3255,0,0.8217,1.309224E-05,12.3255,0
0.8226,-2.450599E-05,12.339,0,0.8226,-9.399558E-06,12.339,0
0.8235,2.21561E-05,12.3525,0,0.8235,-5.069047E-05,12.3525,0
0.8244,3.189136E-05,12.366,0,0.8244,-0.000112459,12.366,0
0.8253,3.625543E-05,12.3795,0,0.8253,-0.0001554284,12.3795,0
0.8262,8.728161E-06,12.393,0,0.8262,-0.0001104448,12.393,0
0.8271,-1.242084E-05,12.4065,0,0.8271,-0.0001007095,12.4065,0
0.828,9.500267E-05,12.42,0,0.828,-6.51255E-05,12.42,0
0.8289,0.0001607996,12.4335,0,0.8289,-4.129091E-05,12.4335,0
0.8298,0.0001393149,12.447,0,0.8298,5.874724E-05,12.447,0
0.8307,0.0001695277,12.4605,0,0.8307,8.224613E-05,12.4605,0
0.8316,0.0001819486,12.474,0,0.8316,-1.846342E-05,12.474,0
0.8325,8.426032E-05,12.4875,0,0.8325,-3.323415E-05,12.4875,0
0.8334,0.0001060807,12.501,0,0.8334,-3.927672E-05,12.501,0
0.8343,6.6804E-05,12.5145,0,0.8343,-7.553216E-05,12.5145,0
0.8352,-0.0001094377,12.528,0,0.8352,-7.486076E-05,12.528,0
0.8361,-0.0001977264,12.5415,0,0.8361,-3.591974E-05,12.5415,0
0.837,-0.0002242466,12.555,0,0.837,-2.987716E-05,12.555,0
0.8379,-0.0002521096,12.5685,0,0.8379,-2.1149E-05,12.5685,0
0.8388,-0.0002057832,12.582,0,0.8388,-2.786297E-05,12.582,0
0.8397,-0.0001973907,12.5955,0,0.8397,5.035477E-06,12.5955,0
0.8406,-0.0002312963,12.609,0,0.8406,2.047761E-05,12.609,0
0.8415,-0.0001584497,12.6225,0,0.8415,6.713969E-07,12.6225,0
0.8424,-4.934768E-05,12.636,0,0.8424,1.678492E-06,12.636,0
0.8433,-7.956054E-05,12.6495,0,0.8433,3.994812E-05,12.6495,0
0.8442,-3.524834E-05,12.663,0,0.8442,3.491264E-05,12.663,0
0.8451,3.860533E-05,12.6765,0,0.8451,3.356985E-07,12.6765,0
0.846,-1.141375E-05,12.69,0,0.846,1.443504E-05,12.69,0
0.8469,6.411841E-05,12.7035,0,0.8469,1.309224E-05,12.7035,0
0.8478,7.586786E-05,12.717,0,0.8478,7.721065E-06,12.717,0
0.8487,-7.653925E-05,12.7305,0,0.8487,2.584878E-05,12.7305,0
0.8496,-5.975433E-05,12.744,0,0.8496,2.987716E-05,12.744,0
0.8505,4.061952E-05,12.7575,0,0.8505,1.309224E-05,12.7575,0
0.8514,7.217517E-05,12.771,0,0.8514,-1.678492E-06,12.771,0
0.8523,0.000102388,12.7845,0,0.8523,-2.18204E-05,12.7845,0
0.8532,0.0001080949,12.798,0,0.8532,-7.049668E-06,12.798,0
0.8541,3.390555E-05,12.8115,0,0.8541,-2.349889E-06,12.8115,0
0.855,1.980621E-05,12.825,0,0.855,-2.18204E-05,12.825,0
0.8559,7.351797E-05,12.8385,0,0.8559,-9.735256E-06,12.8385,0
0.8568,5.136187E-05,12.852,0,0.8568,1.879912E-05,12.852,0
0.8577,4.129091E-05,12.8655,0,0.8577,-3.692683E-06,12.8655,0
0.8586,8.291753E-05,12.879,0,0.8586,-4.49836E-05,12.879,0
0.8595001,2.21561E-05,12.8925,0,0.8595001,-1.007095E-05,12.8925,0
0.8604,-2.853437E-05,12.906,0,0.8604,3.356985E-07,12.906,0
0.8613,2.618448E-05,12.9195,0,0.8613,-3.289845E-05,12.9195,0
0.8622,7.687495E-05,12.933,0,0.8622,-1.745632E-05,12.933,0
0.8631,-3.424125E-05,12.9465,0,0.8631,-2.081331E-05,12.9465,0
0.864,-3.256275E-05,12.96,0,0.864,-5.874724E-05,12.96,0
0.8649,4.36408E-06,12.9735,0,0.8649,-9.500267E-05,12.9735,0
0.8658,-5.371176E-06,12.987,0,0.8658,-0.0001111162,12.987,0
0.8667,-7.385367E-05,13.0005,0,0.8667,-0.000102388,13.0005,0
0.8676,-3.961242E-05,13.014,0,0.8676,-7.351797E-05,13.014,0
0.8685,7.385367E-06,13.0275,0,0.8685,-7.788205E-05,13.0275,0
0.8694,-3.659113E-05,13.041,0,0.8694,-6.948959E-05,13.041,0
0.8703,-3.189136E-05,13.0545,0,0.8703,-2.819867E-05,13.0545,0
0.8712,5.035477E-06,13.068,0,0.8712,-4.800488E-05,13.068,0
0.8721,4.49836E-05,13.0815,0,0.8721,-7.418937E-05,13.0815,0
0.873,-2.450599E-05,13.095,0,0.873,-5.539025E-05,13.095,0
0.8739,-3.826963E-05,13.1085,0,0.8739,-5.807584E-05,13.1085,0
0.8748,-1.913481E-05,13.122,0,0.8748,-8.090334E-05,13.122,0
0.8757,-3.961242E-05,13.1355,0,0.8757,-6.478981E-05,13.1355,0
0.8766,-9.231708E-05,13.149,0,0.8766,-3.256275E-05,13.149,0
0.8775,-8.291753E-05,13.1625,0,0.8775,-1.779202E-05,13.1625,0
0.8784,-0.0001070878,13.176,0,0.8784,6.042573E-06,13.176,0
0.8793,-8.89601E-05,13.1895,0,0.8793,-2.987716E-05,13.1895,0
0.8802,-0.0001003738,13.203,0,0.8802,-1.644922E-05,13.203,0
0.8811,-0.0001013809,13.2165,0,0.8811,1.342794E-05,13.2165,0
0.882,-4.599069E-05,13.23,0,0.882,0,13.23,0
0.8829,-3.726253E-05,13.2435,0,0.8829,3.457694E-05,13.2435,0
0.8838,-9.365987E-05,13.257,0,0.8838,9.634547E-05,13.257,0
0.8847,-3.021286E-05,13.2705,0,0.8847,5.606165E-05,13.2705,0
0.8856,4.263371E-05,13.284,0,0.8856,-1.745632E-05,13.284,0
0.8865,-2.047761E-05,13.2975,0,0.8865,-5.706874E-06,13.2975,0
0.8874,-2.920577E-05,13.311,0,0.8874,-7.049668E-06,13.311,0
0.8883,3.659113E-05,13.3245,0,0.8883,-3.424125E-05,13.3245,0
0.8892,3.994812E-05,13.338,0,0.8892,-1.678492E-05,13.338,0
0.8901,8.392462E-06,13.3515,0,0.8901,6.74754E-05,13.3515,0
0.891,0.0001033951,13.365,0,0.891,0.0001299153,13.365,0
0.8919,4.666209E-05,13.3785,0,0.8919,0.0001064164,13.3785,0
0.8928,4.028382E-06,13.392,0,0.8928,1.812772E-05,13.392,0
0.8937,0,13.4055,0,0.8937,-1.678492E-06,13.4055,0
0.8946,-4.968337E-05,13.419,0,0.8946,2.484169E-05,13.419,0
0.8955,-5.673304E-05,13.4325,0,0.8955,1.745632E-05,13.4325,0
0.8964,-1.275654E-05,13.446,0,0.8964,1.141375E-05,13.446,0
0.8973,-2.316319E-05,13.4595,0,0.8973,3.659113E-05,13.4595,0
0.8982,-4.36408E-05,13.473,0,0.8982,4.699779E-05,13.473,0
0.8991,2.24918E-05,13.4865,0,0.8991,-1.644922E-05,13.4865,0
0.9,-4.028382E-06,13.5,0,0.9,-1.174945E-05,13.5,0
0.9009,-4.33051E-05,13.5135,0,0.9009,-2.618448E-05,13.5135,0
0.9018,2.24918E-05,13.527,0,0.9018,-5.673304E-05,13.527,0
0.9027,5.471885E-05,13.5405,0,0.9027,-4.699779E-05,13.5405,0
0.9036,1.275654E-05,13.554,0,0.9036,-2.719158E-05,13.554,0
0.9045,9.063859E-06,13.5675,0,0.9045,-3.424125E-05,13.5675,0
0.9054,4.800488E-05,13.581,0,0.9054,-4.800488E-05,13.581,0
0.9063,5.270466E-05,13.5945,0,0.9063,-8.627451E-05,13.5945,0
0.9072,-4.36408E-06,13.608,0,0.9072,-5.740444E-05,13.608,0
0.9081,-1.510643E-05,13.6215,0,0.9081,-4.39765E-05,13.6215,0
0.909,4.934768E-05,13.635,0,0.909,-4.733349E-05,13.635,0
0.9099,1.678492E-06,13.6485,0,0.9099,-6.311131E-05,13.6485,0
0.9108,-5.270466E-05,13.662,0,0.9108,-5.404745E-05,13.662,0
0.9117,1.980621E-05,13.6755,0,0.9117,-5.001907E-05,13.6755,0
0.9126,3.860533E-05,13.689,0,0.9126,-5.706874E-05,13.689,0
0.9135,-9.164568E-05,13.7025,0,0.9135,-1.544213E-05,13.7025,0
0.9144,-7.083238E-05,13.716,0,0.9144,5.706874E-06,13.716,0
0.9153,4.599069E-05,13.7295,0,0.9153,-2.887007E-05,13.7295,0
0.9162,0.000161471,13.743,0,0.9162,-2.24918E-05,13.743,0
0.9171,0.0001346151,13.7565,0,0.9171,4.028382E-06,13.7565,0
0.918,8.69459E-05,13.77,0,0.918,-1.980621E-05,13.77,0
0.9189,7.486076E-05,13.7835,0,0.9189,-3.289845E-05,13.7835,0
0.9198,8.96315E-05,13.797,0,0.9198,-4.599069E-05,13.797,0
0.9207,2.316319E-05,13.8105,0,0.9207,-2.517739E-05,13.8105,0
0.9216,-2.383459E-05,13.824,0,0.9216,-4.36408E-06,13.824,0
0.9225,1.040665E-05,13.8375,0,0.9225,-3.793393E-05,13.8375,0
0.9234,1.846342E-05,13.851,0,0.9234,-3.189136E-05,13.851,0
0.9243,-8.661021E-05,13.8645,0,0.9243,1.040665E-05,13.8645,0
0.9252,-8.090334E-05,13.878,0,0.9252,6.713969E-07,13.878,0
0.9261,2.786297E-05,13.8915,0,0.9261,-9.735256E-06,13.8915,0
0.927,-5.136187E-05,13.905,0,0.927,1.376364E-05,13.905,0
0.9279,-0.000102388,13.9185,0,0.9279,-1.409934E-05,13.9185,0
0.9288,-4.800488E-05,13.932,0,0.9288,-4.934768E-05,13.932,0
0.9297,-7.586786E-05,13.9455,0,0.9297,-6.61326E-05,13.9455,0
0.9306,-0.0001383078,13.959,0,0.9306,-7.217517E-05,13.959,0
0.9315,-9.265278E-05,13.9725,0,0.9315,-7.016098E-05,13.9725,0
0.9324,-6.109713E-05,13.986,0,0.9324,-5.874724E-05,13.986,0
0.9333,-9.869535E-05,13.9995,0,0.9333,-7.754635E-05,13.9995,0
0.9342,-9.567407E-05,14.013,0,0.9342,-5.203327E-05,14.013,0
0.9351,-8.761731E-05,14.0265,0,0.9351,-3.323415E-05,14.0265,0
0.936,-0.0001117876,14.04,0,0.936,-5.169757E-05,14.04,0
0.9369,-7.217517E-05,14.0535,0,0.9369,-6.311131E-05,14.0535,0
0.9378,-9.063859E-05,14.067,0,0.9378,-2.786297E-05,14.067,0
0.9387,-0.0001232013,14.0805,0,0.9387,-4.229801E-05,14.0805,0
0.9396001,-9.433127E-05,14.094,0,0.9396001,-5.975433E-05,14.094,0
0.9405,-0.0001440146,14.1075,0,0.9405,-9.063859E-06,14.1075,0
0.9414001,-9.164568E-05,14.121,0,0.9414001,-1.107805E-05,14.121,0
0.9423,4.934768E-05,14.1345,0,0.9423,-4.43122E-05,14.1345,0
0.9432001,0.000161471,14.148,0,0.9432001,-1.409934E-05,14.148,0
0.9441,0.0002098116,14.1615,0,0.9441,1.577783E-05,14.1615,0
0.9450001,0.0002400244,14.175,0,0.9450001,-1.678492E-05,14.175,0
0.9459,0.0002088045,14.1885,0,0.9459,-1.678492E-05,14.1885,0
0.9468,0.0001527428,14.202,0,0.9468,-3.155566E-05,14.202,0
0.9477,5.203327E-05,14.2155,0,0.9477,-5.706874E-06,14.2155,0
0.9486,1.007095E-06,14.229,0,0.9486,3.189136E-05,14.229,0
0.9495,4.968337E-05,14.2425,0,0.9495,-4.36408E-06,14.2425,0
0.9504,-1.007095E-05,14.256,0,0.9504,-8.392462E-06,14.256,0
0.9513,-2.1149E-05,14.2695,0,0.9513,5.069047E-05,14.2695,0
0.9522,5.069047E-05,14.283,0,0.9522,3.289845E-05,14.283,0
0.9531,5.841154E-05,14.2965,0,0.9531,3.356985E-07,14.2965,0
0.954,1.174945E-05,14.31,0,0.954,1.443504E-05,14.31,0
0.9549,4.43122E-05,14.3235,0,0.9549,3.256275E-05,14.3235,0
0.9558,6.881819E-05,14.337,0,0.9558,1.309224E-05,14.337,0
0.9567,3.692683E-06,14.3505,0,0.9567,-9.735256E-06,14.3505,0
0.9576,-4.666209E-05,14.364,0,0.9576,-3.356985E-07,14.364,0
0.9585,2.517739E-05,14.3775,0,0.9585,7.721065E-06,14.3775,0
0.9594,2.383459E-05,14.391,0,0.9594,2.349889E-06,14.391,0
0.9603,5.035477E-05,14.4045,0,0.9603,-2.887007E-05,14.4045,0
0.9612,8.023193E-05,14.418,0,0.9612,-2.316319E-05,14.418,0
0.9621,5.471885E-05,14.4315,0,0.9621,-3.088426E-05,14.4315,0
0.963,5.001907E-05,14.445,0,0.963,-4.733349E-05,14.445,0
0.9639,7.083238E-05,14.4585,0,0.9639,-3.390555E-05,14.4585,0
0.9648,-1.174945E-05,14.472,0,0.9648,2.081331E-05,14.472,0
0.9657,9.063859E-06,14.4855,0,0.9657,3.826963E-05,14.4855,0
0.9666,5.270466E-05,14.499,0,0.9666,3.625543E-05,14.499,0
0.9675,-1.040665E-05,14.5125,0,0.9675,4.39765E-05,14.5125,0
0.9684,-3.256275E-05,14.526,0,0.9684,1.577783E-05,14.526,0
0.9693,-1.275654E-05,14.5395,0,0.9693,-2.517739E-05,14.5395,0
0.9702,-3.189136E-05,14.553,0,0.9702,-3.121996E-05,14.553,0
0.9711,-0.0001064164,14.5665,0,0.9711,-3.021286E-06,14.5665,0
0.972,-6.411841E-05,14.58,0,0.972,1.309224E-05,14.58,0
0.9729,-2.18204E-05,14.5935,0,0.9729,-1.779202E-05,14.5935,0
0.9738,-4.43122E-05,14.607,0,0.9738,-4.39765E-05,14.607,0
0.9747,-7.351797E-05,14.6205,0,0.9747,-3.021286E-05,14.6205,0
0.9756,-5.404745E-05,14.634,0,0.9756,1.678492E-06,14.634,0
0.9765,-2.517739E-05,14.6475,0,0.9765,-2.719158E-05,14.6475,0
0.9774,-5.471885E-05,14.661,0,0.9774,-3.491264E-05,14.661,0
0.9783,-6.344701E-05,14.6745,0,0.9783,2.316319E-05,14.6745,0
0.9792,-6.478981E-05,14.688,0,0.9792,1.409934E-05,14.688,0
0.9801,-1.577783E-05,14.7015,0,0.9801,-1.913481E-05,14.7015,0
0.981,-7.083238E-05,14.715,0,0.981,3.356985E-05,14.715,0
0.9819,-6.210422E-05,14.7285,0,0.9819,4.733349E-05,14.7285,0
0.9828,-4.43122E-05,14.742,0,0.9828,1.577783E-05,14.742,0
0.9837,-4.599069E-05,14.7555,0,0.9837,1.309224E-05,14.7555,0
0.9846,-6.74754E-05,14.769,0,0.9846,-2.517739E-05,14.769,0
0.9855,-9.298848E-05,14.7825,0,0.9855,-6.076142E-05,14.7825,0
0.9864,-0.000123537,14.796,0,0.9864,-6.143282E-05,14.796,0
0.9873,-4.53193E-05,14.8095,0,0.9873,-8.761731E-05,14.8095,0
0.9882,-5.471885E-05,14.823,0,0.9882,-7.116808E-05,14.823,0
0.9891,-3.558404E-05,14.8365,0,0.9891,-5.740444E-05,14.8365,0
0.99,3.625543E-05,14.85,0,0.99,-7.754635E-05,14.85,0
0.9909,6.378271E-06,14.8635,0,0.9909,-7.016098E-05,14.8635,0
0.9918,-4.632639E-05,14.877,0,0.9918,-3.021286E-05,14.877,0
0.9927,-2.450599E-05,14.8905,0,0.9927,-4.733349E-05,14.8905,0
0.9936,3.155566E-05,14.904,0,0.9936,-7.116808E-05,14.904,0
0.9945,-4.33051E-05,14.9175,0,0.9945,-3.591974E-05,14.9175,0
0.9954,-4.229801E-05,14.931,0,0.9954,-3.961242E-05,14.931,0
0.9963,4.800488E-05,14.9445,0,0.9963,-5.539025E-05,14.9445,0
0.9972,1.577783E-05,14.958,0,0.9972,-5.102617E-05,14.958,0
0.9981,-1.510643E-05,14.9715,0,0.9981,-2.551309E-05,14.9715,0
0.999,4.901198E-05,14.985,0,0.999,-3.323415E-05,14.985,0
0.9999,2.349889E-05,14.9985,0,0.9999,-3.222705E-05,14.9985,0
1.0008,5.874724E-05,15.012,0,1.0008,-4.36408E-05,15.012,0
1.0017,5.069047E-05,15.0255,0,1.0017,-2.987716E-05,15.0255,0
1.0026,-3.256275E-05,15.039,0,1.0026,-1.980621E-05,15.039,0
1.0035,0,15.0525,0,1.0035,-4.733349E-05,15.0525,0
1.0044,4.733349E-05,15.066,0,1.0044,-6.210422E-05,15.066,0
1.0053,3.289845E-05,15.0795,0,1.0053,-4.733349E-05,15.0795,0
1.0062,1.342794E-05,15.093,0,1.0062,-6.74754E-05,15.093,0
1.0071,5.874724E-05,15.1065,0,1.0071,-8.92958E-05,15.1065,0
1.008,2.987716E-05,15.12,0,1.008,-3.625543E-05,15.12,0
1.0089,5.035477E-06,15.1335,0,1.0089,-1.644922E-05,15.1335,0
1.0098,3.256275E-05,15.147,0,1.0098,-1.913481E-05,15.147,0
1.0107,5.740444E-05,15.1605,0,1.0107,-1.107805E-05,15.1605,0
1.0116,7.721065E-06,15.174,0,1.0116,1.980621E-05,15.174,0
1.0125,-7.049668E-06,15.1875,0,1.0125,1.644922E-05,15.1875,0
1.0134,0,15.201,0,1.0134,5.035477E-06,15.201,0
1.0143,1.007095E-06,15.2145,0,1.0143,6.713969E-07,15.2145,0
1.0152,-4.699779E-06,15.228,0,1.0152,1.577783E-05,15.228,0
1.0161,2.752728E-05,15.2415,0,1.0161,2.618448E-05,15.2415,0
1.017,6.74754E-05,15.255,0,1.017,1.342794E-06,15.255,0
1.0179,2.920577E-05,15.2685,0,1.0179,1.040665E-05,15.2685,0
1.0188,-1.712062E-05,15.282,0,1.0188,2.853437E-05,15.282,0
1.0197,7.721065E-06,15.2955,0,1.0197,9.063859E-06,15.2955,0
1.0206,8.392462E-06,15.309,0,1.0206,-1.779202E-05,15.309,0
1.0215,-6.74754E-05,15.3225,0,1.0215,-7.721065E-06,15.3225,0
1.0224,-8.157473E-05,15.336,0,1.0224,-3.457694E-05,15.336,0
1.0233,-6.009003E-05,15.3495,0,1.0233,-5.102617E-05,15.3495,0
1.0242,-6.344701E-05,15.363,0,1.0242,-4.33051E-05,15.363,0
1.0251,-5.740444E-05,15.3765,0,1.0251,-1.107805E-05,15.3765,0
1.026,-5.874724E-05,15.39,0,1.026,-1.712062E-05,15.39,0
1.0269,-1.275654E-05,15.4035,0,1.0269,-1.174945E-05,15.4035,0
1.0278,3.726253E-05,15.417,0,1.0278,-1.678492E-05,15.417,0
1.0287,6.881819E-05,15.4305,0,1.0287,1.309224E-05,15.4305,0
1.0296,3.659113E-05,15.444,0,1.0296,1.544213E-05,15.444,0
1.0305,4.867628E-05,15.4575,0,1.0305,-4.33051E-05,15.4575,0
1.0314,7.486076E-05,15.471,0,1.0314,-6.814679E-05,15.471,0
1.0323,-1.678492E-06,15.4845,0,1.0323,-3.961242E-05,15.4845,0
1.0332,-3.021286E-06,15.498,0,1.0332,-5.270466E-05,15.498,0
1.0341,5.236896E-05,15.5115,0,1.0341,-8.560311E-05,15.5115,0
1.035,-6.54612E-05,15.525,0,1.035,-5.404745E-05,15.525,0
1.0359,-3.457694E-05,15.5385,0,1.0359,-4.46479E-05,15.5385,0
1.0368,4.666209E-05,15.552,0,1.0368,-5.941863E-05,15.552,0
1.0377,-2.450599E-05,15.5655,0,1.0377,-4.46479E-05,15.5655,0
1.0386,-5.001907E-05,15.579,0,1.0386,-3.424125E-05,15.579,0
1.0395,-7.385367E-06,15.5925,0,1.0395,-3.256275E-05,15.5925,0
1.0404,-1.208515E-05,15.606,0,1.0404,-1.779202E-05,15.606,0
1.0413,-1.443504E-05,15.6195,0,1.0413,-1.577783E-05,15.6195,0
1.0422,-2.719158E-05,15.633,0,1.0422,-3.356985E-06,15.633,0
1.0431,-7.150377E-05,15.6465,0,1.0431,-7.721065E-06,15.6465,0
1.044,-5.203327E-05,15.66,0,1.044,-1.779202E-05,15.66,0
1.0449,-3.021286E-06,15.6735,0,1.0449,5.035477E-06,15.6735,0
1.0458,-2.450599E-05,15.687,0,1.0458,6.344701E-05,15.687,0
1.0467,-1.913481E-05,15.7005,0,1.0467,4.666209E-05,15.7005,0
1.0476,2.584878E-05,15.714,0,1.0476,0,15.714,0
1.0485,-1.846342E-05,15.7275,0,1.0485,4.53193E-05,15.7275,0
1.0494,6.713969E-06,15.741,0,1.0494,4.934768E-05,15.741,0
1.0503,3.457694E-05,15.7545,0,1.0503,-4.36408E-06,15.7545,0
1.0512,-1.510643E-05,15.768,0,1.0512,-2.417029E-05,15.768,0
1.0521,-3.524834E-05,15.7815,0,1.0521,-2.28275E-05,15.7815,0
1.053,-5.438316E-05,15.795,0,1.053,-4.061952E-05,15.795,0
1.0539,-1.913481E-05,15.8085,0,1.0539,-2.484169E-05,15.8085,0
1.0548,3.054856E-05,15.822,0,1.0548,-4.901198E-05,15.822,0
1.0557,-5.706874E-06,15.8355,0,1.0557,-1.947051E-05,15.8355,0
1.0566,-3.994812E-05,15.849,0,1.0566,1.342794E-06,15.849,0
1.0575,-3.826963E-05,15.8625,0,1.0575,-1.779202E-05,15.8625,0
1.0584,-5.001907E-05,15.876,0,1.0584,-3.356985E-05,15.876,0
1.0593,-7.855344E-05,15.8895,0,1.0593,3.726253E-05,15.8895,0
1.0602,-4.33051E-05,15.903,0,1.0602,8.123904E-05,15.903,0
1.0611,-2.920577E-05,15.9165,0,1.0611,4.599069E-05,15.9165,0
1.062,-8.258183E-05,15.93,0,1.062,4.095522E-05,15.93,0
1.0629,-3.793393E-05,15.9435,0,1.0629,1.980621E-05,15.9435,0
1.0638,3.054856E-05,15.957,0,1.0638,-2.484169E-05,15.957,0
1.0647,-2.752728E-05,15.9705,0,1.0647,-1.443504E-05,15.9705,0
1.0656,-5.941863E-05,15.984,0,1.0656,-2.349889E-06,15.984,0
1.0665,-3.994812E-05,15.9975,0,1.0665,-5.203327E-05,15.9975,0
1.0674,-4.599069E-05,16.011,0,1.0674,-8.090334E-05,16.011,0
1.0683,-3.692683E-06,16.0245,0,1.0683,-8.627451E-05,16.0245,0
1.0692,-2.719158E-05,16.038,0,1.0692,-7.687495E-05,16.038,0
1.0701,-5.203327E-05,16.0515,0,1.0701,-6.076142E-05,16.0515,0
1.071,1.779202E-05,16.065,0,1.071,-7.385367E-05,16.065,0
1.0719,5.236896E-05,16.0785,0,1.0719,-5.673304E-05,16.0785,0
1.0728,-1.208515E-05,16.092,0,1.0728,-1.510643E-05,16.092,0
1.0737,4.263371E-05,16.1055,0,1.0737,-2.719158E-05,16.1055,0
1.0746,0.0001420005,16.119,0,1.0746,-4.49836E-05,16.119,0
1.0755,3.424125E-05,16.1325,0,1.0755,-5.035477E-06,16.1325,0
1.0764,-1.107805E-05,16.146,0,1.0764,-7.049668E-06,16.146,0
1.0773,3.994812E-05,16.1595,0,1.0773,-1.577783E-05,16.1595,0
1.0782,-1.544213E-05,16.173,0,1.0782,-7.385367E-06,16.173,0
1.0791,-4.599069E-05,16.1865,0,1.0791,-2.014191E-06,16.1865,0
1.08,8.728161E-06,16.2,0,1.08,-2.081331E-05,16.2,0
1.0809,4.196231E-05,16.2135,0,1.0809,-1.477073E-05,16.2135,0
1.0818,5.539025E-05,16.227,0,1.0818,-7.721065E-06,16.227,0
1.0827,4.800488E-05,16.2405,0,1.0827,4.028382E-06,16.2405,0
1.0836,4.028382E-05,16.254,0,1.0836,2.18204E-05,16.254,0
1.0845,7.284657E-05,16.2675,0,1.0845,1.040665E-05,16.2675,0
1.0854,8.392462E-05,16.281,0,1.0854,-1.040665E-05,16.281,0
1.0863,5.539025E-05,16.2945,0,1.0863,1.309224E-05,16.2945,0
1.0872,8.560311E-05,16.308,0,1.0872,-4.36408E-06,16.308,0
1.0881,0.0001010452,16.3215,0,1.0881,-2.887007E-05,16.3215,0
1.089,5.841154E-05,16.335,0,1.089,-4.36408E-06,16.335,0
1.0899,4.800488E-05,16.3485,0,1.0899,-3.021286E-06,16.3485,0
1.0908,6.948959E-05,16.362,0,1.0908,-4.061952E-05,16.362,0
1.0917,3.457694E-05,16.3755,0,1.0917,-2.853437E-05,16.3755,0
1.0926,-6.51255E-05,16.389,0,1.0926,9.063859E-06,16.389,0
1.0935,-5.941863E-05,16.4025,0,1.0935,7.049668E-06,16.4025,0
1.0944,-3.894102E-05,16.416,0,1.0944,-2.685588E-06,16.416,0
1.0953,-4.666209E-05,16.4295,0,1.0953,-2.618448E-05,16.4295,0
1.0962,-0.0001097734,16.443,0,1.0962,3.021286E-06,16.443,0
1.0971,-0.0001215228,16.4565,0,1.0971,1.544213E-05,16.4565,0
1.098,-0.000102388,16.47,0,1.098,-2.316319E-05,16.47,0
1.0989,-6.143282E-05,16.4835,0,1.0989,-4.061952E-05,16.4835,0
1.0998,-0.0001228656,16.497,0,1.0998,1.007095E-06,16.497,0
1.1007,-7.553216E-05,16.5105,0,1.1007,-4.36408E-06,16.5105,0
1.1016,-1.779202E-05,16.524,0,1.1016,-1.846342E-05,16.524,0
1.1025,-8.627451E-05,16.5375,0,1.1025,9.063859E-06,16.5375,0
1.1034,-3.524834E-05,16.551,0,1.1034,-1.309224E-05,16.551,0
1.1043,-1.107805E-05,16.5645,0,1.1043,-4.33051E-05,16.5645,0
1.1052,-1.409934E-05,16.578,0,1.1052,-4.901198E-05,16.578,0
1.1061,-3.927672E-05,16.5915,0,1.1061,-9.735256E-06,16.5915,0
1.107,-5.371176E-06,16.605,0,1.107,-7.721065E-06,16.605,0
1.1079,-4.46479E-05,16.6185,0,1.1079,-1.376364E-05,16.6185,0
1.1088,-2.047761E-05,16.632,0,1.1088,-2.954147E-05,16.632,0
1.1097,-4.36408E-05,16.6455,0,1.1097,-1.544213E-05,16.6455,0
1.1106,-7.016098E-05,16.659,0,1.1106,4.028382E-06,16.659,0
1.1115,-2.18204E-05,16.6725,0,1.1115,-1.141375E-05,16.6725,0
1.1124,4.36408E-06,16.686,0,1.1124,-2.987716E-05,16.686,0
1.1133,-5.740444E-05,16.6995,0,1.1133,-7.385367E-06,16.6995,0
1.1142,-7.150377E-05,16.713,0,1.1142,-1.947051E-05,16.713,0
1.1151,-6.713969E-07,16.7265,0,1.1151,-5.606165E-05,16.7265,0
1.116,-3.860533E-05,16.74,0,1.116,-1.779202E-05,16.74,0
1.1169,-4.901198E-05,16.7535,0,1.1169,-1.779202E-05,16.7535,0
1.1178,-7.721065E-06,16.767,0,1.1178,-5.069047E-05,16.767,0
1.1187,-3.692683E-06,16.7805,0,1.1187,-5.807584E-05,16.7805,0
1.1196,-5.740444E-05,16.794,0,1.1196,-4.901198E-05,16.794,0
1.1205,-2.450599E-05,16.8075,0,1.1205,-4.263371E-05,16.8075,0
1.1214,-7.721065E-06,16.821,0,1.1214,-3.524834E-05,16.821,0
1.1223,1.007095E-05,16.8345,0,1.1223,-4.901198E-05,16.8345,0
1.1232,-1.107805E-05,16.848,0,1.1232,-4.968337E-05,16.848,0
1.1241,-3.961242E-05,16.8615,0,1.1241,-3.927672E-05,16.8615,0
1.125,1.510643E-05,16.875,0,1.125,-5.539025E-05,16.875,0
1.1259,1.376364E-05,16.8885,0,1.1259,-3.994812E-05,16.8885,0
1.1268,-1.242084E-05,16.902,0,1.1268,3.726253E-05,16.902,0
1.1277,3.121996E-05,16.9155,0,1.1277,8.157473E-05,16.9155,0
1.1286,4.901198E-05,16.929,0,1.1286,9.063859E-05,16.929,0
1.1295,2.1149E-05,16.9425,0,1.1295,9.903105E-05,16.9425,0
1.1304,7.553216E-05,16.956,0,1.1304,7.150377E-05,16.956,0
1.1313,0.0001107805,16.9695,0,1.1313,5.471885E-05,16.9695,0
1.1322,4.934768E-05,16.983,0,1.1322,5.270466E-05,16.983,0
1.1331,2.383459E-05,16.9965,0,1.1331,3.659113E-05,16.9965,0
1.134,-1.141375E-05,17.01,0,1.134,2.1149E-05,17.01,0
1.1349,2.24918E-05,17.0235,0,1.1349,2.349889E-05,17.0235,0
1.1358,5.270466E-05,17.037,0,1.1358,-9.063859E-06,17.037,0
1.1367,5.941863E-05,17.0505,0,1.1367,-3.054856E-05,17.0505,0
1.1376,3.894102E-05,17.064,0,1.1376,-3.826963E-05,17.064,0
1.1385,4.36408E-05,17.0775,0,1.1385,-5.807584E-05,17.0775,0
1.1394,1.980621E-05,17.091,0,1.1394,-6.51255E-05,17.091,0
1.1403,-3.558404E-05,17.1045,0,1.1403,-4.599069E-05,17.1045,0
1.1412,7.049668E-06,17.118,0,1.1412,-4.632639E-05,17.118,0
1.1421,9.433127E-05,17.1315,0,1.1421,-4.632639E-05,17.1315,0
1.143,-3.524834E-05,17.145,0,1.143,-2.349889E-06,17.145,0
1.1439,-8.358892E-05,17.1585,0,1.1439,1.342794E-06,17.1585,0
1.1448,2.081331E-05,17.172,0,1.1448,-2.920577E-05,17.172,0
1.1457,7.553216E-05,17.1855,0,1.1457,-1.242084E-05,17.1855,0
1.1466,5.203327E-05,17.199,0,1.1466,7.721065E-06,17.199,0
1.1475,0.000109102,17.2125,0,1.1475,-1.275654E-05,17.2125,0
1.1484,7.217517E-05,17.226,0,1.1484,-3.793393E-05,17.226,0
1.1493,7.687495E-05,17.2395,0,1.1493,-5.572595E-05,17.2395,0
1.1502,4.666209E-05,17.253,0,1.1502,-4.46479E-05,17.253,0
1.1511,-1.107805E-05,17.2665,0,1.1511,-5.136187E-05,17.2665,0
1.152,-3.793393E-05,17.28,0,1.152,-7.150377E-05,17.28,0
1.1529,3.356985E-07,17.2935,0,1.1529,-8.358892E-05,17.2935,0
1.1538,-4.46479E-05,17.307,0,1.1538,-7.653925E-05,17.307,0
1.1547,-5.404745E-05,17.3205,0,1.1547,-9.701686E-05,17.3205,0
1.1556,4.129091E-05,17.334,0,1.1556,-0.0001245441,17.334,0
1.1565,-1.208515E-05,17.3475,0,1.1565,-9.903105E-05,17.3475,0
1.1574,-2.383459E-05,17.361,0,1.1574,-0.0001252155,17.361,0
1.1583,4.867628E-05,17.3745,0,1.1583,-0.0001493858,17.3745,0
1.1592,4.196231E-05,17.388,0,1.1592,-0.0001171588,17.388,0
1.1601,-2.316319E-05,17.4015,0,1.1601,-8.627451E-05,17.4015,0
1.161,-5.136187E-05,17.415,0,1.161,-5.975433E-05,17.415,0
1.1619,-5.606165E-05,17.4285,0,1.1619,-2.484169E-05,17.4285,0
1.1628,-1.510643E-05,17.442,0,1.1628,-5.673304E-05,17.442,0
1.1637,-4.632639E-05,17.4555,0,1.1637,-4.632639E-05,17.4555,0
1.1646,-9.903105E-05,17.469,0,1.1646,-2.18204E-05,17.469,0
1.1655,-4.867628E-05,17.4825,0,1.1655,-1.644922E-05,17.4825,0
1.1664,-8.728161E-06,17.496,0,1.1664,-8.728161E-06,17.496,0
1.1673,-3.222705E-05,17.5095,0,1.1673,6.713969E-06,17.5095,0
1.1682,-1.376364E-05,17.523,0,1.1682,-1.007095E-06,17.523,0
1.1691,1.040665E-05,17.5365,0,1.1691,-2.316319E-05,17.5365,0
1.17,-2.014191E-06,17.55,0,1.17,1.275654E-05,17.55,0
1.1709,3.189136E-05,17.5635,0,1.1709,4.196231E-05,17.5635,0
1.1718,4.39765E-05,17.577,0,1.1718,1.779202E-05,17.577,0
1.1727,7.049668E-06,17.5905,0,1.1727,4.33051E-05,17.5905,0
1.1736,2.484169E-05,17.604,0,1.1736,7.687495E-05,17.604,0
1.1745,3.860533E-05,17.6175,0,1.1745,5.874724E-05,17.6175,0
1.1754,1.141375E-05,17.631,0,1.1754,6.277562E-05,17.631,0
1.1763,3.054856E-05,17.6445,0,1.1763,4.934768E-05,17.6445,0
1.1772,-1.309224E-05,17.658,0,1.1772,6.076142E-05,17.658,0
1.1781,-5.438316E-05,17.6715,0,1.1781,4.53193E-05,17.6715,0
1.179,-6.6804E-05,17.685,0,1.179,3.323415E-05,17.685,0
1.1799,-5.404745E-05,17.6985,0,1.1799,1.577783E-05,17.6985,0
1.1808,-0.000148043,17.712,0,1.1808,2.887007E-05,17.712,0
1.1817,-0.0001131304,17.7255,0,1.1817,-1.678492E-06,17.7255,0
1.1826,-7.385367E-06,17.739,0,1.1826,-2.652018E-05,17.739,0
1.1835,-0.0001272297,17.7525,0,1.1835,8.728161E-06,17.7525,0
1.1844,-0.0001487144,17.766,0,1.1844,0,17.766,0
1.1853,-1.644922E-05,17.7795,0,1.1853,-2.316319E-05,17.7795,0
1.1862,-3.927672E-05,17.793,0,1.1862,-1.745632E-05,17.793,0
1.1871,-9.030289E-05,17.8065,0,1.1871,-6.378271E-06,17.8065,0
1.188,-3.189136E-05,17.82,0,1.188,-2.484169E-05,17.82,0
1.1889,9.735256E-06,17.8335,0,1.1889,-3.726253E-05,17.8335,0
1.1898,3.054856E-05,17.847,0,1.1898,-5.673304E-05,17.847,0
1.1907,5.572595E-05,17.8605,0,1.1907,-5.270466E-05,17.8605,0
1.1916,1.007095E-05,17.874,0,1.1916,-5.606165E-05,17.874,0
1.1925,7.385367E-05,17.8875,0,1.1925,-6.61326E-05,17.8875,0
1.1934,4.49836E-05,17.901,0,1.1934,-9.198138E-05,17.901,0
1.1943,-1.510643E-05,17.9145,0,1.1943,-5.606165E-05,17.9145,0
1.1952,-5.001907E-05,17.928,0,1.1952,-6.009003E-05,17.928,0
1.1961,-3.054856E-05,17.9415,0,1.1961,-8.358892E-05,17.9415,0
1.197,-4.061952E-05,17.955,0,1.197,-4.129091E-05,17.955,0
1.1979,-2.014191E-05,17.9685,0,1.1979,-2.047761E-05,17.9685,0
1.1988,-3.021286E-05,17.982,0,1.1988,-4.867628E-05,17.982,0
1.1997,-4.095522E-05,17.9955,0,1.1997,-3.994812E-05,17.9955,0
1.2006,-6.848249E-05,18.009,0,1.2006,-1.477073E-05,18.009,0
1.2015,-2.652018E-05,18.0225,0,1.2015,-1.174945E-05,18.0225,0
1.2024,6.378271E-06,18.036,0,1.2024,-1.376364E-05,18.036,0
1.2033,1.376364E-05,18.0495,0,1.2033,-2.853437E-05,18.0495,0
1.2042,1.141375E-05,18.063,0,1.2042,5.706874E-06,18.063,0
1.2051,-1.309224E-05,18.0765,0,1.2051,1.577783E-05,18.0765,0
1.206,1.107805E-05,18.09,0,1.206,-1.242084E-05,18.09,0
1.2069,3.457694E-05,18.1035,0,1.2069,-2.1149E-05,18.1035,0
1.2078,-4.263371E-05,18.117,0,1.2078,-4.028382E-06,18.117,0
1.2087,-1.242084E-05,18.1305,0,1.2087,-4.867628E-05,18.1305,0
1.2096,1.443504E-05,18.144,0,1.2096,-7.486076E-05,18.144,0
1.2105,-5.136187E-05,18.1575,0,1.2105,-5.673304E-05,18.1575,0
1.2114,4.263371E-05,18.171,0,1.2114,-5.874724E-05,18.171,0
1.2123,6.74754E-05,18.1845,0,1.2123,-8.123904E-05,18.1845,0
1.2132,1.242084E-05,18.198,0,1.2132,-7.150377E-05,18.198,0
1.2141,2.1149E-05,18.2115,0,1.2141,-5.136187E-05,18.2115,0
1.215,3.121996E-05,18.225,0,1.215,-5.438316E-05,18.225,0
1.2159,-1.242084E-05,18.2385,0,1.2159,-4.061952E-05,18.2385,0
1.2168,-1.275654E-05,18.252,0,1.2168,-4.095522E-05,18.252,0
1.2177,-2.652018E-05,18.2655,0,1.2177,-5.371176E-06,18.2655,0
1.2186,-8.023193E-05,18.279,0,1.2186,2.24918E-05,18.279,0
1.2195,-2.719158E-05,18.2925,0,1.2195,3.021286E-05,18.2925,0
1.2204,3.692683E-05,18.306,0,1.2204,2.551309E-05,18.306,0
1.2213,-3.659113E-05,18.3195,0,1.2213,5.908293E-05,18.3195,0
1.2222,-2.652018E-05,18.333,0,1.2222,5.270466E-05,18.333,0
1.2231,3.457694E-05,18.3465,0,1.2231,3.457694E-05,18.3465,0
1.224,-3.793393E-05,18.36,0,1.224,7.486076E-05,18.36,0
1.2249,-8.459602E-05,18.3735,0,1.2249,7.418937E-05,18.3735,0
1.2258,-2.786297E-05,18.387,0,1.2258,4.129091E-05,18.387,0
1.2267,-6.378271E-06,18.4005,0,1.2267,4.699779E-06,18.4005,0
1.2276,-3.994812E-05,18.414,0,1.2276,7.049668E-06,18.414,0
1.2285,6.042573E-06,18.4275,0,1.2285,3.021286E-06,18.4275,0
1.2294,6.881819E-05,18.441,0,1.2294,-2.014191E-06,18.441,0
1.2303,7.754635E-05,18.4545,0,1.2303,-4.36408E-06,18.4545,0
1.2312,3.726253E-05,18.468,0,1.2312,1.980621E-05,18.468,0
1.2321,-9.735256E-06,18.4815,0,1.2321,1.074235E-05,18.4815,0
1.233,3.356985E-06,18.495,0,1.233,-4.061952E-05,18.495,0
1.2339,2.450599E-05,18.5085,0,1.2339,-6.009003E-05,18.5085,0
1.2348,5.706874E-06,18.522,0,1.2348,-4.53193E-05,18.522,0
1.2357,-1.477073E-05,18.5355,0,1.2357,-5.774014E-05,18.5355,0
1.2366,3.860533E-05,18.549,0,1.2366,-9.332418E-05,18.549,0
1.2375,3.994812E-05,18.5625,0,1.2375,-5.169757E-05,18.5625,0
1.2384,2.752728E-05,18.576,0,1.2384,-6.143282E-05,18.576,0
1.2393,8.358892E-05,18.5895,0,1.2393,-9.970245E-05,18.5895,0
1.2402,6.143282E-05,18.603,0,1.2402,-9.567407E-05,18.603,0
1.2411,1.275654E-05,18.6165,0,1.2411,-8.627451E-05,18.6165,0
1.242,2.584878E-05,18.63,0,1.242,-9.164568E-05,18.63,0
1.2429,-3.021286E-06,18.6435,0,1.2429,-8.426032E-05,18.6435,0
1.2438,5.035477E-06,18.657,0,1.2438,-7.956054E-05,18.657,0
1.2447,-4.46479E-05,18.6705,0,1.2447,-5.337606E-05,18.6705,0
1.2456,-4.766919E-05,18.684,0,1.2456,-2.18204E-05,18.684,0
1.2465,1.275654E-05,18.6975,0,1.2465,-4.867628E-05,18.6975,0
1.2474,-3.558404E-05,18.711,0,1.2474,-4.934768E-05,18.711,0
1.2483,-8.493171E-05,18.7245,0,1.2483,-1.577783E-05,18.7245,0
1.2492,-1.376364E-05,18.738,0,1.2492,-2.1149E-05,18.738,0
1.2501,-3.021286E-06,18.7515,0,1.2501,-3.424125E-05,18.7515,0
1.251,-9.701686E-05,18.765,0,1.251,-1.644922E-05,18.765,0
1.2519,-9.701686E-05,18.7785,0,1.2519,-5.706874E-06,18.7785,0
1.2528,-7.553216E-05,18.792,0,1.2528,-2.786297E-05,18.792,0
1.2537,-7.016098E-05,18.8055,0,1.2537,-2.484169E-05,18.8055,0
1.2546,-4.766919E-05,18.819,0,1.2546,7.721065E-06,18.819,0
1.2555,4.33051E-05,18.8325,0,1.2555,3.356985E-06,18.8325,0
1.2564,3.726253E-05,18.846,0,1.2564,-1.242084E-05,18.846,0
1.2573,6.009003E-05,18.8595,0,1.2573,-1.510643E-05,18.8595,0
1.2582,6.277562E-05,18.873,0,1.2582,-7.721065E-06,18.873,0
1.2591,-7.385367E-06,18.8865,0,1.2591,2.618448E-05,18.8865,0
1.26,-1.242084E-05,18.9,0,1.26,1.577783E-05,18.9,0
1.2609,-3.021286E-06,18.9135,0,1.2609,1.242084E-05,18.9135,0
1.2618,-3.021286E-05,18.927,0,1.2618,5.941863E-05,18.927,0
1.2627,-2.584878E-05,18.9405,0,1.2627,4.599069E-05,18.9405,0
1.2636,2.786297E-05,18.954,0,1.2636,3.121996E-05,18.954,0
1.2645,-8.392462E-06,18.9675,0,1.2645,6.54612E-05,18.9675,0
1.2654,3.591974E-05,18.981,0,1.2654,6.54612E-05,18.981,0
1.2663,5.941863E-05,18.9945,0,1.2663,3.189136E-05,18.9945,0
1.2672,2.484169E-05,19.008,0,1.2672,1.913481E-05,19.008,0
1.2681,-1.376364E-05,19.0215,0,1.2681,3.524834E-05,19.0215,0
1.269,1.477073E-05,19.035,0,1.269,3.155566E-05,19.035,0
1.2699,2.517739E-05,19.0485,0,1.2699,2.853437E-05,19.0485,0
1.2708,3.021286E-05,19.062,0,1.2708,1.007095E-06,19.062,0
1.2717,-3.692683E-06,19.0755,0,1.2717,9.399558E-06,19.0755,0
1.2726,3.558404E-05,19.089,0,1.2726,1.510643E-05,19.089,0
1.2735,3.189136E-05,19.1025,0,1.2735,3.356985E-06,19.1025,0
1.2744,5.908293E-05,19.116,0,1.2744,-1.443504E-05,19.116,0
1.2753,5.471885E-05,19.1295,0,1.2753,1.309224E-05,19.1295,0
1.2762,3.121996E-05,19.143,0,1.2762,5.371176E-06,19.143,0
1.2771,5.102617E-05,19.1565,0,1.2771,-4.129091E-05,19.1565,0
1.278,-1.712062E-05,19.17,0,1.278,-1.980621E-05,19.17,0
1.2789,-3.256275E-05,19.1835,0,1.2789,-1.040665E-05,19.1835,0
1.2798,4.699779E-06,19.197,0,1.2798,-2.719158E-05,19.197,0
1.2807,-1.980621E-05,19.2105,0,1.2807,-1.577783E-05,19.2105,0
1.2816,-4.33051E-05,19.224,0,1.2816,2.18204E-05,19.224,0
1.2825,-3.860533E-05,19.2375,0,1.2825,-5.035477E-06,19.2375,0
1.2834,-2.618448E-05,19.251,0,1.2834,-5.035477E-06,19.251,0
1.2843,3.323415E-05,19.2645,0,1.2843,-2.081331E-05,19.2645,0
1.2852,-2.484169E-05,19.278,0,1.2852,-3.021286E-06,19.278,0
1.2861,-8.224613E-05,19.2915,0,1.2861,-4.028382E-06,19.2915,0
1.287,1.040665E-05,19.305,0,1.287,-2.584878E-05,19.305,0
1.2879,5.941863E-05,19.3185,0,1.2879,-2.987716E-05,19.3185,0
1.2888,-2.652018E-05,19.332,0,1.2888,-4.028382E-06,19.332,0
1.2897,-8.728161E-06,19.3455,0,1.2897,-2.819867E-05,19.3455,0
1.2906,5.169757E-05,19.359,0,1.2906,-6.277562E-05,19.359,0
1.2915,-5.304036E-05,19.3725,0,1.2915,-3.457694E-05,19.3725,0
1.2924,-4.699779E-06,19.386,0,1.2924,-2.719158E-05,19.386,0
1.2933,5.606165E-05,19.3995,0,1.2933,-3.390555E-05,19.3995,0
1.2942,9.735256E-06,19.413,0,1.2942,-2.920577E-05,19.413,0
1.2951,-5.136187E-05,19.4265,0,1.2951,-9.063859E-06,19.4265,0
1.296,-2.987716E-05,19.44,0,1.296,-1.544213E-05,19.44,0
1.2969,-4.800488E-05,19.4535,0,1.2969,-2.987716E-05,19.4535,0
1.2978,-6.076142E-05,19.467,0,1.2978,-4.29694E-05,19.467,0
1.2987,-6.61326E-05,19.4805,0,1.2987,-3.021286E-05,19.4805,0
1.2996,-9.097429E-05,19.494,0,1.2996,-2.383459E-05,19.494,0
1.3005,-4.968337E-05,19.5075,0,1.3005,-2.047761E-05,19.5075,0
1.3014,-5.035477E-06,19.521,0,1.3014,-3.826963E-05,19.521,0
1.3023,-1.376364E-05,19.5345,0,1.3023,-3.356985E-06,19.5345,0
1.3032,-2.584878E-05,19.548,0,1.3032,1.174945E-05,19.548,0
1.3041,1.174945E-05,19.5615,0,1.3041,-1.141375E-05,19.5615,0
1.305,-2.28275E-05,19.575,0,1.305,3.356985E-05,19.575,0
1.3059,-5.404745E-05,19.5885,0,1.3059,4.36408E-05,19.5885,0
1.3068,-2.18204E-05,19.602,0,1.3068,2.349889E-06,19.602,0
1.3077,-6.076142E-05,19.6155,0,1.3077,6.378271E-06,19.6155,0
1.3086,-6.881819E-05,19.629,0,1.3086,2.18204E-05,19.629,0
1.3095,3.356985E-07,19.6425,0,1.3095,7.721065E-06,19.6425,0
1.3104,4.666209E-05,19.656,0,1.3104,-8.728161E-06,19.656,0
1.3113,4.43122E-05,19.6695,0,1.3113,-3.189136E-05,19.6695,0
1.3122,4.934768E-05,19.683,0,1.3122,-1.644922E-05,19.683,0
1.3131,1.174945E-05,19.6965,0,1.3131,-7.721065E-06,19.6965,0
1.314,4.49836E-05,19.71,0,1.314,-5.706874E-05,19.71,0
1.3149,5.572595E-05,19.7235,0,1.3149,-8.291753E-05,19.7235,0
1.3158,-2.987716E-05,19.737,0,1.3158,-7.217517E-05,19.737,0
1.3167,2.1149E-05,19.7505,0,1.3167,-8.358892E-05,19.7505,0
1.3176,6.143282E-05,19.764,0,1.3176,-0.0001174945,19.764,0
1.3185,-1.007095E-05,19.7775,0,1.3185,-0.0001070878,19.7775,0
1.3194,6.814679E-05,19.791,0,1.3194,-0.0001084306,19.791,0
1.3203,4.061952E-05,19.8045,0,1.3203,-0.0001326009,19.8045,0
1.3212,-2.719158E-05,19.818,0,1.3212,-0.0001238727,19.818,0
1.3221,-3.356985E-06,19.8315,0,1.3221,-0.0001275654,19.8315,0
1.323,1.007095E-06,19.845,0,1.323,-0.0001218585,19.845,0
1.3239,-7.721065E-06,19.8585,0,1.3239,-0.0001208515,19.8585,0
1.3248,1.678492E-06,19.872,0,1.3248,-0.0001399863,19.872,0
1.3257,-4.36408E-06,19.8855,0,1.3257,-0.0001379721,19.8855,0
1.3266,-4.061952E-05,19.899,0,1.3266,-0.0001201801,19.899,0
1.3275,-8.392462E-06,19.9125,0,1.3275,-0.0001003738,19.9125,0
1.3284,1.376364E-05,19.926,0,1.3284,-8.023193E-05,19.926,0
1.3293,-6.076142E-05,19.9395,0,1.3293,-2.047761E-05,19.9395,0
1.3302,-1.812772E-05,19.953,0,1.3302,-2.887007E-05,19.953,0
1.3311,2.920577E-05,19.9665,0,1.3311,-5.941863E-05,19.9665,0
1.332,-6.54612E-05,19.98,0,1.332,-1.443504E-05,19.98,0
1.3329,-7.553216E-05,19.9935,0,1.3329,2.349889E-06,19.9935,0
1.3338,-3.591974E-05,20.007,0,1.3338,-2.014191E-06,20.007,0
1.3347,-0.0001309224,20.0205,0,1.3347,3.356985E-07,20.0205,0
1.3356,-0.0001426719,20.034,0,1.3356,-5.706874E-06,20.034,0
1.3365,-0.0001080949,20.0475,0,1.3365,-9.735256E-06,20.0475,0
1.3374,-7.183947E-05,20.061,0,1.3374,-1.376364E-05,20.061,0
1.3383,-5.304036E-05,20.0745,0,1.3383,-2.517739E-05,20.0745,0
1.3392,-3.323415E-05,20.088,0,1.3392,-2.18204E-05,20.088,0
1.3401,1.745632E-05,20.1015,0,1.3401,-4.699779E-06,20.1015,0
1.341,1.913481E-05,20.115,0,1.341,-1.107805E-05,20.115,0
1.3419,2.450599E-05,20.1285,0,1.3419,-1.141375E-05,20.1285,0
1.3428,-2.618448E-05,20.142,0,1.3428,1.409934E-05,20.142,0
1.3437,-2.18204E-05,20.1555,0,1.3437,2.081331E-05,20.1555,0
1.3446,7.721065E-06,20.169,0,1.3446,-1.577783E-05,20.169,0
1.3455,-4.599069E-05,20.1825,0,1.3455,2.1149E-05,20.1825,0
1.3464,-0.0001070878,20.196,0,1.3464,2.450599E-05,20.196,0
1.3473,-4.53193E-05,20.2095,0,1.3473,5.706874E-06,20.2095,0
1.3482,2.1149E-05,20.223,0,1.3482,2.316319E-05,20.223,0
1.3491,-3.356985E-06,20.2365,0,1.3491,2.618448E-05,20.2365,0
1.35,-2.349889E-06,20.25,0,1.35,2.047761E-05,20.25,0
1.3509,2.24918E-05,20.2635,0,1.3509,2.047761E-05,20.2635,0
1.3518,6.277562E-05,20.277,0,1.3518,1.342794E-05,20.277,0
1.3527,6.713969E-07,20.2905,0,1.3527,3.692683E-05,20.2905,0
1.3536,-1.745632E-05,20.304,0,1.3536,6.6804E-05,20.304,0
1.3545,2.920577E-05,20.3175,0,1.3545,6.311131E-05,20.3175,0
1.3554,-2.584878E-05,20.331,0,1.3554,4.632639E-05,20.331,0
1.3563,-4.867628E-05,20.3445,0,1.3563,7.049668E-05,20.3445,0
1.3572,2.450599E-05,20.358,0,1.3572,5.471885E-05,20.358,0
1.3581,3.625543E-05,20.3715,0,1.3581,2.316319E-05,20.3715,0
1.359,-1.510643E-05,20.385,0,1.359,4.129091E-05,20.385,0
1.3599,3.054856E-05,20.3985,0,1.3599,3.256275E-05,20.3985,0
1.3608,4.565499E-05,20.412,0,1.3608,3.356985E-06,20.412,0
1.3617,-5.069047E-05,20.4255,0,1.3617,-1.007095E-06,20.4255,0
1.3626,-4.46479E-05,20.439,0,1.3626,2.853437E-05,20.439,0
1.3635,2.719158E-05,20.4525,0,1.3635,9.735256E-06,20.4525,0
1.3644,3.591974E-05,20.466,0,1.3644,-2.1149E-05,20.466,0
1.3653,7.318227E-05,20.4795,0,1.3653,-3.860533E-05,20.4795,0
1.3662,8.69459E-05,20.493,0,1.3662,-3.860533E-05,20.493,0
1.3671,8.056763E-06,20.5065,0,1.3671,-2.652018E-05,20.5065,0
1.368,1.275654E-05,20.52,0,1.368,-4.699779E-05,20.52,0
1.3689,4.129091E-05,20.5335,0,1.3689,-5.572595E-05,20.5335,0
1.3698,-9.063859E-06,20.547,0,1.3698,-2.584878E-05,20.547,0
1.3707,-2.383459E-05,20.5605,0,1.3707,-2.18204E-05,20.5605,0
1.3716,1.242084E-05,20.574,0,1.3716,-4.229801E-05,20.574,0
1.3725,-3.155566E-05,20.5875,0,1.3725,-6.713969E-07,20.5875,0
1.3734,-1.678492E-05,20.601,0,1.3734,9.399558E-06,20.601,0
1.3743,1.577783E-05,20.6145,0,1.3743,-2.21561E-05,20.6145,0
1.3752,7.385367E-06,20.628,0,1.3752,-3.860533E-05,20.628,0
1.3761,-2.1149E-05,20.6415,0,1.3761,-8.728161E-06,20.6415,0
1.377,1.040665E-05,20.655,0,1.377,-4.028382E-06,20.655,0
1.3779,-6.378271E-06,20.6685,0,1.3779,-2.517739E-05,20.6685,0
1.3788,0,20.682,0,1.3788,-4.968337E-05,20.682,0
1.3797,-2.786297E-05,20.6955,0,1.3797,-2.450599E-05,20.6955,0
1.3806,-7.553216E-05,20.709,0,1.3806,-1.275654E-05,20.709,0
1.3815,-6.277562E-05,20.7225,0,1.3815,-2.752728E-05,20.7225,0
1.3824,-2.786297E-05,20.736,0,1.3824,-3.457694E-05,20.736,0
1.3833,-7.217517E-05,20.7495,0,1.3833,-9.399558E-06,20.7495,0
1.3842,-2.618448E-05,20.763,0,1.3842,-7.049668E-06,20.763,0
1.3851,-1.007095E-06,20.7765,0,1.3851,-3.793393E-05,20.7765,0
1.386,-4.766919E-05,20.79,0,1.386,1.846342E-05,20.79,0
1.3869,-1.712062E-05,20.8035,0,1.3869,3.927672E-05,20.8035,0
1.3878,8.392462E-06,20.817,0,1.3878,2.081331E-05,20.817,0
1.3887,-1.242084E-05,20.8305,0,1.3887,2.1149E-05,20.8305,0
1.3896,-5.001907E-05,20.844,0,1.3896,3.994812E-05,20.844,0
1.3905,-7.016098E-05,20.8575,0,1.3905,3.390555E-05,20.8575,0
1.3914,-2.786297E-05,20.871,0,1.3914,2.081331E-05,20.871,0
1.3923,2.954147E-05,20.8845,0,1.3923,4.699779E-06,20.8845,0
1.3932,-8.392462E-06,20.898,0,1.3932,2.517739E-05,20.898,0
1.3941,5.874724E-05,20.9115,0,1.3941,2.24918E-05,20.9115,0
1.395,9.097429E-05,20.925,0,1.395,-1.779202E-05,20.925,0
1.3959,9.265278E-05,20.9385,0,1.3959,-3.659113E-05,20.9385,0
1.3968,5.572595E-05,20.952,0,1.3968,-1.309224E-05,20.952,0
1.3977,7.620356E-05,20.9655,0,1.3977,-1.846342E-05,20.9655,0
1.3986,0.0001161517,20.979,0,1.3986,-5.270466E-05,20.979,0
1.3995,3.356985E-07,20.9925,0,1.3995,-9.735256E-06,20.9925,0
1.4004,-9.063859E-06,21.006,0,1.4004,1.107805E-05,21.006,0
1.4013,6.814679E-05,21.0195,0,1.4013,-1.174945E-05,21.0195,0
1.4022,6.51255E-05,21.033,0,1.4022,-1.577783E-05,21.033,0
1.4031,2.383459E-05,21.0465,0,1.4031,-5.706874E-06,21.0465,0
1.404,3.860533E-05,21.06,0,1.404,-2.853437E-05,21.06,0
1.4049,6.378271E-06,21.0735,0,1.4049,-3.625543E-05,21.0735,0
1.4058,2.21561E-05,21.087,0,1.4058,-5.673304E-05,21.087,0
1.4067,-8.728161E-06,21.1005,0,1.4067,-5.203327E-05,21.1005,0
1.4076,-9.030289E-05,21.114,0,1.4076,-3.994812E-05,21.114,0
1.4085,-5.404745E-05,21.1275,0,1.4085,-5.169757E-05,21.1275,0
1.4094,-3.356985E-05,21.141,0,1.4094,-5.941863E-05,21.141,0
1.4103,-4.129091E-05,21.1545,0,1.4103,-3.289845E-05,21.1545,0
1.4112,-6.277562E-05,21.168,0,1.4112,-5.606165E-05,21.168,0
1.4121,-2.685588E-06,21.1815,0,1.4121,-8.86244E-05,21.1815,0
1.413,-3.994812E-05,21.195,0,1.413,-3.524834E-05,21.195,0
1.4139,-5.438316E-05,21.2085,0,1.4139,-3.256275E-05,21.2085,0
1.4148,-5.505455E-05,21.222,0,1.4148,-6.64683E-05,21.222,0
1.4157,-9.701686E-05,21.2355,0,1.4157,-6.210422E-05,21.2355,0
1.4166,-0.0001524071,21.249,0,1.4166,-3.659113E-05,21.249,0
1.4175,-0.0001255512,21.2625,0,1.4175,-4.901198E-05,21.2625,0
1.4184,-7.620356E-05,21.276,0,1.4184,-4.867628E-05,21.276,0
1.4193,-4.800488E-05,21.2895,0,1.4193,-4.800488E-05,21.2895,0
1.4202,-1.913481E-05,21.303,0,1.4202,-2.18204E-05,21.303,0
1.4211,2.383459E-05,21.3165,0,1.4211,-3.054856E-05,21.3165,0
1.422,7.486076E-05,21.33,0,1.422,-5.035477E-05,21.33,0
1.4229,6.61326E-05,21.3435,0,1.4229,-4.867628E-05,21.3435,0
1.4238,1.275654E-05,21.357,0,1.4238,-1.779202E-05,21.357,0
1.4247,3.289845E-05,21.3705,0,1.4247,-1.376364E-05,21.3705,0
1.4256,5.975433E-05,21.384,0,1.4256,-3.927672E-05,21.384,0
1.4265,-3.356985E-07,21.3975,0,1.4265,-9.063859E-06,21.3975,0
1.4274,1.309224E-05,21.411,0,1.4274,7.049668E-06,21.411,0
1.4283,1.376364E-05,21.4245,0,1.4283,-1.007095E-05,21.4245,0
1.4292,-3.390555E-05,21.438,0,1.4292,2.920577E-05,21.438,0
1.4301,-2.28275E-05,21.4515,0,1.4301,3.256275E-05,21.4515,0
1.431,-2.1149E-05,21.465,0,1.431,2.047761E-05,21.465,0
1.4319,-1.443504E-05,21.4785,0,1.4319,1.376364E-05,21.4785,0
1.4328,5.337606E-05,21.492,0,1.4328,-1.544213E-05,21.492,0
1.4337,4.800488E-05,21.5055,0,1.4337,-1.342794E-05,21.5055,0
1.4346,3.390555E-05,21.519,0,1.4346,-7.049668E-06,21.519,0
1.4355,6.344701E-05,21.5325,0,1.4355,-3.121996E-05,21.5325,0
1.4364,8.560311E-05,21.546,0,1.4364,-3.424125E-05,21.546,0
1.4373,1.947051E-05,21.5595,0,1.4373,1.007095E-06,21.5595,0
1.4382,6.57969E-05,21.573,0,1.4382,-2.21561E-05,21.573,0
1.4391,0.0001252155,21.5865,0,1.4391,-5.069047E-05,21.5865,0
1.44,-4.36408E-06,21.6,0,1.44,-1.577783E-05,21.6,0
1.4409,-1.913481E-05,21.6135,0,1.4409,-1.242084E-05,21.6135,0
1.4418,3.054856E-05,21.627,0,1.4418,-4.599069E-05,21.627,0
1.4427,-5.740444E-05,21.6405,0,1.4427,-7.150377E-05,21.6405,0
1.4436,-8.96315E-05,21.654,0,1.4436,-5.673304E-05,21.654,0
1.4445,-4.666209E-05,21.6675,0,1.4445,-4.53193E-05,21.6675,0
1.4454,2.014191E-06,21.681,0,1.4454,-5.371176E-05,21.681,0
1.4463,-1.174945E-05,21.6945,0,1.4463,-6.51255E-05,21.6945,0
1.4472,2.1149E-05,21.708,0,1.4472,-4.39765E-05,21.708,0
1.4481,5.471885E-05,21.7215,0,1.4481,-3.155566E-05,21.7215,0
1.449,-3.356985E-07,21.735,0,1.449,-4.33051E-05,21.735,0
1.4499,5.035477E-06,21.7485,0,1.4499,-4.599069E-05,21.7485,0
1.4508,-2.517739E-05,21.762,0,1.4508,-4.028382E-06,21.762,0
1.4517,-2.081331E-05,21.7755,0,1.4517,-2.685588E-06,21.7755,0
1.4526,1.376364E-05,21.789,0,1.4526,-1.409934E-05,21.789,0
1.4535,-3.793393E-05,21.8025,0,1.4535,2.920577E-05,21.8025,0
1.4544,-7.083238E-05,21.816,0,1.4544,2.786297E-05,21.816,0
1.4553,-1.141375E-05,21.8295,0,1.4553,1.174945E-05,21.8295,0
1.4562,-7.687495E-05,21.843,0,1.4562,3.054856E-05,21.843,0
1.4571,-5.337606E-05,21.8565,0,1.4571,4.263371E-05,21.8565,0
1.458,-3.457694E-05,21.87,0,1.458,2.987716E-05,21.87,0
1.4589,-4.632639E-05,21.8835,0,1.4589,3.054856E-05,21.8835,0
1.4598,-3.524834E-05,21.897,0,1.4598,8.392462E-06,21.897,0
1.4607,-5.404745E-05,21.9105,0,1.4607,7.721065E-06,21.9105,0
1.4616,-6.009003E-05,21.924,0,1.4616,5.706874E-06,21.924,0
1.4625,-1.779202E-05,21.9375,0,1.4625,-2.450599E-05,21.9375,0
1.4634,-2.014191E-05,21.951,0,1.4634,-4.095522E-05,21.951,0
1.4643,-3.390555E-05,21.9645,0,1.4643,-1.947051E-05,21.9645,0
1.4652,1.477073E-05,21.978,0,1.4652,-2.1149E-05,21.978,0
1.4661,3.927672E-05,21.9915,0,1.4661,-6.210422E-05,21.9915,0
1.467,1.007095E-05,22.005,0,1.467,-2.1149E-05,22.005,0
1.4679,6.814679E-05,22.0185,0,1.4679,-1.678492E-06,22.0185,0
1.4688,6.277562E-05,22.032,0,1.4688,-1.812772E-05,22.032,0
1.4697,-1.678492E-06,22.0455,0,1.4697,-7.385367E-06,22.0455,0
1.4706,-7.049668E-06,22.059,0,1.4706,3.692683E-06,22.059,0
1.4715,1.174945E-05,22.0725,0,1.4715,-6.713969E-06,22.0725,0
1.4724,-2.450599E-05,22.086,0,1.4724,-3.021286E-06,22.086,0
1.4733,-3.692683E-06,22.0995,0,1.4733,-2.349889E-06,22.0995,0
1.4742,3.021286E-06,22.113,0,1.4742,3.692683E-06,22.113,0
1.4751,-3.961242E-05,22.1265,0,1.4751,4.36408E-06,22.1265,0
1.476,-2.685588E-06,22.14,0,1.476,-2.719158E-05,22.14,0
1.4769,2.21561E-05,22.1535,0,1.4769,-2.584878E-05,22.1535,0
1.4778,-1.376364E-05,22.167,0,1.4778,-2.349889E-06,22.167,0
1.4787,1.242084E-05,22.1805,0,1.4787,-2.450599E-05,22.1805,0
1.4796,7.586786E-05,22.194,0,1.4796,-5.471885E-05,22.194,0
1.4805,9.735256E-06,22.2075,0,1.4805,-3.491264E-05,22.2075,0
1.4814,1.040665E-05,22.221,0,1.4814,-4.867628E-05,22.221,0
1.4823,5.203327E-05,22.2345,0,1.4823,-7.888914E-05,22.2345,0
1.4832,1.913481E-05,22.248,0,1.4832,-7.049668E-05,22.248,0
1.4841,-5.404745E-05,22.2615,0,1.4841,-2.987716E-05,22.2615,0
1.485,-8.728161E-06,22.275,0,1.485,3.692683E-06,22.275,0
1.4859,-2.047761E-05,22.2885,0,1.4859,3.021286E-06,22.2885,0
1.4868,-1.980621E-05,22.302,0,1.4868,-2.14847E-05,22.302,0
1.4877,-2.719158E-05,22.3155,0,1.4877,-1.007095E-06,22.3155,0
1.4886,-7.116808E-05,22.329,0,1.4886,3.021286E-06,22.329,0
1.4895,-7.418937E-05,22.3425,0,1.4895,-1.208515E-05,22.3425,0
1.4904,-5.807584E-05,22.356,0,1.4904,-3.793393E-05,22.356,0
1.4913,-0.0001007095,22.3695,0,1.4913,-1.007095E-06,22.3695,0
1.4922,-4.599069E-05,22.383,0,1.4922,-2.484169E-05,22.383,0
1.4931,-7.385367E-06,22.3965,0,1.4931,-6.915389E-05,22.3965,0
1.494,-3.692683E-05,22.41,0,1.494,-2.417029E-05,22.41,0
1.4949,5.035477E-06,22.4235,0,1.4949,-3.356985E-05,22.4235,0
1.4958,3.759823E-05,22.437,0,1.4958,-7.150377E-05,22.437,0
1.4967,-3.659113E-05,22.4505,0,1.4967,-5.203327E-05,22.4505,0
1.4976,-7.217517E-05,22.464,0,1.4976,-2.786297E-05,22.464,0
1.4985,-7.150377E-05,22.4775,0,1.4985,-5.505455E-05,22.4775,0
1.4994,-1.644922E-05,22.491,0,1.4994,-6.009003E-05,22.491,0
1.5003,2.752728E-05,22.5045,0,1.5003,-6.881819E-05,22.5045,0
1.5012,-6.378271E-06,22.518,0,1.5012,-5.404745E-05,22.518,0
1.5021,9.063859E-06,22.5315,0,1.5021,-3.659113E-05,22.5315,0
1.503,6.176852E-05,22.545,0,1.503,-4.867628E-05,22.545,0
1.5039,4.632639E-05,22.5585,0,1.5039,-4.39765E-05,22.5585,0
1.5048,1.376364E-05,22.572,0,1.5048,-1.242084E-05,22.572,0
1.5057,5.069047E-05,22.5855,0,1.5057,-2.383459E-05,22.5855,0
1.5066,3.659113E-05,22.599,0,1.5066,-5.807584E-05,22.599,0
1.5075,-3.424125E-05,22.6125,0,1.5075,-9.063859E-06,22.6125,0
1.5084,-3.692683E-06,22.626,0,1.5084,-1.208515E-05,22.626,0
1.5093,4.39765E-05,22.6395,0,1.5093,-2.920577E-05,22.6395,0
1.5102,-1.040665E-05,22.653,0,1.5102,-2.652018E-05,22.653,0
1.5111,-1.846342E-05,22.6665,0,1.5111,-1.846342E-05,22.6665,0
1.512,-1.007095E-06,22.68,0,1.512,-1.913481E-05,22.68,0
1.5129,-8.056763E-06,22.6935,0,1.5129,-4.36408E-06,22.6935,0
1.5138,-4.36408E-06,22.707,0,1.5138,-2.450599E-05,22.707,0
1.5147,-1.980621E-05,22.7205,0,1.5147,1.644922E-05,22.7205,0
1.5156,-9.835965E-05,22.734,0,1.5156,2.652018E-05,22.734,0
1.5165,-6.64683E-05,22.7475,0,1.5165,7.721065E-06,22.7475,0
1.5174,-2.18204E-05,22.761,0,1.5174,-1.208515E-05,22.761,0
1.5183,-7.620356E-05,22.7745,0,1.5183,9.063859E-06,22.7745,0
1.5192,-3.625543E-05,22.788,0,1.5192,-1.678492E-06,22.788,0
1.5201,6.948959E-05,22.8015,0,1.5201,-4.934768E-05,22.8015,0
1.521,-7.721065E-06,22.815,0,1.521,-1.309224E-05,22.815,0
1.5219,5.673304E-05,22.8285,0,1.5219,-1.477073E-05,22.8285,0
1.5228,0.0001245441,22.842,0,1.5228,-5.471885E-05,22.842,0
1.5237,4.599069E-05,22.8555,0,1.5237,-4.33051E-05,22.8555,0
1.5246,-1.242084E-05,22.869,0,1.5246,-1.712062E-05,22.869,0
1.5255,1.040665E-05,22.8825,0,1.5255,-2.954147E-05,22.8825,0
1.5264,2.28275E-05,22.896,0,1.5264,-3.256275E-05,22.896,0
1.5273,3.591974E-05,22.9095,0,1.5273,-5.169757E-05,22.9095,0
1.5282,-2.517739E-05,22.923,0,1.5282,-2.719158E-05,22.923,0
1.5291,-4.129091E-05,22.9365,0,1.5291,-4.733349E-05,22.9365,0
1.53,-2.1149E-05,22.95,0,1.53,-6.344701E-05,22.95,0
1.5309,6.378271E-06,22.9635,0,1.5309,-5.606165E-05,22.9635,0
1.5318,7.385367E-06,22.977,0,1.5318,-2.417029E-05,22.977,0
1.5327,-5.035477E-06,22.9905,0,1.5327,-2.383459E-05,22.9905,0
1.5336,4.599069E-05,23.004,0,1.5336,-3.323415E-05,23.004,0
1.5345,8.392462E-06,23.0175,0,1.5345,7.385367E-06,23.0175,0
1.5354,-2.887007E-05,23.031,0,1.5354,7.721065E-06,23.031,0
1.5363,1.678492E-06,23.0445,0,1.5363,-1.879912E-05,23.0445,0
1.5372,-1.342794E-06,23.058,0,1.5372,2.484169E-05,23.058,0
1.5381,-5.069047E-05,23.0715,0,1.5381,2.786297E-05,23.0715,0
1.539,1.342794E-06,23.085,0,1.539,9.063859E-06,23.085,0
1.5399,5.035477E-06,23.0985,0,1.5399,1.443504E-05,23.0985,0
1.5408,4.263371E-05,23.112,0,1.5408,1.678492E-06,23.112,0
1.5417,-3.189136E-05,23.1255,0,1.5417,1.577783E-05,23.1255,0
1.5426,-5.941863E-05,23.139,0,1.5426,3.021286E-06,23.139,0
1.5435,-3.021286E-06,23.1525,0,1.5435,-1.107805E-05,23.1525,0
1.5444,-2.584878E-05,23.166,0,1.5444,-1.409934E-05,23.166,0
1.5453,-9.433127E-05,23.1795,0,1.5453,1.644922E-05,23.1795,0
1.5462,-4.934768E-05,23.193,0,1.5462,1.007095E-06,23.193,0
1.5471,3.625543E-05,23.2065,0,1.5471,-2.18204E-05,23.2065,0
1.548,-3.726253E-05,23.22,0,1.548,1.779202E-05,23.22,0
1.5489,-2.349889E-05,23.2335,0,1.5489,3.189136E-05,23.2335,0
1.5498,1.947051E-05,23.247,0,1.5498,-5.706874E-06,23.247,0
1.5507,-4.36408E-06,23.2605,0,1.5507,0,23.2605,0
1.5516,-2.047761E-05,23.274,0,1.5516,1.913481E-05,23.274,0
1.5525,3.524834E-05,23.2875,0,1.5525,6.378271E-06,23.2875,0
1.5534,2.450599E-05,23.301,0,1.5534,-1.040665E-05,23.301,0
1.5543,-1.510643E-05,23.3145,0,1.5543,-3.726253E-05,23.3145,0
1.5552,-5.069047E-05,23.328,0,1.5552,-3.155566E-05,23.328,0
1.5561,-5.236896E-05,23.3415,0,1.5561,-6.143282E-05,23.3415,0
1.557,-3.189136E-05,23.355,0,1.557,-7.956054E-05,23.355,0
1.5579,-3.356985E-06,23.3685,0,1.5579,-9.265278E-05,23.3685,0
1.5588,-6.478981E-05,23.382,0,1.5588,-6.009003E-05,23.382,0
1.5597,-7.217517E-05,23.3955,0,1.5597,-5.740444E-05,23.3955,0
1.5606,3.021286E-06,23.409,0,1.5606,-5.841154E-05,23.409,0
1.5615,-5.035477E-05,23.4225,0,1.5615,-2.652018E-05,23.4225,0
1.5624,-5.539025E-05,23.436,0,1.5624,0,23.436,0
1.5633,2.1149E-05,23.4495,0,1.5633,3.692683E-06,23.4495,0
1.5642,-3.994812E-05,23.463,0,1.5642,2.786297E-05,23.463,0
1.5651,-6.713969E-06,23.4765,0,1.5651,6.411841E-05,23.4765,0
1.566,2.517739E-05,23.49,0,1.566,6.344701E-05,23.49,0
1.5669,4.46479E-05,23.5035,0,1.5669,6.54612E-05,23.5035,0
1.5678,7.049668E-05,23.517,0,1.5678,3.591974E-05,23.517,0
1.5687,7.351797E-05,23.5305,0,1.5687,6.277562E-05,23.5305,0
1.5696,0.0001319295,23.544,0,1.5696,7.888914E-05,23.544,0
1.5705,0.0001064164,23.5575,0,1.5705,5.337606E-05,23.5575,0
1.5714,7.083238E-05,23.571,0,1.5714,5.069047E-05,23.571,0
1.5723,3.189136E-05,23.5845,0,1.5723,7.956054E-05,23.5845,0
1.5732,2.484169E-05,23.598,0,1.5732,5.136187E-05,23.598,0
1.5741,2.1149E-05,23.6115,0,1.5741,-8.728161E-06,23.6115,0
1.575,-2.24918E-05,23.625,0,1.575,2.18204E-05,23.625,0
1.5759,-2.18204E-05,23.6385,0,1.5759,2.517739E-05,23.6385,0
1.5768,-5.270466E-05,23.652,0,1.5768,-2.484169E-05,23.652,0
1.5777,-4.36408E-06,23.6655,0,1.5777,-3.625543E-05,23.6655,0
1.5786,2.349889E-06,23.679,0,1.5786,-1.947051E-05,23.679,0
1.5795,-1.376364E-05,23.6925,0,1.5795,-4.229801E-05,23.6925,0
1.5804,-2.081331E-05,23.706,0,1.5804,-4.733349E-05,23.706,0
1.5813,3.591974E-05,23.7195,0,1.5813,-4.196231E-05,23.7195,0
1.5822,7.049668E-06,23.733,0,1.5822,-3.524834E-05,23.733,0
1.5831,-2.652018E-05,23.7465,0,1.5831,-3.726253E-05,23.7465,0
1.584,3.424125E-05,23.76,0,1.584,-5.673304E-05,23.76,0
1.5849,2.484169E-05,23.7735,0,1.5849,-6.54612E-05,23.7735,0
1.5858,-5.001907E-05,23.787,0,1.5858,-4.39765E-05,23.787,0
1.5867,-4.53193E-05,23.8005,0,1.5867,-6.378271E-05,23.8005,0
1.5876,2.517739E-05,23.814,0,1.5876,-9.164568E-05,23.814,0
1.5885,-6.143282E-05,23.8275,0,1.5885,-5.841154E-05,23.8275,0
1.5894,-8.89601E-05,23.841,0,1.5894,-6.478981E-05,23.841,0
1.5903,-1.477073E-05,23.8545,0,1.5903,-8.627451E-05,23.8545,0
1.5912,-2.417029E-05,23.868,0,1.5912,-6.143282E-05,23.868,0
1.5921,-7.956054E-05,23.8815,0,1.5921,-2.618448E-05,23.8815,0
1.593,-1.040665E-05,23.895,0,1.593,2.349889E-06,23.895,0
1.5939,2.28275E-05,23.9085,0,1.5939,-1.309224E-05,23.9085,0
1.5948,6.881819E-05,23.922,0,1.5948,-2.618448E-05,23.922,0
1.5957,5.102617E-05,23.9355,0,1.5957,-1.007095E-06,23.9355,0
1.5966,-4.061952E-05,23.949,0,1.5966,-1.678492E-06,23.949,0
1.5975,-9.735256E-06,23.9625,0,1.5975,-3.524834E-05,23.9625,0
1.5984,-1.376364E-05,23.976,0,1.5984,-4.834058E-05,23.976,0
1.5993,-5.539025E-05,23.9895,0,1.5993,-1.644922E-05,23.9895,0
1.6002,-2.349889E-05,24.003,0,1.6002,-2.316319E-05,24.003,0
1.6011,-6.378271E-06,24.0165,0,1.6011,-6.64683E-05,24.0165,0
1.602,-7.486076E-05,24.03,0,1.602,-4.29694E-05,24.03,0
1.6029,-6.814679E-05,24.0435,0,1.6029,-4.36408E-05,24.0435,0
1.6038,6.713969E-07,24.057,0,1.6038,-7.351797E-05,24.057,0
1.6047,3.961242E-05,24.0705,0,1.6047,-3.793393E-05,24.0705,0
1.6056,-5.740444E-05,24.084,0,1.6056,-1.980621E-05,24.084,0
1.6065,-4.53193E-05,24.0975,0,1.6065,-3.289845E-05,24.0975,0
1.6074,-1.107805E-05,24.111,0,1.6074,-3.054856E-05,24.111,0
1.6083,-1.510643E-05,24.1245,0,1.6083,-9.063859E-06,24.1245,0
1.6092,-5.740444E-05,24.138,0,1.6092,1.947051E-05,24.138,0
1.6101,-5.270466E-05,24.1515,0,1.6101,2.786297E-05,24.1515,0
1.611,-7.385367E-06,24.165,0,1.611,1.141375E-05,24.165,0
1.6119,-5.337606E-05,24.1785,0,1.6119,1.510643E-05,24.1785,0
1.6128,-5.807584E-05,24.192,0,1.6128,4.061952E-05,24.192,0
1.6137,6.713969E-06,24.2055,0,1.6137,2.954147E-05,24.2055,0
1.6146,-1.174945E-05,24.219,0,1.6146,1.174945E-05,24.219,0
1.6155,-8.459602E-05,24.2325,0,1.6155,2.786297E-05,24.2325,0
1.6164,-9.466698E-05,24.246,0,1.6164,1.980621E-05,24.246,0
1.6173,-7.553216E-05,24.2595,0,1.6173,-1.275654E-05,24.2595,0
1.6182,-5.471885E-05,24.273,0,1.6182,-1.174945E-05,24.273,0
1.6191,-8.526741E-05,24.2865,0,1.6191,-1.644922E-05,24.2865,0
1.62,-5.169757E-05,24.3,0,1.62,-5.404745E-05,24.3,0
1.6209,-3.524834E-05,24.3135,0,1.6209,-7.183947E-05,24.3135,0
1.6218,9.063859E-06,24.327,0,1.6218,-0.000119173,24.327,0
1.6227,3.625543E-05,24.3405,0,1.6227,-9.433127E-05,24.3405,0
1.6236,-1.712062E-05,24.354,0,1.6236,-8.69459E-05,24.354,0
1.6245,3.054856E-05,24.3675,0,1.6245,-0.0001003738,24.3675,0
1.6254,7.351797E-05,24.381,0,1.6254,-9.433127E-05,24.381,0
1.6263,3.692683E-06,24.3945,0,1.6263,-5.102617E-05,24.3945,0
1.6272,3.256275E-05,24.408,0,1.6272,-3.826963E-05,24.408,0
1.6281,8.291753E-05,24.4215,0,1.6281,-5.706874E-05,24.4215,0
1.629,8.392462E-06,24.435,0,1.629,-1.510643E-05,24.435,0
1.6299,-5.706874E-06,24.4485,0,1.6299,-1.980621E-05,24.4485,0
1.6308,4.263371E-05,24.462,0,1.6308,-5.136187E-05,24.462,0
1.6317,1.678492E-06,24.4755,0,1.6317,-3.390555E-05,24.4755,0
1.6326,-1.342794E-05,24.489,0,1.6326,-2.18204E-05,24.489,0
1.6335,3.323415E-05,24.5025,0,1.6335,-4.33051E-05,24.5025,0
1.6344,5.941863E-05,24.516,0,1.6344,-6.009003E-05,24.516,0
1.6353,6.143282E-05,24.5295,0,1.6353,-6.57969E-05,24.5295,0
1.6362,4.36408E-05,24.543,0,1.6362,-3.793393E-05,24.543,0
1.6371,9.433127E-05,24.5565,0,1.6371,-2.719158E-05,24.5565,0
1.638,0.0001040665,24.57,0,1.638,-2.584878E-05,24.57,0
1.6389,0.0001107805,24.5835,0,1.6389,-1.409934E-05,24.5835,0
1.6398,0.0001037308,24.597,0,1.6398,4.36408E-06,24.597,0
1.6407,7.318227E-05,24.6105,0,1.6407,-4.699779E-06,24.6105,0
1.6416,0.0001010452,24.624,0,1.6416,-5.136187E-05,24.624,0
1.6425,7.888914E-05,24.6375,0,1.6425,-3.591974E-05,24.6375,0
1.6434,5.471885E-05,24.651,0,1.6434,-4.49836E-05,24.651,0
1.6443,6.243992E-05,24.6645,0,1.6443,-6.378271E-05,24.6645,0
1.6452,3.189136E-05,24.678,0,1.6452,-4.599069E-05,24.678,0
1.6461,-6.042573E-06,24.6915,0,1.6461,-3.189136E-05,24.6915,0
1.647,-2.819867E-05,24.705,0,1.647,-3.457694E-05,24.705,0
1.6479,1.174945E-05,24.7185,0,1.6479,-2.316319E-05,24.7185,0
1.6488,7.754635E-05,24.732,0,1.6488,-2.316319E-05,24.732,0
1.6497,-9.063859E-06,24.7455,0,1.6497,1.443504E-05,24.7455,0
1.6506,-9.567407E-05,24.759,0,1.6506,3.424125E-05,24.759,0
1.6515,-3.860533E-05,24.7725,0,1.6515,2.517739E-05,24.7725,0
1.6524,-3.457694E-05,24.786,0,1.6524,2.24918E-05,24.786,0
1.6533,-7.385367E-05,24.7995,0,1.6533,6.076142E-05,24.7995,0
1.6542,-3.927672E-05,24.813,0,1.6542,2.752728E-05,24.813,0
1.6551,2.014191E-06,24.8265,0,1.6551,-1.174945E-05,24.8265,0
1.656,-7.049668E-05,24.84,0,1.656,3.256275E-05,24.84,0
1.6569,-2.081331E-05,24.8535,0,1.6569,4.196231E-05,24.8535,0
1.6578,6.6804E-05,24.867,0,1.6578,-1.242084E-05,24.867,0
1.6587,4.934768E-05,24.8805,0,1.6587,-3.021286E-06,24.8805,0
1.6596,-6.713969E-07,24.894,0,1.6596,2.28275E-05,24.894,0
1.6605,-2.987716E-05,24.9075,0,1.6605,-8.392462E-06,24.9075,0
1.6614,-5.740444E-05,24.921,0,1.6614,-1.242084E-05,24.921,0
1.6623,-1.812772E-05,24.9345,0,1.6623,-1.947051E-05,24.9345,0
1.6632,-7.351797E-05,24.948,0,1.6632,6.713969E-07,24.948,0
1.6641,-0.000144686,24.9615,0,1.6641,1.040665E-05,24.9615,0
1.665,-9.198138E-05,24.975,0,1.665,1.510643E-05,24.975,0
1.6659,-6.881819E-05,24.9885,0,1.6659,-5.706874E-06,24.9885,0
1.6668,-0.0001483787,25.002,0,1.6668,2.987716E-05,25.002,0
1.6677,-0.0001027237,25.0155,0,1.6677,2.786297E-05,25.0155,0
1.6686,-3.591974E-05,25.029,0,1.6686,1.846342E-05,25.029,0
1.6695,-6.948959E-05,25.0425,0,1.6695,3.994812E-05,25.0425,0
1.6704,-8.795301E-05,25.056,0,1.6704,2.920577E-05,25.056,0
1.6713,-4.33051E-05,25.0695,0,1.6713,-1.544213E-05,25.0695,0
1.6722,-6.009003E-05,25.083,0,1.6722,-1.007095E-06,25.083,0
1.6731,-8.96315E-05,25.0965,0,1.6731,-3.356985E-06,25.0965,0
1.674,-6.143282E-05,25.11,0,1.674,-1.544213E-05,25.11,0
1.6749,-3.189136E-05,25.1235,0,1.6749,-2.417029E-05,25.1235,0
1.6758,-5.572595E-05,25.137,0,1.6758,-5.136187E-05,25.137,0
1.6767,-3.323415E-05,25.1505,0,1.6767,-4.33051E-05,25.1505,0
1.6776,-2.450599E-05,25.164,0,1.6776,-4.968337E-05,25.164,0
1.6785,-4.599069E-05,25.1775,0,1.6785,-5.471885E-05,25.1775,0
1.6794,-2.24918E-05,25.191,0,1.6794,-4.49836E-05,25.191,0
1.6803,-2.24918E-05,25.2045,0,1.6803,-9.735256E-06,25.2045,0
1.6812,3.323415E-05,25.218,0,1.6812,-1.947051E-05,25.218,0
1.6821,7.687495E-05,25.2315,0,1.6821,-4.46479E-05,25.2315,0
1.683,3.356985E-06,25.245,0,1.683,-5.706874E-06,25.245,0
1.6839,4.196231E-05,25.2585,0,1.6839,-4.36408E-06,25.2585,0
1.6848,2.21561E-05,25.272,0,1.6848,-3.961242E-05,25.272,0
1.6857,-4.028382E-05,25.2855,0,1.6857,-2.383459E-05,25.2855,0
1.6866,4.028382E-06,25.299,0,1.6866,9.735256E-06,25.299,0
1.6875,6.378271E-06,25.3125,0,1.6875,0,25.3125,0
1.6884,1.409934E-05,25.326,0,1.6884,6.713969E-07,25.326,0
1.6893,6.076142E-05,25.3395,0,1.6893,-8.728161E-06,25.3395,0
1.6902,3.726253E-05,25.353,0,1.6902,-5.706874E-06,25.353,0
1.6911,2.786297E-05,25.3665,0,1.6911,-7.721065E-06,25.3665,0
1.692,7.418937E-05,25.38,0,1.692,-2.450599E-05,25.38,0
1.6929,6.6804E-05,25.3935,0,1.6929,-1.980621E-05,25.3935,0
1.6938,2.484169E-05,25.407,0,1.6938,3.021286E-06,25.407,0
1.6947,1.242084E-05,25.4205,0,1.6947,1.242084E-05,25.4205,0
1.6956,9.768826E-05,25.434,0,1.6956,1.007095E-06,25.434,0
1.6965,-1.007095E-05,25.4475,0,1.6965,1.275654E-05,25.4475,0
1.6974,-2.349889E-05,25.461,0,1.6974,-7.385367E-06,25.461,0
1.6983,8.392462E-06,25.4745,0,1.6983,-5.404745E-05,25.4745,0
1.6992,-6.344701E-05,25.488,0,1.6992,-6.64683E-05,25.488,0
1.7001,-5.941863E-05,25.5015,0,1.7001,-4.800488E-05,25.5015,0
1.701,2.517739E-05,25.515,0,1.701,-4.33051E-05,25.515,0
1.7019,6.411841E-05,25.5285,0,1.7019,-4.699779E-05,25.5285,0
1.7028,6.881819E-05,25.542,0,1.7028,-6.311131E-05,25.542,0
1.7037,7.116808E-05,25.5555,0,1.7037,-4.39765E-05,25.5555,0
1.7046,4.666209E-05,25.569,0,1.7046,-1.913481E-05,25.569,0
1.7055,4.934768E-05,25.5825,0,1.7055,-4.733349E-05,25.5825,0
1.7064,3.659113E-05,25.596,0,1.7064,-7.351797E-05,25.596,0
1.7073,1.510643E-05,25.6095,0,1.7073,-5.404745E-05,25.6095,0
1.7082,1.443504E-05,25.623,0,1.7082,-8.123904E-05,25.623,0
1.7091,5.874724E-05,25.6365,0,1.7091,-0.0001003738,25.6365,0
1.71,4.766919E-05,25.65,0,1.71,-5.270466E-05,25.65,0
1.7109,5.337606E-05,25.6635,0,1.7109,-4.666209E-05,25.6635,0
1.7118,6.411841E-05,25.677,0,1.7118,-7.989624E-05,25.677,0
1.7127,-9.399558E-06,25.6905,0,1.7127,-7.016098E-05,25.6905,0
1.7136,-5.807584E-05,25.704,0,1.7136,-4.263371E-05,25.704,0
1.7145,-2.853437E-05,25.7175,0,1.7145,-5.673304E-05,25.7175,0
1.7154,-2.685588E-06,25.731,0,1.7154,-5.337606E-05,25.731,0
1.7163,-1.376364E-05,25.7445,0,1.7163,-6.009003E-05,25.7445,0
1.7172,-3.356985E-07,25.758,0,1.7172,-4.46479E-05,25.758,0
1.7181,-1.342794E-06,25.7715,0,1.7181,-3.692683E-05,25.7715,0
1.719,-1.678492E-06,25.785,0,1.719,-4.766919E-05,25.785,0
1.7199,-1.443504E-05,25.7985,0,1.7199,-5.337606E-05,25.7985,0
1.7208,-2.652018E-05,25.812,0,1.7208,-1.409934E-05,25.812,0
1.7217,-7.049668E-06,25.8255,0,1.7217,-4.36408E-06,25.8255,0
1.7226,-3.793393E-05,25.839,0,1.7226,-1.745632E-05,25.839,0
1.7235,-7.855344E-05,25.8525,0,1.7235,1.712062E-05,25.8525,0
1.7244,-4.129091E-05,25.866,0,1.7244,3.121996E-05,25.866,0
1.7253,-8.325322E-05,25.8795,0,1.7253,1.376364E-05,25.8795,0
1.7262,-0.0001185016,25.893,0,1.7262,2.954147E-05,25.893,0
1.7271,-0.0001255512,25.9065,0,1.7271,6.042573E-05,25.9065,0
1.728,-9.298848E-05,25.92,0,1.728,5.270466E-05,25.92,0
1.7289,-6.881819E-05,25.9335,0,1.7289,3.189136E-05,25.9335,0
1.7298,-2.14847E-05,25.947,0,1.7298,1.342794E-06,25.947,0
1.7307,-1.242084E-05,25.9605,0,1.7307,2.316319E-05,25.9605,0
1.7316,-2.920577E-05,25.974,0,1.7316,2.24918E-05,25.974,0
1.7325,-7.049668E-06,25.9875,0,1.7325,1.342794E-06,25.9875,0
1.7334,3.189136E-05,26.001,0,1.7334,-3.356985E-06,26.001,0
1.7343,-3.591974E-05,26.0145,0,1.7343,1.174945E-05,26.0145,0
1.7352,-3.021286E-06,26.028,0,1.7352,-6.713969E-07,26.028,0
1.7361,3.054856E-05,26.0415,0,1.7361,-8.392462E-06,26.0415,0
1.737,-4.699779E-05,26.055,0,1.737,3.726253E-05,26.055,0
1.7379,-3.591974E-05,26.0685,0,1.7379,4.766919E-05,26.0685,0
1.7388,2.349889E-06,26.082,0,1.7388,2.1149E-05,26.082,0
1.7397,-2.719158E-05,26.0955,0,1.7397,1.309224E-05,26.0955,0
1.7406,-4.53193E-05,26.109,0,1.7406,1.745632E-05,26.109,0
1.7415,-8.392462E-06,26.1225,0,1.7415,-1.712062E-05,26.1225,0
1.7424,2.786297E-05,26.136,0,1.7424,-2.987716E-05,26.136,0
1.7433,7.721065E-06,26.1495,0,1.7433,-4.196231E-05,26.1495,0
1.7442,-3.994812E-05,26.163,0,1.7442,-3.927672E-05,26.163,0
1.7451,-0.000102388,26.1765,0,1.7451,-3.457694E-05,26.1765,0
1.746,-5.539025E-05,26.19,0,1.746,-5.203327E-05,26.19,0
1.7469,-1.644922E-05,26.2035,0,1.7469,-4.934768E-05,26.2035,0
1.7478,-4.46479E-05,26.217,0,1.7478,-1.779202E-05,26.217,0
1.7487,-5.304036E-05,26.2305,0,1.7487,-2.719158E-05,26.2305,0
1.7496,1.443504E-05,26.244,0,1.7496,-5.035477E-05,26.244,0
1.7505,-1.174945E-05,26.2575,0,1.7505,-1.913481E-05,26.2575,0
1.7514,-2.014191E-06,26.271,0,1.7514,-2.450599E-05,26.271,0
1.7523,3.356985E-05,26.2845,0,1.7523,-3.793393E-05,26.2845,0
1.7532,-9.399558E-06,26.298,0,1.7532,-1.107805E-05,26.298,0
1.7541,-2.618448E-05,26.3115,0,1.7541,-9.735256E-06,26.3115,0
1.755,-1.678492E-06,26.325,0,1.755,-3.121996E-05,26.325,0
1.7559,2.24918E-05,26.3385,0,1.7559,-2.853437E-05,26.3385,0
1.7568,7.116808E-05,26.352,0,1.7568,-4.263371E-05,26.352,0
1.7577,3.390555E-05,26.3655,0,1.7577,-2.853437E-05,26.3655,0
1.7586,5.841154E-05,26.379,0,1.7586,-2.417029E-05,26.379,0
1.7595,6.411841E-05,26.3925,0,1.7595,-4.196231E-05,26.3925,0
1.7604,4.46479E-05,26.406,0,1.7604,-5.001907E-05,26.406,0
1.7613,5.035477E-06,26.4195,0,1.7613,-1.510643E-05,26.4195,0
1.7622,2.014191E-05,26.433,0,1.7622,-6.042573E-06,26.433,0
1.7631,6.076142E-05,26.4465,0,1.7631,-2.920577E-05,26.4465,0
1.764,7.721065E-06,26.46,0,1.764,1.174945E-05,26.46,0
1.7649,-1.980621E-05,26.4735,0,1.7649,3.323415E-05,26.4735,0
1.7658,1.007095E-06,26.487,0,1.7658,3.356985E-07,26.487,0
1.7667,1.040665E-05,26.5005,0,1.7667,9.063859E-06,26.5005,0
1.7676,-1.913481E-05,26.514,0,1.7676,2.853437E-05,26.514,0
1.7685,1.779202E-05,26.5275,0,1.7685,2.987716E-05,26.5275,0
1.7694,-9.399558E-06,26.541,0,1.7694,3.860533E-05,26.541,0
1.7703,5.035477E-06,26.5545,0,1.7703,2.786297E-05,26.5545,0
1.7712,-3.457694E-05,26.568,0,1.7712,5.673304E-05,26.568,0
1.7721,-4.867628E-05,26.5815,0,1.7721,6.814679E-05,26.5815,0
1.773,-1.678492E-06,26.595,0,1.773,5.270466E-05,26.595,0
1.7739,-3.356985E-07,26.6085,0,1.7739,3.692683E-05,26.6085,0
1.7748,-8.392462E-05,26.622,0,1.7748,3.692683E-05,26.622,0
1.7757,-4.129091E-05,26.6355,0,1.7757,2.24918E-05,26.6355,0
1.7766,2.316319E-05,26.649,0,1.7766,-1.107805E-05,26.649,0
1.7775,-1.644922E-05,26.6625,0,1.7775,3.021286E-06,26.6625,0
1.7784,-3.994812E-05,26.676,0,1.7784,-4.028382E-06,26.676,0
1.7793,2.652018E-05,26.6895,0,1.7793,-3.625543E-05,26.6895,0
1.7802,-7.049668E-06,26.703,0,1.7802,-4.263371E-05,26.703,0
1.7811,-4.39765E-05,26.7165,0,1.7811,-3.793393E-05,26.7165,0
1.782,-4.028382E-06,26.73,0,1.782,-5.102617E-05,26.73,0
1.7829,1.678492E-06,26.7435,0,1.7829,-4.867628E-05,26.7435,0
1.7838,-2.1149E-05,26.757,0,1.7838,-6.478981E-05,26.757,0
1.7847,-2.21561E-05,26.7705,0,1.7847,-3.189136E-05,26.7705,0
1.7856,2.652018E-05,26.784,0,1.7856,-1.309224E-05,26.784,0
1.7865,3.692683E-06,26.7975,0,1.7865,-3.457694E-05,26.7975,0
1.7874,1.712062E-05,26.811,0,1.7874,-3.121996E-05,26.811,0
1.7883,3.860533E-05,26.8245,0,1.7883,-2.349889E-06,26.8245,0
1.7892,2.1149E-05,26.838,0,1.7892,-2.719158E-05,26.838,0
1.7901,4.934768E-05,26.8515,0,1.7901,-6.076142E-05,26.8515,0
1.791,-5.706874E-06,26.865,0,1.791,-3.323415E-05,26.865,0
1.7919,-5.169757E-05,26.8785,0,1.7919,-3.323415E-05,26.8785,0
1.7928,-4.934768E-05,26.892,0,1.7928,-7.620356E-05,26.892,0
1.7937,-3.591974E-05,26.9055,0,1.7937,-5.874724E-05,26.9055,0
1.7946,-2.450599E-05,26.919,0,1.7946,-3.961242E-05,26.919,0
1.7955,-4.699779E-06,26.9325,0,1.7955,-3.659113E-05,26.9325,0
1.7964,9.399558E-06,26.946,0,1.7964,-4.46479E-05,26.946,0
1.7973,2.987716E-05,26.9595,0,1.7973,-8.358892E-05,26.9595,0
1.7982,2.618448E-05,26.973,0,1.7982,-8.358892E-05,26.973,0
1.7991,-2.24918E-05,26.9865,0,1.7991,-7.083238E-05,26.9865,0
1.8,-8.392462E-06,27,0,1.8,-8.795301E-05,27,0
1.8009,1.577783E-05,27.0135,0,1.8009,-9.433127E-05,27.0135,0
1.8018,-6.6804E-05,27.027,0,1.8018,-7.318227E-05,27.027,0
1.8027,-2.987716E-05,27.0405,0,1.8027,-7.486076E-05,27.0405,0
1.8036,6.378271E-06,27.054,0,1.8036,-7.956054E-05,27.054,0
1.8045,-4.599069E-05,27.0675,0,1.8045,-4.33051E-05,27.0675,0
1.8054,1.107805E-05,27.081,0,1.8054,-3.054856E-05,27.081,0
1.8063,-2.014191E-06,27.0945,0,1.8063,-4.733349E-05,27.0945,0
1.8072,1.846342E-05,27.108,0,1.8072,-4.599069E-05,27.108,0
1.8081,-2.349889E-06,27.1215,0,1.8081,-1.141375E-05,27.1215,0
1.809,-1.376364E-05,27.135,0,1.809,-8.728161E-06,27.135,0
1.8099,-3.390555E-05,27.1485,0,1.8099,-1.644922E-05,27.1485,0
1.8108,-2.014191E-06,27.162,0,1.8108,-9.399558E-06,27.162,0
1.8117,-3.491264E-05,27.1755,0,1.8117,1.040665E-05,27.1755,0
1.8126,-8.761731E-05,27.189,0,1.8126,2.719158E-05,27.189,0
1.8135,-4.867628E-05,27.2025,0,1.8135,-1.208515E-05,27.2025,0
1.8144,3.591974E-05,27.216,0,1.8144,-3.021286E-05,27.216,0
1.8153,2.819867E-05,27.2295,0,1.8153,-7.049668E-06,27.2295,0
1.8162,4.33051E-05,27.243,0,1.8162,-1.309224E-05,27.243,0
1.8171,0.0001265583,27.2565,0,1.8171,-4.43122E-05,27.2565,0
1.818,4.196231E-05,27.27,0,1.818,-1.376364E-05,27.27,0
1.8189,7.486076E-05,27.2835,0,1.8189,7.049668E-06,27.2835,0
1.8198,0.000133608,27.297,0,1.8198,2.349889E-06,27.297,0
1.8207,7.922484E-05,27.3105,0,1.8207,2.1149E-05,27.3105,0
