X[s],"Trigno IM sensor 3: EMG 3 (IM)",X[s],"Trigno IM sensor 3: Mag 3.Z (IM)",X[s],"Trigno IM sensor 4: EMG 4 (IM)",X[s],"Trigno IM sensor 4: Mag 4.Z (IM)"
0.000000,-7.821774E-05,0.000000,40,0.000000,-0.0001393149,0.000000,103
0.0009,-0.0001755703,0.0135,42,0.0009,-0.0001641566,0.0135,103
0.0018,-0.000193698,0.027,40,0.0018,-0.0001211871,0.027,105
0.0027,-8.426032E-05,0.0405,40,0.0027,-0.000154757,0.0405,104
0.0036,-8.291753E-05,0.054,40,0.0036,-0.0001574426,0.054,106
0.0045,-6.713969E-07,0.0675,41,0.0045,-2.450599E-05,0.0675,103
0.0054,0.000197055,0.081,41,0.0054,0.0002171969,0.081,105
0.0063,0.0001574426,0.0945,40,0.0063,0.0002453956,0.0945,103
0.0072,0.0001305867,0.108,39,0.0072,7.284657E-05,0.108,103
0.0081,0.0001070878,0.1215,39,0.0081,4.46479E-05,0.1215,104
0.009000001,7.687495E-05,0.135,40,0.009000001,6.6804E-05,0.135,104
0.0099,8.224613E-05,0.1485,40,0.0099,8.426032E-05,0.1485,103
0.0108,-9.399558E-06,0.162,40,0.0108,2.484169E-05,0.162,105
0.0117,1.544213E-05,0.1755,38,0.0117,-3.793393E-05,0.1755,102
0.0126,-3.021286E-06,0.189,39,0.0126,-5.136187E-05,0.189,105
0.0135,1.510643E-05,0.2025,38,0.0135,-5.874724E-05,0.2025,106
0.0144,6.948959E-05,0.216,40,0.0144,-9.970245E-05,0.216,104
0.0153,-9.063859E-06,0.2295,40,0.0153,-0.0001185016,0.2295,102
0.0162,6.713969E-07,0.243,40,0.0162,-0.000112459,0.243,102
0.0171,-2.316319E-05,0.2565,39,0.0171,-0.0001366293,0.2565,106
0.018,-7.956054E-05,0.27,40,0.018,-8.96315E-05,0.27,104
0.0189,-7.251087E-05,0.2835,39,0.0189,-3.356985E-06,0.2835,104
0.0198,-1.678492E-05,0.297,39,0.0198,-4.263371E-05,0.297,104
0.0207,-1.644922E-05,0.3105,39,0.0207,-8.426032E-05,0.3105,102
0.0216,-4.33051E-05,0.324,40,0.0216,-3.961242E-05,0.324,103
0.0225,-2.014191E-06,0.3375,39,0.0225,-1.510643E-05,0.3375,105
0.0234,0.0001661708,0.351,41,0.0234,-8.426032E-05,0.351,104
0.0243,0.0001185016,0.3645,39,0.0243,-0.0001188373,0.3645,100
0.0252,9.735256E-05,0.378,40,0.0252,-0.0001641566,0.378,107
0.0261,7.754635E-05,0.3915,39,0.0261,-0.0001896696,0.3915,105
0.027,-8.392462E-06,0.405,40,0.027,-0.0001534142,0.405,105
0.0279,-2.786297E-05,0.4185,39,0.0279,-5.136187E-05,0.4185,104
0.0288,4.934768E-05,0.432,39,0.0288,-7.553216E-05,0.432,107
0.0297,8.056763E-06,0.4455,40,0.0297,-5.035477E-06,0.4455,106
0.0306,-3.390555E-05,0.459,39,0.0306,-3.692683E-06,0.459,107
0.0315,1.779202E-05,0.4725,40,0.0315,-3.155566E-05,0.4725,103
0.0324,-2.014191E-06,0.486,40,0.0324,-5.136187E-05,0.486,103
0.0333,-5.673304E-05,0.4995,40,0.0333,-1.007095E-06,0.4995,108
0.0342,-4.599069E-05,0.513,41,0.0342,-2.349889E-06,0.513,106
0.0351,6.411841E-05,0.5265,40,0.0351,-5.304036E-05,0.5265,106
0.036,-2.887007E-05,0.54,39,0.036,-4.733349E-05,0.54,104
0.0369,-9.231708E-05,0.5535,39,0.0369,-0.0001151446,0.5535,107
0.0378,-8.392462E-06,0.567,39,0.0378,-0.0001849699,0.567,107
0.0387,-9.735256E-06,0.5805,39,0.0387,-0.0001745632,0.5805,104
0.0396,-9.567407E-05,0.594,40,0.0396,-0.0001319295,0.594,102
0.0405,-7.418937E-05,0.6075,39,0.0405,-7.150377E-05,0.6075,105
0.0414,-9.298848E-05,0.621,38,0.0414,9.970245E-05,0.621,106
0.0423,-2.685588E-06,0.6345,40,0.0423,0.0001265583,0.6345,105
0.0432,3.860533E-05,0.648,39,0.0432,0.0002856794,0.648,104
0.0441,-9.802396E-05,0.6615,39,0.0441,0.0003434196,0.6615,104
0.045,-8.023193E-05,0.675,40,0.045,0.000207126,0.675,104
0.0459,6.61326E-05,0.6885,38,0.0459,0.0001127947,0.6885,103
0.0468,6.814679E-05,0.702,40,0.0468,7.553216E-05,0.702,103
0.0477,-8.123904E-05,0.7155,39,0.0477,2.584878E-05,0.7155,104
0.0486,3.692683E-06,0.729,40,0.0486,-5.404745E-05,0.729,105
0.0495,1.712062E-05,0.7425,40,0.0495,-1.745632E-05,0.7425,108
0.0504,-3.390555E-05,0.756,38,0.0504,1.678492E-05,0.756,103
0.0513,0.000105745,0.7695,38,0.0513,-4.33051E-05,0.7695,104
0.0522,0.0001453574,0.783,38,0.0522,-2.450599E-05,0.783,105
0.0531,-6.64683E-05,0.7965,39,0.0531,3.155566E-05,0.7965,102
0.054,-6.042573E-05,0.81,40,0.054,-4.33051E-05,0.81,104
0.0549,8.728161E-06,0.8235,39,0.0549,-7.956054E-05,0.8235,107
0.0558,7.553216E-05,0.837,39,0.0558,-6.54612E-05,0.837,104
0.0567,7.183947E-05,0.8505,40,0.0567,-6.378271E-05,0.8505,104
0.0576,-7.385367E-05,0.864,39,0.0576,-0.000102388,0.864,107
0.0585,-3.558404E-05,0.8775,39,0.0585,-0.0001470359,0.8775,105
0.0594,-8.86244E-05,0.891,40,0.0594,-0.00018262,0.891,104
0.0603,-0.0001399863,0.9045,40,0.0603,-0.0001312581,0.9045,108
0.0612,-6.109713E-05,0.918,40,0.0612,-0.0001765774,0.918,107
0.0621,4.599069E-05,0.9315,40,0.0621,-0.0002262608,0.9315,103
0.063,-1.980621E-05,0.945,40,0.063,-0.0002353246,0.945,105
0.0639,1.712062E-05,0.9585,39,0.0639,-0.000190341,0.9585,104
0.0648,0.0001564355,0.972,39,0.0648,-0.0001879911,0.972,104
0.0657,0.0001164874,0.9855,39,0.0657,-0.0001520714,0.9855,102
0.0666,3.692683E-06,0.999,38,0.0666,3.793393E-05,0.999,102
0.0675,-5.539025E-05,1.0125,39,0.0675,0.0003232776,1.0125,104
0.0684,-3.189136E-05,1.026,41,0.0684,0.0003602045,1.026,105
0.0693,1.040665E-05,1.0395,39,0.0693,0.0002410315,1.0395,106
0.0702,-2.1149E-05,1.053,40,0.0702,0.0001836271,1.053,105
0.0711,-0.0001963836,1.0665,40,0.0711,9.567407E-05,1.0665,101
0.072,-7.049668E-05,1.08,42,0.072,2.1149E-05,1.08,100
0.0729,4.263371E-05,1.0935,41,0.0729,-2.853437E-05,1.0935,100
0.07380001,-9.701686E-05,1.107,42,0.07380001,4.36408E-06,1.107,100
0.07470001,-7.217517E-05,1.1205,41,0.07470001,-5.001907E-05,1.1205,104
0.0756,1.980621E-05,1.134,41,0.0756,-0.0001040665,1.134,98
0.0765,-0.000133608,1.1475,42,0.0765,-3.021286E-05,1.1475,101
0.0774,-7.956054E-05,1.161,43,0.0774,-1.913481E-05,1.161,103
0.0783,2.349889E-05,1.1745,44,0.0783,-8.056764E-05,1.1745,103
0.0792,-5.203327E-05,1.188,43,0.0792,-8.459602E-05,1.188,102
0.0801,-0.0001050736,1.2015,42,0.0801,-6.848249E-05,1.2015,103
0.081,-1.007095E-06,1.215,44,0.081,-0.000172549,1.215,102
0.0819,3.424125E-05,1.2285,42,0.0819,-0.0001779202,1.2285,104
0.0828,6.61326E-05,1.242,42,0.0828,-0.0001524071,1.242,104
0.0837,7.620356E-05,1.2555,42,0.0837,4.599069E-05,1.2555,106
0.0846,9.365987E-05,1.269,43,0.0846,0.0001842985,1.269,102
0.0855,2.24918E-05,1.2825,44,0.0855,0.0002722515,1.2825,104
0.0864,3.491264E-05,1.296,44,0.0864,0.0001688563,1.296,101
0.0873,-3.457694E-05,1.3095,42,0.0873,0.0001131304,1.3095,102
0.0882,-1.443504E-05,1.323,43,0.0882,6.74754E-05,1.323,104
0.0891,0.0001185016,1.3365,42,0.0891,-1.544213E-05,1.3365,106
0.09,9.063859E-06,1.35,44,0.09,2.920577E-05,1.35,107
0.0909,-6.948959E-05,1.3635,43,0.0909,3.323415E-05,1.3635,103
0.0918,-1.208515E-05,1.377,43,0.0918,-2.24918E-05,1.377,101
0.0927,2.987716E-05,1.3905,43,0.0927,-4.666209E-05,1.3905,103
0.0936,-6.478981E-05,1.404,44,0.0936,-3.927672E-05,1.404,105
0.09450001,-8.291753E-05,1.4175,44,0.09450001,-6.478981E-05,1.4175,104
0.09540001,-4.666209E-05,1.431,44,0.09540001,-5.471885E-05,1.431,106
0.09630001,4.263371E-05,1.4445,44,0.09630001,-6.881819E-05,1.4445,102
0.0972,-2.752728E-05,1.458,42,0.0972,-9.903105E-05,1.458,103
0.0981,-5.807584E-05,1.4715,43,0.0981,-7.083238E-05,1.4715,107
0.099,-6.713969E-06,1.485,43,0.099,-0.0001134661,1.485,104
0.0999,-3.021286E-06,1.4985,43,0.0999,-0.0001705348,1.4985,106
0.1008,-7.553216E-05,1.512,43,0.1008,-0.0001863127,1.512,105
0.1017,-7.318227E-05,1.5255,44,0.1017,-0.0003588617,1.5255,106
0.1026,-7.452507E-05,1.539,44,0.1026,-0.0004817273,1.539,104
0.1035,-0.0001252155,1.5525,45,0.1035,-0.0003356985,1.5525,106
0.1044,-9.567407E-05,1.566,44,0.1044,-4.934768E-05,1.566,104
0.1053,2.786297E-05,1.5795,44,0.1053,0.0001930266,1.5795,105
0.1062,5.270466E-05,1.593,45,0.1062,0.0003910887,1.593,107
0.1071,3.591974E-05,1.6065,44,0.1071,0.0006039216,1.6065,105
0.108,3.424125E-05,1.62,45,0.108,0.0004488289,1.62,104
0.1089,9.735256E-05,1.6335,44,0.1089,0.0002490883,1.6335,104
0.1098,0.0001983978,1.647,46,0.1098,0.0001413291,1.647,100
0.1107,8.560311E-05,1.6605,44,0.1107,9.198138E-05,1.6605,105
0.1116,-3.088426E-05,1.674,43,0.1116,5.337606E-05,1.674,104
0.1125,6.076142E-05,1.6875,45,0.1125,2.719158E-05,1.6875,105
0.1134,0.000112459,1.701,45,0.1134,1.477073E-05,1.701,103
0.1143,-6.54612E-05,1.7145,45,0.1143,6.54612E-05,1.7145,106
0.1152,3.356985E-06,1.728,45,0.1152,0.0001185016,1.728,105
0.1161,0.0001695277,1.7415,44,0.1161,1.007095E-05,1.7415,105
0.117,-2.349889E-06,1.755,45,0.117,-7.721065E-06,1.755,102
0.1179,-8.996719E-05,1.7685,43,0.1179,-2.887007E-05,1.7685,108
0.1188,3.356985E-05,1.782,44,0.1188,-0.0001195087,1.782,103
0.1197,4.800488E-05,1.7955,45,0.1197,-0.0001003738,1.7955,102
0.1206,-0.0001198444,1.809,46,0.1206,-4.599069E-05,1.809,109
0.1215,-8.023193E-05,1.8225,44,0.1215,-2.24918E-05,1.8225,103
0.1224,-2.349889E-06,1.836,44,0.1224,-6.076142E-05,1.836,105
0.1233,-6.713969E-07,1.8495,44,0.1233,-0.0001131304,1.8495,106
0.1242,-4.36408E-06,1.863,43,0.1242,-5.874724E-05,1.863,104
0.1251,-6.64683E-05,1.8765,43,0.1251,-4.36408E-05,1.8765,104
0.126,-6.243992E-05,1.89,43,0.126,-8.526741E-05,1.89,103
0.1269,-2.484169E-05,1.9035,46,0.1269,-0.0001426719,1.9035,102
0.1278,-7.251087E-05,1.917,45,0.1278,-0.0001185016,1.917,106
0.1287,-5.941863E-05,1.9305,45,0.1287,-9.231708E-05,1.9305,105
0.1296,3.021286E-05,1.944,44,0.1296,-6.881819E-05,1.944,103
0.1305,-2.685588E-06,1.9575,46,0.1305,3.390555E-05,1.9575,106
0.1314,8.325322E-05,1.971,44,0.1314,-2.047761E-05,1.971,105
0.1323,0.0002135042,1.9845,45,0.1323,-7.956054E-05,1.9845,104
0.1332,0.0001990692,1.998,45,0.1332,-8.358892E-05,1.998,107
0.1341,5.706874E-06,2.0115,45,0.1341,-5.236896E-05,2.0115,107
0.135,-1.577783E-05,2.025,45,0.135,-7.687495E-05,2.025,106
0.1359,3.457694E-05,2.0385,44,0.1359,-8.023193E-05,2.0385,105
0.1368,3.659113E-05,2.052,44,0.1368,-9.164568E-05,2.052,107
0.1377,-4.46479E-05,2.0655,45,0.1377,-7.989624E-05,2.0655,107
0.1386,-0.0001087663,2.079,44,0.1386,-7.956054E-05,2.079,106
0.1395,-6.948959E-05,2.0925,43,0.1395,-8.761731E-05,2.0925,101
0.1404,-2.484169E-05,2.106,43,0.1404,-9.768826E-05,2.106,103
0.1413,-0.0001211871,2.1195,45,0.1413,-0.0001000381,2.1195,102
0.1422,-0.000102388,2.133,45,0.1422,-0.0001722133,2.133,104
0.1431,-3.692683E-06,2.1465,45,0.1431,-0.0003346914,2.1465,107
0.144,-8.123904E-05,2.16,45,0.144,-0.0003565118,2.16,107
0.1449,-7.284657E-05,2.1735,45,0.1449,-0.0003766537,2.1735,105
0.1458,8.392462E-06,2.187,44,0.1458,-0.0002517739,2.187,106
0.1467,-5.539025E-05,2.2005,45,0.1467,-2.081331E-05,2.2005,104
0.1476,-7.217517E-05,2.214,44,0.1476,0.0002138399,2.214,105
0.1485,-4.934768E-05,2.2275,46,0.1485,0.0005394674,2.2275,101
0.1494,-0.0001312581,2.241,43,0.1494,0.0005445029,2.241,105
0.1503,-9.164568E-05,2.2545,44,0.1503,0.000256138,2.2545,103
0.1512,-3.692683E-05,2.268,44,0.1512,0.0001765774,2.268,103
0.1521,-7.217517E-05,2.2815,44,0.1521,0.0001534142,2.2815,102
0.153,-6.881819E-05,2.295,43,0.153,7.754635E-05,2.295,107
0.1539,4.901198E-05,2.3085,45,0.1539,2.047761E-05,2.3085,104
0.1548,6.009003E-05,2.322,44,0.1548,2.786297E-05,2.322,104
0.1557,5.740444E-05,2.3355,44,0.1557,-2.786297E-05,2.3355,103
0.1566,0.0001285725,2.349,43,0.1566,-9.298848E-05,2.349,102
0.1575,8.86244E-05,2.3625,45,0.1575,-1.779202E-05,2.3625,104
0.1584,3.994812E-05,2.376,46,0.1584,5.203327E-05,2.376,107
0.1593,7.754635E-05,2.3895,45,0.1593,-3.021286E-06,2.3895,104
0.1602,0.0001285725,2.403,47,0.1602,1.846342E-05,2.403,106
0.1611,-1.913481E-05,2.4165,46,0.1611,9.231708E-05,2.4165,106
0.162,-3.054856E-05,2.43,46,0.162,4.061952E-05,2.43,107
0.1629,-1.779202E-05,2.4435,44,0.1629,-7.721065E-06,2.4435,103
0.1638,1.577783E-05,2.457,45,0.1638,-2.047761E-05,2.457,103
0.1647,-3.659113E-05,2.4705,45,0.1647,6.378271E-06,2.4705,101
0.1656,-0.0001467002,2.484,44,0.1656,-6.042573E-06,2.484,107
0.1665,-7.351797E-05,2.4975,45,0.1665,-7.318227E-05,2.4975,101
0.1674,-2.719158E-05,2.511,45,0.1674,-8.224613E-05,2.511,106
0.1683,-6.948959E-05,2.5245,43,0.1683,-4.800488E-05,2.5245,105
0.1692,1.846342E-05,2.538,46,0.1692,-6.277562E-05,2.538,104
0.1701,0.0001164874,2.5515,45,0.1701,-0.0001067521,2.5515,101
0.171,2.517739E-05,2.565,44,0.171,-6.848249E-05,2.565,104
0.1719,9.399558E-06,2.5785,45,0.1719,-7.318227E-05,2.5785,105
0.1728,3.390555E-05,2.592,46,0.1728,-0.0001003738,2.592,103
0.1737,9.567407E-05,2.6055,44,0.1737,-0.000102388,2.6055,107
0.1746,-3.356985E-05,2.619,44,0.1746,-9.634547E-05,2.619,103
0.1755,-8.224613E-05,2.6325,45,0.1755,-0.0001185016,2.6325,105
0.1764,-2.618448E-05,2.646,45,0.1764,-0.0001493858,2.646,104
0.1773,6.411841E-05,2.6595,45,0.1773,-0.0001416648,2.6595,104
0.1782,9.198138E-05,2.673,45,0.1782,-8.224613E-05,2.673,106
0.1791,-5.673304E-05,2.6865,46,0.1791,-1.913481E-05,2.6865,101
0.18,-6.378271E-06,2.7,43,0.18,7.721065E-06,2.7,104
0.1809,3.726253E-05,2.7135,44,0.1809,-3.390555E-05,2.7135,106
0.1818,-6.042573E-05,2.727,43,0.1818,-1.107805E-05,2.727,106
0.1827,-3.054856E-05,2.7405,44,0.1827,8.392462E-06,2.7405,104
0.1836,7.284657E-05,2.754,44,0.1836,1.141375E-05,2.754,106
0.1845,-5.001907E-05,2.7675,43,0.1845,9.063859E-05,2.7675,106
0.1854,-3.189136E-05,2.781,45,0.1854,1.141375E-05,2.781,107
0.1863,6.411841E-05,2.7945,46,0.1863,-4.46479E-05,2.7945,105
0.1872,-1.107805E-05,2.808,45,0.1872,-2.517739E-05,2.808,103
0.1881,-8.090334E-05,2.8215,43,0.1881,-5.304036E-05,2.8215,108
0.189,2.349889E-06,2.835,43,0.189,-7.150377E-05,2.835,104
0.1899,-5.975433E-05,2.8485,45,0.1899,-9.198138E-05,2.8485,104
0.1908,-3.558404E-05,2.862,44,0.1908,-0.0001309224,2.862,102
0.1917,1.544213E-05,2.8755,45,0.1917,-0.0001356222,2.8755,101
0.1926,-3.323415E-05,2.889,46,0.1926,-0.0001399863,2.889,103
0.1935,-6.74754E-05,2.9025,44,0.1935,-8.358892E-05,2.9025,101
0.1944,-1.779202E-05,2.916,45,0.1944,-9.063859E-05,2.916,104
0.1953,-4.599069E-05,2.9295,46,0.1953,2.014191E-05,2.9295,104
0.1962,-9.030289E-05,2.943,44,0.1962,0.0002057832,2.943,104
0.1971,5.035477E-06,2.9565,44,0.1971,0.0001285725,2.9565,106
0.198,-4.968337E-05,2.97,46,0.198,7.486076E-05,2.97,105
0.1989,-7.016098E-05,2.9835,45,0.1989,5.606165E-05,2.9835,104
0.1998,-3.692683E-06,2.997,45,0.1998,-8.560311E-05,2.997,102
0.2007,-2.719158E-05,3.0105,46,0.2007,-0.000102388,3.0105,101
0.2016,-4.33051E-05,3.024,46,0.2016,1.846342E-05,3.024,103
0.2025,-5.035477E-06,3.0375,44,0.2025,0.0002611734,3.0375,106
0.2034,3.659113E-05,3.051,0,0.2034,0.0004582284,3.051,0
0.2043,7.989624E-05,3.0645,0,0.2043,0.000197055,3.0645,0
0.2052,1.544213E-05,3.078,0,0.2052,9.365987E-05,3.078,0
0.2061,-3.826963E-05,3.0915,0,0.2061,4.599069E-05,3.0915,0
0.207,-2.349889E-06,3.105,0,0.207,1.846342E-05,3.105,0
0.2079,7.888914E-05,3.1185,0,0.2079,-2.417029E-05,3.1185,0
0.2088,3.524834E-05,3.132,0,0.2088,-2.24918E-05,3.132,0
0.2097,3.457694E-05,3.1455,0,0.2097,-0.0001007095,3.1455,0
0.2106,1.947051E-05,3.159,0,0.2106,-0.0001470359,3.159,0
0.2115,-9.500267E-05,3.1725,0,0.2115,-0.0001356222,3.1725,0
0.2124,-2.28275E-05,3.186,0,0.2124,-0.0001540856,3.186,0
0.2133,0.0001215228,3.1995,0,0.2133,-0.0001094377,3.1995,0
0.2142,6.74754E-05,3.213,0,0.2142,4.46479E-05,3.213,0
0.2151,5.941863E-05,3.2265,0,0.2151,8.560311E-05,3.2265,0
0.216,8.358892E-05,3.24,0,0.216,-2.081331E-05,3.24,0
0.2169,1.712062E-05,3.2535,0,0.2169,-0.0001030594,3.2535,0
0.2178,5.975433E-05,3.267,0,0.2178,-0.0001856413,3.267,0
0.2187,-1.913481E-05,3.2805,0,0.2187,-0.0001701991,3.2805,0
0.2196,-0.0001332723,3.294,0,0.2196,-0.000102388,3.294,0
0.2205,-7.553216E-05,3.3075,0,0.2205,-2.1149E-05,3.3075,0
0.2214,8.392462E-06,3.321,0,0.2214,7.486076E-05,3.321,0
0.2223,-1.712062E-05,3.3345,0,0.2223,0.000109102,3.3345,0
0.2232,2.1149E-05,3.348,0,0.2232,5.606165E-05,3.348,0
0.2241,0.0001151446,3.3615,0,0.2241,-2.685588E-06,3.3615,0
0.225,-4.39765E-05,3.375,0,0.225,4.934768E-05,3.375,0
0.2259,-6.51255E-05,3.3885,0,0.2259,9.802396E-05,3.3885,0
0.2268,3.659113E-05,3.402,0,0.2268,7.721065E-06,3.402,0
0.2277,1.007095E-06,3.4155,0,0.2277,-3.054856E-05,3.4155,0
0.2286,-0.000115816,3.429,0,0.2286,-3.054856E-05,3.429,0
0.2295,-9.298848E-05,3.4425,0,0.2295,-5.169757E-05,3.4425,0
0.2304,-0.0001205158,3.456,0,0.2304,-6.982528E-05,3.456,0
0.2313,-0.0001107805,3.4695,0,0.2313,-0.0001252155,3.4695,0
0.2322,-9.735256E-06,3.483,0,0.2322,-0.0001678492,3.483,0
0.2331,2.719158E-05,3.4965,0,0.2331,-0.000186984,3.4965,0
0.234,2.584878E-05,3.51,0,0.234,-0.000193698,3.51,0
0.2349,3.994812E-05,3.5235,0,0.2349,-0.0002678874,3.5235,0
0.2358,2.752728E-05,3.537,0,0.2358,-0.0001685206,3.537,0
0.2367,8.157473E-05,3.5505,0,0.2367,7.754635E-05,3.5505,0
0.2376,0.0001440146,3.564,0,0.2376,0.0002910506,3.564,0
0.2385,0,3.5775,0,0.2385,0.0002326391,3.5775,0
0.2394,-7.083238E-05,3.591,0,0.2394,9.164568E-05,3.591,0
0.2403,-1.577783E-05,3.6045,0,0.2403,-1.678492E-06,3.6045,0
0.2412,3.692683E-06,3.618,0,0.2412,-5.807584E-05,3.618,0
0.2421,-7.754635E-05,3.6315,0,0.2421,-4.36408E-05,3.6315,0
0.243,-5.236896E-05,3.645,0,0.243,-5.941863E-05,3.645,0
0.2439,3.692683E-06,3.6585,0,0.2439,-7.452507E-05,3.6585,0
0.2448,-1.141375E-05,3.672,0,0.2448,-8.761731E-05,3.672,0
0.2457,-5.102617E-05,3.6855,0,0.2457,-2.920577E-05,3.6855,0
0.2466,-6.948959E-05,3.699,0,0.2466,-7.721065E-06,3.699,0
0.2475,-3.155566E-05,3.7125,0,0.2475,-1.107805E-05,3.7125,0
0.2484,-2.786297E-05,3.726,0,0.2484,-7.721065E-06,3.726,0
0.2493,-0.0001453574,3.7395,0,0.2493,3.793393E-05,3.7395,0
0.2502,-7.721065E-05,3.753,0,0.2502,7.721065E-06,3.753,0
0.2511,3.860533E-05,3.7665,0,0.2511,-5.136187E-05,3.7665,0
0.252,-8.728161E-06,3.78,0,0.252,-1.913481E-05,3.78,0
0.2529,-4.632639E-05,3.7935,0,0.2529,-2.786297E-05,3.7935,0
0.2538,-2.551309E-05,3.807,0,0.2538,-0.0001201801,3.807,0
0.2547,5.874724E-05,3.8205,0,0.2547,-0.0001319295,3.8205,0
0.2556,5.975433E-05,3.834,0,0.2556,-0.0001315938,3.834,0
0.2565,7.821774E-05,3.8475,0,0.2565,-0.0001433432,3.8475,0
0.2574,1.913481E-05,3.861,0,0.2574,-8.023193E-05,3.861,0
0.2583,7.016098E-05,3.8745,0,0.2583,-7.418937E-05,3.8745,0
0.2592,6.848249E-05,3.888,0,0.2592,-3.692683E-06,3.888,0
0.2601,-0.0001211871,3.9015,0,0.2601,0.000154757,3.9015,0
0.261,-4.061952E-05,3.915,0,0.261,0.0001221943,3.915,0
0.2619,8.426032E-05,3.9285,0,0.2619,-4.49836E-05,3.9285,0
0.2628,-7.116808E-05,3.942,0,0.2628,-1.007095E-06,3.942,0
0.2637,-5.471885E-05,3.9555,0,0.2637,8.090334E-05,3.9555,0
0.2646,5.807584E-05,3.969,0,0.2646,-1.678492E-06,3.969,0
0.2655,-6.478981E-05,3.9825,0,0.2655,8.056763E-06,3.9825,0
0.2664,-7.821774E-05,3.996,0,0.2664,-1.745632E-05,3.996,0
0.2673,-2.618448E-05,4.0095,0,0.2673,-0.0001487144,4.0095,0
0.2682,3.659113E-05,4.023,0,0.2682,-0.0001685206,4.023,0
0.2691,-2.584878E-05,4.0365,0,0.2691,-0.0001258869,4.0365,0
0.27,-2.349889E-06,4.05,0,0.27,-8.157473E-05,4.05,0
0.2709,7.989624E-05,4.0635,0,0.2709,-0.0001195087,4.0635,0
0.2718,0.0001151446,4.077,0,0.2718,3.021286E-05,4.077,0
0.2727,7.486076E-05,4.0905,0,0.2727,0.0001708705,4.0905,0
0.2736,2.752728E-05,4.104,0,0.2736,7.486076E-05,4.104,0
0.2745,2.18204E-05,4.1175,0,0.2745,6.378271E-06,4.1175,0
0.2754,6.378271E-05,4.131,0,0.2754,3.088426E-05,4.131,0
0.2763,2.316319E-05,4.1445,0,0.2763,0.0001215228,4.1445,0
0.2772,-5.404745E-05,4.158,0,0.2772,4.196231E-05,4.158,0
0.2781,4.196231E-05,4.1715,0,0.2781,-7.620356E-05,4.1715,0
0.279,-3.021286E-06,4.185,0,0.279,-6.915389E-05,4.185,0
0.2799,-9.433127E-05,4.1985,0,0.2799,-0.000102388,4.1985,0
0.2808,-4.800488E-05,4.212,0,0.2808,-0.0002155184,4.212,0
0.2817,-1.644922E-05,4.2255,0,0.2817,-0.0001681849,4.2255,0
0.2826,-0.0001339437,4.239,0,0.2826,-0.0001738918,4.239,0
0.2835,-0.0001601282,4.2525,0,0.2835,-0.0001782559,4.2525,0
0.2844,-0.0001661708,4.266,0,0.2844,-5.035477E-06,4.266,0
0.2853,-0.0001030594,4.2795,0,0.2853,0.0002544594,4.2795,0
0.2862,-4.867628E-05,4.293,0,0.2862,0.0001607996,4.293,0
0.2871,0.0001567712,4.3065,0,0.2871,0.000119173,4.3065,0
0.288,0.0002346532,4.32,0,0.288,0.0001349508,4.32,0
0.2889,6.948959E-05,4.3335,0,0.2889,0.0001245441,4.3335,0
0.2898,1.040665E-05,4.347,0,0.2898,0.0001913481,4.347,0
0.2907,0.0001151446,4.3605,0,0.2907,0.0001950408,4.3605,0
0.2916,0.0001795987,4.374,0,0.2916,9.500267E-05,4.374,0
0.2925,2.081331E-05,4.3875,0,0.2925,9.768826E-05,4.3875,0
0.2934,-0.0001131304,4.401,0,0.2934,0.0001067521,4.401,0
0.2943,-8.627451E-05,4.4145,0,0.2943,5.740444E-05,4.4145,0
0.2952,-3.692683E-06,4.428,0,0.2952,2.652018E-05,4.428,0
0.2961,-0.0001030594,4.4415,0,0.2961,1.174945E-05,4.4415,0
0.297,-2.618448E-05,4.455,0,0.297,-4.36408E-05,4.455,0
0.2979,-4.733349E-05,4.4685,0,0.2979,-7.284657E-05,4.4685,0
0.2988,1.745632E-05,4.482,0,0.2988,-9.198138E-05,4.482,0
0.2997,2.584878E-05,4.4955,0,0.2997,-2.047761E-05,4.4955,0
0.3006,-0.0001550927,4.509,0,0.3006,1.846342E-05,4.509,0
0.3015,-0.0001279011,4.5225,0,0.3015,-3.793393E-05,4.5225,0
0.3024,-4.229801E-05,4.536,0,0.3024,-8.661021E-05,4.536,0
0.3033,-8.627451E-05,4.5495,0,0.3033,-0.0001037308,4.5495,0
0.3042,-7.284657E-05,4.563,0,0.3042,-0.0001601282,4.563,0
0.3051,7.116808E-05,4.5765,0,0.3051,-0.0001960479,4.5765,0
0.306,-2.584878E-05,4.59,0,0.306,-0.0001067521,4.59,0
0.3069,7.821774E-05,4.6035,0,0.3069,-7.989624E-05,4.6035,0
0.3078,0.000154757,4.617,0,0.3078,1.544213E-05,4.617,0
0.3087,0.0001322652,4.6305,0,0.3087,0.0001409934,4.6305,0
0.3096,1.846342E-05,4.644,0,0.3096,0.0001178302,4.644,0
0.3105,2.014191E-06,4.6575,0,0.3105,0.0001077592,4.6575,0
0.3114,3.994812E-05,4.671,0,0.3114,5.270466E-05,4.671,0
0.3123,4.39765E-05,4.6845,0,0.3123,-7.721065E-06,4.6845,0
0.3132,-6.344701E-05,4.698,0,0.3132,-6.344701E-05,4.698,0
0.3141,-0.0001430075,4.7115,0,0.3141,-0.0001017166,4.7115,0
0.315,-9.600977E-05,4.725,0,0.315,-0.0001245441,4.725,0
0.3159,-3.121996E-05,4.7385,0,0.3159,-0.0001839628,4.7385,0
0.3168,-2.383459E-05,4.752,0,0.3168,-8.795301E-05,4.752,0
0.3177,-1.947051E-05,4.7655,0,0.3177,-1.544213E-05,4.7655,0
0.3186,4.733349E-05,4.779,0,0.3186,-8.627451E-05,4.779,0
0.3195,-1.980621E-05,4.7925,0,0.3195,-3.323415E-05,4.7925,0
0.3204,3.961242E-05,4.806,0,0.3204,3.793393E-05,4.806,0
0.3213,0.0001097734,4.8195,0,0.3213,6.378271E-05,4.8195,0
0.3222,9.365987E-05,4.833,0,0.3222,4.599069E-05,4.833,0
0.3231,-8.392462E-06,4.8465,0,0.3231,-2.047761E-05,4.8465,0
0.324,-3.659113E-05,4.86,0,0.324,-6.881819E-05,4.86,0
0.3249,-2.21561E-05,4.8735,0,0.3249,-6.848249E-05,4.8735,0
0.3258,8.291753E-05,4.887,0,0.3258,-8.392462E-05,4.887,0
0.3267,-3.356985E-07,4.9005,0,0.3267,-0.0001017166,4.9005,0
0.3276,-8.89601E-05,4.914,0,0.3276,-0.0001127947,4.914,0
0.3285,1.510643E-05,4.9275,0,0.3285,-0.0001540856,4.9275,0
0.3294,1.544213E-05,4.941,0,0.3294,-0.0002198825,4.941,0
0.3303,-0.0001295796,4.9545,0,0.3303,-0.0001715419,4.9545,0
0.3312,-7.116808E-05,4.968,0,0.3312,-0.0001463645,4.968,0
0.3321,7.620356E-05,4.9815,0,0.3321,-0.0001987335,4.9815,0
0.333,-7.418937E-05,4.995,0,0.333,-7.754635E-05,4.995,0
0.3339,-3.088426E-05,5.0085,0,0.3339,-3.558404E-05,5.0085,0
0.3348,3.054856E-05,5.022,0,0.3348,-0.0001470359,5.022,0
0.3357,-0.0001957122,5.0355,0,0.3357,-0.0001289082,5.0355,0
0.3366,-0.0002356603,5.049,0,0.3366,1.510643E-05,5.049,0
0.3375,-0.0001154803,5.0625,0,0.3375,8.728161E-06,5.0625,0
0.3384,-0.0001171588,5.076,0,0.3384,1.577783E-05,5.076,0
0.3393,1.712062E-05,5.0895,0,0.3393,7.284657E-05,5.0895,0
0.3402,0.0001795987,5.103,0,0.3402,0.0001443503,5.103,0
0.3411,4.666209E-05,5.1165,0,0.3411,2.786297E-05,5.1165,0
0.342,6.78111E-05,5.13,0,0.342,-6.814679E-05,5.13,0
0.3429,0.0001285725,5.1435,0,0.3429,-0.0001607996,5.1435,0
0.3438,0.0001279011,5.157,0,0.3438,-0.0001221943,5.157,0
0.3447,1.846342E-05,5.1705,0,0.3447,-1.007095E-05,5.1705,0
0.3456,9.768826E-05,5.184,0,0.3456,-9.701686E-05,5.184,0
0.3465,-2.450599E-05,5.1975,0,0.3465,-0.0001802701,5.1975,0
0.3474,-0.0001040665,5.211,0,0.3474,-9.063859E-06,5.211,0
0.3483,-7.183947E-05,5.2245,0,0.3483,0.000200412,5.2245,0
0.3492,-0.0001017166,5.238,0,0.3492,0.0003420768,5.238,0
0.3501,-0.0001138018,5.2515,0,0.3501,0.0004951553,5.2515,0
0.351,-4.565499E-05,5.265,0,0.351,0.0004884413,5.265,0
0.3519,0.0001084306,5.2785,0,0.3519,0.0004542001,5.2785,0
0.3528,0.0001923552,5.292,0,0.3528,0.000340734,5.292,0
0.3537,0.0001225299,5.3055,0,0.3537,0.0001621424,5.3055,0
0.3546,3.994812E-05,5.319,0,0.3546,9.030289E-05,5.319,0
0.3555,4.934768E-05,5.3325,0,0.3555,-2.987716E-05,5.3325,0
0.3564,2.920577E-05,5.346,0,0.3564,-0.0001040665,5.346,0
0.3573,-9.164568E-05,5.3595,0,0.3573,-2.1149E-05,5.3595,0
0.3582,-9.735256E-06,5.373,0,0.3582,-5.941863E-05,5.373,0
0.3591,8.291753E-05,5.3865,0,0.3591,-0.000133608,5.3865,0
0.36,-2.853437E-05,5.4,0,0.36,-4.968337E-05,5.4,0
0.3609,2.014191E-05,5.4135,0,0.3609,-8.627451E-05,5.4135,0
0.3618,3.155566E-05,5.427,0,0.3618,-0.0001994049,5.427,0
0.3627,3.424125E-05,5.4405,0,0.3627,-0.0001426719,5.4405,0
0.3636,2.920577E-05,5.454,0,0.3636,-7.351797E-05,5.454,0
0.3645,-3.189136E-05,5.4675,0,0.3645,-7.183947E-05,5.4675,0
0.3654,-7.351797E-05,5.481,0,0.3654,-0.0001064164,5.481,0
0.3663,-1.107805E-05,5.4945,0,0.3663,-0.0001423362,5.4945,0
0.3672,-3.591974E-05,5.508,0,0.3672,-9.500267E-05,5.508,0
0.3681,-0.0002145113,5.5215,0,0.3681,-7.687495E-05,5.5215,0
0.369,-0.000126894,5.535,0,0.369,-0.0001044022,5.535,0
0.3699,2.752728E-05,5.5485,0,0.3699,-9.634547E-05,5.5485,0
0.3708,-7.553216E-05,5.562,0,0.3708,-5.304036E-05,5.562,0
0.3717,-3.021286E-06,5.5755,0,0.3717,-4.766919E-05,5.5755,0
0.3726,0.0001164874,5.589,0,0.3726,-8.761731E-05,5.589,0
0.3735,-2.853437E-05,5.6025,0,0.3735,-4.33051E-05,5.6025,0
0.3744,-1.510643E-05,5.616,0,0.3744,-5.539025E-05,5.616,0
0.3753,6.009003E-05,5.6295,0,0.3753,-6.881819E-05,5.6295,0
0.3762,5.035477E-06,5.643,0,0.3762,8.392462E-06,5.643,0
0.3771,-6.210422E-05,5.6565,0,0.3771,-3.692683E-06,5.6565,0
0.378,-7.150377E-05,5.67,0,0.378,-6.64683E-05,5.67,0
0.3789,-6.109713E-05,5.6835,0,0.3789,-1.443504E-05,5.6835,0
0.3798,-6.411841E-05,5.697,0,0.3798,-2.383459E-05,5.697,0
0.3807,-4.39765E-05,5.7105,0,0.3807,-4.53193E-05,5.7105,0
0.3816,-2.719158E-05,5.724,0,0.3816,-4.599069E-05,5.724,0
0.3825,-6.009003E-05,5.7375,0,0.3825,-0.0001701991,5.7375,0
0.3834,-2.786297E-05,5.751,0,0.3834,-0.0001876554,5.751,0
0.3843,-6.71397E-05,5.7645,0,0.3843,-0.0001601282,5.7645,0
0.3852,-2.920577E-05,5.778,0,0.3852,-0.0001755703,5.778,0
0.3861,8.291753E-05,5.7915,0,0.3861,-0.000164828,5.7915,0
0.387,1.007095E-05,5.805,0,0.387,2.551309E-05,5.805,0
0.3879,-1.980621E-05,5.8185,0,0.3879,8.023193E-05,5.8185,0
0.3888,0.0001242084,5.832,0,0.3888,-5.035477E-06,5.832,0
0.3897,0.0001795987,5.8455,0,0.3897,0.0002262608,5.8455,0
0.3906,5.740444E-05,5.859,0,0.3906,0.0002719158,5.859,0
0.3915,-1.007095E-06,5.8725,0,0.3915,0.000164828,5.8725,0
0.3924,-5.001907E-05,5.886,0,0.3924,-3.793393E-05,5.886,0
0.3933,-3.524834E-05,5.8995,0,0.3933,-0.0002155184,5.8995,0
0.3942,-2.18204E-05,5.913,0,0.3942,-5.706874E-06,5.913,0
0.3951,-9.634547E-05,5.9265,0,0.3951,0.0001151446,5.9265,0
0.396,-5.136187E-05,5.94,0,0.396,4.36408E-06,5.94,0
0.3969,-1.947051E-05,5.9535,0,0.3969,1.947051E-05,5.9535,0
0.3978,-7.687495E-05,5.967,0,0.3978,9.097429E-05,5.967,0
0.3987,-4.49836E-05,5.9805,0,0.3987,4.699779E-06,5.9805,0
0.3996,-0.0001198444,5.994,0,0.3996,-7.788205E-05,5.994,0
0.4005,-0.0002464027,6.0075,0,0.4005,-6.009003E-05,6.0075,0
0.4014,-0.000158114,6.021,0,0.4014,-7.083238E-05,6.021,0
0.4023,-4.46479E-05,6.0345,0,0.4023,-4.733349E-05,6.0345,0
0.4032,4.867628E-05,6.048,0,0.4032,3.860533E-05,6.048,0
0.4041,7.687495E-05,6.0615,0,0.4041,7.620356E-05,6.0615,0
0.405,0.0002141756,6.075,0,0.405,-2.21561E-05,6.075,0
0.4059,0.0001863127,6.0885,0,0.4059,-6.61326E-05,6.0885,0
0.4068,0.0001279011,6.102,0,0.4068,-0.0001134661,6.102,0
0.4077,3.524834E-05,6.1155,0,0.4077,-0.000109102,6.1155,0
0.4086,-0.0001537499,6.129,0,0.4086,7.385367E-06,6.129,0
0.4095,-5.941863E-05,6.1425,0,0.4095,3.256275E-05,6.1425,0
0.4104,5.438316E-05,6.156,0,0.4104,-3.692683E-06,6.156,0
0.4113,3.591974E-05,6.1695,0,0.4113,4.263371E-05,6.1695,0
0.4122,0.0001863127,6.183,0,0.4122,0.0002091402,6.183,0
0.4131,0.0002487526,6.1965,0,0.4131,0.0001258869,6.1965,0
0.414,5.471885E-05,6.21,0,0.414,5.841154E-05,6.21,0
0.4149,2.920577E-05,6.2235,0,0.4149,3.826963E-05,6.2235,0
0.4158,7.150377E-05,6.237,0,0.4158,-7.083238E-05,6.237,0
0.4167,-8.459602E-05,6.2505,0,0.4167,-5.874724E-05,6.2505,0
0.4176,-0.0001362936,6.264,0,0.4176,-2.316319E-05,6.264,0
0.4185,-3.256275E-05,6.2775,0,0.4185,-4.632639E-05,6.2775,0
0.4194,-6.814679E-05,6.291,0,0.4194,-2.920577E-05,6.291,0
0.4203,-3.457694E-05,6.3045,0,0.4203,-5.941863E-05,6.3045,0
0.4212,5.102617E-05,6.318,0,0.4212,-3.659113E-05,6.318,0
0.4221,-3.021286E-06,6.3315,0,0.4221,-8.86244E-05,6.3315,0
0.423,-7.116808E-05,6.345,0,0.423,-0.0001560998,6.345,0
0.4239,-3.625543E-05,6.3585,0,0.4239,-0.0002051118,6.3585,0
0.4248,-0.0001258869,6.372,0,0.4248,-0.0002232395,6.372,0
0.4257,2.21561E-05,6.3855,0,0.4257,-0.0002574807,6.3855,0
0.4266,0.0001621424,6.399,0,0.4266,-0.0003242847,6.399,0
0.4275,5.941863E-05,6.4125,0,0.4275,-0.0002296178,6.4125,0
0.4284,3.524834E-05,6.426,0,0.4284,-0.0001080949,6.426,0
0.4293,-6.378271E-06,6.4395,0,0.4293,-0.000119173,6.4395,0
0.4302,-0.0001332723,6.453,0,0.4302,2.014191E-06,6.453,0
0.4311,-0.0001252155,6.4665,0,0.4311,0.0001433432,6.4665,0
0.432,-0.0001762417,6.48,0,0.432,0.0002027619,6.48,0
0.4329,-0.0001950408,6.4935,0,0.4329,0.0002937362,6.4935,0
0.4338,-3.826963E-05,6.507,0,0.4338,6.54612E-05,6.507,0
0.4347,-1.443504E-05,6.5205,0,0.4347,8.86244E-05,6.5205,0
0.4356,0.0002030976,6.534,0,0.4356,0.0001517357,6.534,0
0.4365,0.000274937,6.5475,0,0.4365,3.726253E-05,6.5475,0
0.4374,0.0001285725,6.561,0,0.4374,-4.632639E-05,6.561,0
0.4383,-1.980621E-05,6.5745,0,0.4383,5.270466E-05,6.5745,0
0.4392,-4.33051E-05,6.588,0,0.4392,7.620356E-05,6.588,0
0.4401,5.539025E-05,6.6015,0,0.4401,0.0001460288,6.6015,0
0.441,-2.28275E-05,6.615,0,0.441,0.0002212253,6.615,0
0.4419,-7.553216E-05,6.6285,0,0.4419,3.054856E-05,6.6285,0
0.4428,-1.309224E-05,6.642,0,0.4428,-0.0001443503,6.642,0
0.4437,-7.956054E-05,6.6555,0,0.4437,-0.0002061189,6.6555,0
0.4446,-0.0001735561,6.669,0,0.4446,-0.0002138399,6.669,0
0.4455,-7.553216E-05,6.6825,0,0.4455,-0.000252781,6.6825,0
0.4464,-0.0001097734,6.696,0,0.4464,-0.0002353246,6.696,0
0.4473,-7.049668E-05,6.7095,0,0.4473,-0.0001473716,6.7095,0
0.4482,-2.081331E-05,6.723,0,0.4482,-1.812772E-05,6.723,0
0.4491,3.726253E-05,6.7365,0,0.4491,-3.457694E-05,6.7365,0
0.45,0.0001876554,6.75,0,0.45,1.443504E-05,6.75,0
0.4509,0.0001460288,6.7635,0,0.4509,6.210422E-05,6.7635,0
0.4518,-1.174945E-05,6.777,0,0.4518,8.89601E-05,6.777,0
0.4527,-7.821774E-05,6.7905,0,0.4527,9.063859E-05,6.7905,0
0.4536,5.136187E-05,6.804,0,0.4536,0.0001896696,6.804,0
0.4545,-8.392462E-06,6.8175,0,0.4545,0.0002312963,6.8175,0
0.4554,-9.500267E-05,6.831,0,0.4554,0.0001809415,6.831,0
0.4563,-2.618448E-05,6.8445,0,0.4563,0.000154757,6.8445,0
0.4572,-1.174945E-05,6.858,0,0.4572,0.0001295796,6.858,0
0.4581,-9.030289E-05,6.8715,0,0.4581,0.0001030594,6.8715,0
0.459,-3.659113E-05,6.885,0,0.459,5.572595E-05,6.885,0
0.4599,3.692683E-06,6.8985,0,0.4599,-3.692683E-06,6.8985,0
0.4608,-7.150377E-05,6.912,0,0.4608,-0.0001138018,6.912,0
0.4617,-6.74754E-05,6.9255,0,0.4617,-0.0001161517,6.9255,0
0.4626,-3.894102E-05,6.939,0,0.4626,-0.0001554284,6.939,0
0.4635,1.980621E-05,6.9525,0,0.4635,-0.0002272679,6.9525,0
0.4644,2.719158E-05,6.966,0,0.4644,-0.000249424,6.966,0
0.4653,-2.920577E-05,6.9795,0,0.4653,-0.000144686,6.9795,0
0.4662,4.800488E-05,6.993,0,0.4662,-9.668116E-05,6.993,0
0.4671,0.0001795987,7.0065,0,0.4671,-3.323415E-05,7.0065,0
0.468,0.0001426719,7.02,0,0.468,0.0002051118,7.02,0
0.4689,4.53193E-05,7.0335,0,0.4689,0.0001265583,7.0335,0
0.4698,-4.263371E-05,7.047,0,0.4698,-0.0001201801,7.047,0
0.4707,1.678492E-05,7.0605,0,0.4707,-0.0002517739,7.0605,0
0.4716,-3.021286E-06,7.074,0,0.4716,-0.0002584878,7.074,0
0.4725,-4.565499E-05,7.0875,0,0.4725,-0.0003108568,7.0875,0
0.4734,-2.853437E-05,7.101,0,0.4734,-0.0001876554,7.101,0
0.4743,2.920577E-05,7.1145,0,0.4743,-3.558404E-05,7.1145,0
0.4752,-3.121996E-05,7.128,0,0.4752,0.0002628519,7.128,0
0.4761,-0.0001322652,7.1415,0,0.4761,0.0003447623,7.1415,0
0.477,-3.793393E-05,7.155,0,0.477,0.0003326772,7.155,0
0.4779,3.659113E-05,7.1685,0,0.4779,0.0002521096,7.1685,0
0.4788,-8.157473E-05,7.182,0,0.4788,0.0002010834,7.182,0
0.4797,-3.591974E-05,7.1955,0,0.4797,0.0001339437,7.1955,0
0.4806,5.069047E-05,7.209,0,0.4806,-7.049668E-06,7.209,0
0.4815,-8.358892E-05,7.2225,0,0.4815,-1.174945E-05,7.2225,0
0.4824,-4.766919E-05,7.236,0,0.4824,-4.028382E-06,7.236,0
0.4833,2.517739E-05,7.2495,0,0.4833,-7.956054E-05,7.2495,0
0.4842,1.040665E-05,7.263,0,0.4842,-8.493171E-05,7.263,0
0.4851,-8.459602E-05,7.2765,0,0.4851,-6.009003E-05,7.2765,0
0.486,-3.524834E-05,7.29,0,0.486,-8.258183E-05,7.29,0
0.4869,-1.443504E-05,7.3035,0,0.4869,-8.661021E-05,7.3035,0
0.4878,-4.39765E-05,7.317,0,0.4878,-0.000126894,7.317,0
0.4887,-3.121996E-05,7.3305,0,0.4887,-0.0001040665,7.3305,0
0.4896,-5.673304E-05,7.344,0,0.4896,-0.0001050736,7.344,0
0.4905,-8.358892E-05,7.3575,0,0.4905,-0.0001701991,7.3575,0
0.4914,-1.779202E-05,7.371,0,0.4914,-0.0001923552,7.371,0
0.4923,-0.0001453574,7.3845,0,0.4923,-0.0001003738,7.3845,0
0.4932,-0.0001812772,7.398,0,0.4932,-0.0001312581,7.398,0
0.4941,-1.275654E-05,7.4115,0,0.4941,-0.000148043,7.4115,0
0.495,-5.639734E-05,7.425,0,0.495,-8.224613E-05,7.425,0
0.4959,0.0001339437,7.4385,0,0.4959,-1.208515E-05,7.4385,0
0.4968,0.0003642329,7.452,0,0.4968,-4.934768E-05,7.452,0
0.4977,0.0003575189,7.4655,0,0.4977,-0.0001101091,7.4655,0
0.4986,0.0001258869,7.479,0,0.4986,-3.558404E-05,7.479,0
0.4995,9.063859E-06,7.4925,0,0.4995,8.996719E-05,7.4925,0
0.5004,4.666209E-05,7.506,0,0.5004,5.841154E-05,7.506,0
0.5013,5.774014E-05,7.5195,0,0.5013,0.0001228656,7.5195,0
0.5022,-1.477073E-05,7.533,0,0.5022,0.0002165255,7.533,0
0.5031,-5.471885E-05,7.5465,0,0.5031,0.0001943694,7.5465,0
0.504,-1.913481E-05,7.56,0,0.504,9.634547E-05,7.56,0
0.5049,-3.356985E-05,7.5735,0,0.5049,6.277562E-05,7.5735,0
0.5058,-0.0001134661,7.587,0,0.5058,7.418937E-05,7.587,0
0.5067,-5.203327E-05,7.6005,0,0.5067,-3.558404E-05,7.6005,0
0.5076,-3.021286E-06,7.614,0,0.5076,-6.814679E-05,7.614,0
0.5085,-6.210422E-05,7.6275,0,0.5085,-0.000123537,7.6275,0
0.5094,5.572595E-05,7.641,0,0.5094,-0.0001540856,7.641,0
0.5103,0.0001050736,7.6545,0,0.5103,-0.0001658351,7.6545,0
0.5112,9.433127E-05,7.668,0,0.5112,-8.69459E-05,7.668,0
0.5121,-3.054856E-05,7.6815,0,0.5121,-4.800488E-05,7.6815,0
0.513,-2.18204E-05,7.695,0,0.513,-4.901198E-05,7.695,0
0.5139,3.054856E-05,7.7085,0,0.5139,-8.224613E-05,7.7085,0
0.5148,0.000115816,7.722,0,0.5148,-0.0001252155,7.722,0
0.5157,4.599069E-05,7.7355,0,0.5157,-0.0001373007,7.7355,0
0.5166,-7.452507E-05,7.749,0,0.5166,-0.0001779202,7.749,0
0.5175,-7.049668E-06,7.7625,0,0.5175,-0.0002440528,7.7625,0
0.5184,-8.459602E-05,7.776,0,0.5184,-0.0003333486,7.776,0
0.5193,-0.0002574807,7.7895,0,0.5193,-0.0004055238,7.7895,0
0.5202,-0.000239353,7.803,0,0.5202,-0.0003716182,7.803,0
0.5211,-0.0001607996,7.8165,0,0.5211,-0.0003269703,7.8165,0
0.522,-0.0002406958,7.83,0,0.522,-0.0002084688,7.83,0
0.5229,-0.0001728847,7.8435,0,0.5229,7.049668E-06,7.8435,0
0.5238,8.96315E-05,7.857,0,0.5238,0.0005985504,7.857,0
0.5247,0.0003058213,7.8705,0,0.5247,0.0008214542,7.8705,0
0.5256,0.0002477455,7.884,0,0.5256,0.0004488289,7.884,0
0.5265,0.000186984,7.8975,0,0.5265,0.0004790417,7.8975,0
0.5274,3.961242E-05,7.911,0,0.5274,0.0005314107,7.911,0
0.5283,7.721065E-06,7.9245,0,0.5283,0.0003299916,7.9245,0
0.5292,8.224613E-05,7.938,0,0.5292,0.0002057832,7.938,0
0.5301,-4.867628E-05,7.9515,0,0.5301,6.277562E-05,7.9515,0
0.531,-8.82887E-05,7.965,0,0.531,-5.841154E-05,7.965,0
0.5319,4.229801E-05,7.9785,0,0.5319,-0.0001386435,7.9785,0
0.5328,3.894102E-05,7.992,0,0.5328,-0.0001607996,7.992,0
0.5337,-2.383459E-05,8.0055,0,0.5337,-0.0002232395,8.0055,0
0.5346,-1.174945E-05,8.019,0,0.5346,-0.0002175326,8.019,0
0.5355,-6.478981E-05,8.0325,0,0.5355,-1.678492E-05,8.0325,0
0.5364,-2.517739E-05,8.046,0,0.5364,0.0001050736,8.046,0
0.5373,8.392462E-06,8.0595,0,0.5373,1.342794E-06,8.0595,0
0.5382,-5.404745E-05,8.073,0,0.5382,-2.484169E-05,8.073,0
0.5391,-0.0001064164,8.0865,0,0.5391,-4.43122E-05,8.0865,0
0.54,-9.298848E-05,8.1,0,0.54,-0.0002699016,8.1,0
0.5409,-5.337606E-05,8.1135,0,0.5409,-0.0002970932,8.1135,0
0.5418,-1.007095E-05,8.127,0,0.5418,-0.0003195849,8.127,0
0.5427,-0.0001151446,8.1405,0,0.5427,-0.0004323796,8.1405,0
0.5436,-7.318227E-05,8.154,0,0.5436,-0.0003296559,8.154,0
0.5445,-7.049668E-06,8.1675,0,0.5445,-7.049668E-06,8.1675,0
0.5454,-2.920577E-05,8.181,0,0.5454,1.107805E-05,8.181,0
0.5463,-4.968337E-05,8.1945,0,0.5463,-5.035477E-05,8.1945,0
0.5472,6.042573E-05,8.208,0,0.5472,-2.28275E-05,8.208,0
0.5481,8.69459E-05,8.2215,0,0.5481,4.36408E-05,8.2215,0
0.549,-5.706874E-06,8.235,0,0.549,0.0002497597,8.235,0
0.5499,-5.404745E-05,8.2485,0,0.5499,0.0006327917,8.2485,0
0.5508,-4.095522E-05,8.262,0,0.5508,0.000379675,8.262,0
0.5517,3.356985E-07,8.2755,0,0.5517,0.0001634852,8.2755,0
0.5526,-3.121996E-05,8.289,0,0.5526,0.0002145113,8.289,0
0.5535,1.443504E-05,8.3025,0,0.5535,6.143282E-05,8.3025,0
0.5544,4.061952E-05,8.316,0,0.5544,-7.351797E-05,8.316,0
0.5553,7.385367E-05,8.3295,0,0.5553,-0.0001628138,8.3295,0
0.5562,2.1149E-05,8.343,0,0.5562,-0.000144686,8.343,0
0.5571,-7.922484E-05,8.3565,0,0.5571,-0.0001789273,8.3565,0
0.558,-7.553216E-05,8.37,0,0.558,-0.0002289464,8.37,0
0.5589,-2.887007E-05,8.3835,0,0.5589,-0.0002222324,8.3835,0
0.5598,-4.934768E-05,8.397,0,0.5598,-0.0001930266,8.397,0
0.5607,1.040665E-05,8.4105,0,0.5607,-0.0002027619,8.4105,0
0.5616,8.291753E-05,8.424,0,0.5616,-0.0002339818,8.424,0
0.5625,-6.74754E-05,8.4375,0,0.5625,-0.0001712062,8.4375,0
0.5634,-8.224613E-05,8.451,0,0.5634,-0.0001846342,8.451,0
0.5643,5.740444E-05,8.4645,0,0.5643,-0.0002084688,8.4645,0
0.5652,5.471885E-05,8.478,0,0.5652,-0.0001594568,8.478,0
0.5661,-6.143282E-05,8.4915,0,0.5661,-0.0001507286,8.4915,0
0.567,-3.826963E-05,8.505,0,0.567,-9.466698E-05,8.505,0
0.5679,-1.074235E-05,8.5185,0,0.5679,1.141375E-05,8.5185,0
0.5688,4.699779E-06,8.532,0,0.5688,4.36408E-06,8.532,0
0.5697,-8.661021E-05,8.5455,0,0.5697,5.203327E-05,8.5455,0
0.5706,-0.0001151446,8.559,0,0.5706,0.0001114519,8.559,0
0.5715,-6.6804E-05,8.5725,0,0.5715,5.169757E-05,8.5725,0
0.5724,-4.733349E-05,8.586,0,0.5724,3.826963E-05,8.586,0
0.5733,-1.141375E-05,8.5995,0,0.5733,0.000105745,8.5995,0
0.5742,5.304036E-05,8.613,0,0.5742,6.378271E-05,8.613,0
0.5751,0.000112459,8.6265,0,0.5751,-3.591974E-05,8.6265,0
0.576,0.0001218585,8.64,0,0.576,-2.28275E-05,8.64,0
0.5769,6.814679E-05,8.6535,0,0.5769,-0.0001168231,8.6535,0
0.5778,5.035477E-06,8.667,0,0.5778,-0.0002897078,8.667,0
0.5787,5.539025E-05,8.6805,0,0.5787,-0.0002319677,8.6805,0
0.5796,7.049668E-06,8.694,0,0.5796,6.51255E-05,8.694,0
0.5805,1.174945E-05,8.7075,0,0.5805,6.277562E-05,8.7075,0
0.5814,9.097429E-05,8.721,0,0.5814,-2.853437E-05,8.721,0
0.5823,0.000207126,8.7345,0,0.5823,0.0002541238,8.7345,0
0.5832,0.0001507286,8.748,0,0.5832,0.0004407721,8.748,0
0.5841,8.560311E-05,8.7615,0,0.5841,0.0003790036,8.7615,0
0.585,0.0001285725,8.775,0,0.585,0.0002088045,8.775,0
0.5859,6.411841E-05,8.7885,0,0.5859,9.970245E-05,8.7885,0
0.5868,-0.000109102,8.802,0,0.5868,0.0001070878,8.802,0
0.5877,-0.0001265583,8.8155,0,0.5877,4.33051E-05,8.8155,0
0.5886,-0.0001117876,8.829,0,0.5886,-0.0001185016,8.829,0
0.5895,-0.0002534524,8.8425,0,0.5895,-8.123904E-05,8.8425,0
0.5904,-0.0001591211,8.856,0,0.5904,-9.701686E-05,8.856,0
0.5913,4.39765E-05,8.8695,0,0.5913,-0.0001359579,8.8695,0
0.5922,0.0001769131,8.883,0,0.5922,-0.0001560998,8.883,0
0.5931,0.0002104829,8.8965,0,0.5931,0.0001164874,8.8965,0
0.594,0.0001906767,8.91,0,0.594,0.0003461051,8.91,0
0.5949,9.231708E-05,8.9235,0,0.5949,0.0002964218,8.9235,0
0.5958,5.807584E-05,8.937,0,0.5958,0.0001594568,8.937,0
0.5967,1.678492E-05,8.9505,0,0.5967,0.0001225299,8.9505,0
0.5976,-6.076142E-05,8.964,0,0.5976,2.719158E-05,8.964,0
0.5985,-0.0001201801,8.9775,0,0.5985,-0.0001359579,8.9775,0
0.5994,-0.000126894,8.991,0,0.5994,-0.0001940337,8.991,0
0.6003,-0.0002655375,9.0045,0,0.6003,-0.0003064927,9.0045,0
0.6012,-0.0002722515,9.018,0,0.6012,-0.000477699,9.018,0
0.6021,-0.0001346151,9.0315,0,0.6021,-0.0004696422,9.0315,0
0.603,-0.0001967193,9.045,0,0.603,-0.0002406958,9.045,0
0.6039,-0.0001272297,9.0585,0,0.6039,-0.0001842985,9.0585,0
0.6048,0.0001738918,9.072001,0,0.6048,-9.399557E-05,9.072001,0
0.6057,0.0004266728,9.0855,0,0.6057,0.0001215228,9.0855,0
0.6066,0.0001930266,9.099,0,0.6066,0.0003743038,9.099,0
0.6075,-3.256275E-05,9.1125,0,0.6075,0.0001701991,9.1125,0
0.6084,3.524834E-05,9.126,0,0.6084,0.000148043,9.126,0
0.6093,6.6804E-05,9.1395,0,0.6093,0.0003246204,9.1395,0
0.6102,-2.584878E-05,9.153,0,0.6102,0.0001889983,9.153,0
0.6111,-4.33051E-05,9.1665,0,0.6111,0.000140322,9.1665,0
0.612,-3.256275E-05,9.18,0,0.612,0.0001366293,9.18,0
0.6129,-9.735256E-06,9.1935,0,0.6129,-3.356985E-07,9.1935,0
0.6138,-5.270466E-05,9.207,0,0.6138,-6.54612E-05,9.207,0
0.6147,-5.438316E-05,9.2205,0,0.6147,-0.0003011215,9.2205,0
0.6156,-3.927672E-05,9.234,0,0.6156,-0.0005116045,9.234,0
0.6165,-0.0001326009,9.2475,0,0.6165,-0.0005203327,9.2475,0
0.6174,-0.0001077592,9.261,0,0.6174,-0.0004699779,9.261,0
0.6183,-0.0001245441,9.2745,0,0.6183,-0.0003514763,9.2745,0
0.6192,-0.0001376364,9.288,0,0.6192,0.0001524071,9.288,0
0.6201,-7.418937E-05,9.3015,0,0.6201,0.0005777371,9.3015,0
0.621,-0.0001272297,9.315,0,0.621,0.0004468147,9.315,0
0.6219,-0.0001077592,9.3285,0,0.6219,0.0002897078,9.3285,0
0.6228,9.097429E-05,9.342,0,0.6228,0.0001252155,9.342,0
0.6237,0.0001644923,9.3555,0,0.6237,0.0001433432,9.3555,0
0.6246,3.726253E-05,9.369,0,0.6246,1.007095E-06,9.369,0
0.6255,-6.311131E-05,9.3825,0,0.6255,-0.0001433432,9.3825,0
0.6264,-5.539025E-05,9.396,0,0.6264,-0.0001853056,9.396,0
0.6273,-0.0001218585,9.4095,0,0.6273,-9.332418E-05,9.4095,0
0.6282,-0.0001010452,9.423,0,0.6282,-9.701686E-05,9.423,0
0.6291,6.78111E-05,9.4365,0,0.6291,-0.0001238727,9.4365,0
0.63,-3.994812E-05,9.45,0,0.63,-5.471885E-05,9.45,0
0.6309,-4.196231E-05,9.4635,0,0.6309,-0.0001185016,9.4635,0
0.6318,7.351797E-05,9.477,0,0.6318,-0.0002823224,9.477,0
0.6327,3.994812E-05,9.4905,0,0.6327,-0.0004911269,9.4905,0
0.6336,-2.24918E-05,9.504,0,0.6336,-0.0005619593,9.504,0
0.6345,-8.728161E-06,9.5175,0,0.6345,-0.0006740825,9.5175,0
0.6354,-3.524834E-05,9.531,0,0.6354,-0.000601236,9.531,0
0.6363,0.000102388,9.5445,0,0.6363,-0.0001634852,9.5445,0
0.6372,0.0001654994,9.558,0,0.6372,0.0003662471,9.558,0
0.6381,-1.510643E-05,9.5715,0,0.6381,0.0004588998,9.5715,0
0.639,-1.174945E-05,9.585,0,0.639,0.0005361105,9.585,0
0.6399,2.920577E-05,9.5985,0,0.6399,0.000591165,9.5985,0
0.6408,-8.392462E-06,9.612,0,0.6408,0.0004226444,9.612,0
0.6417,2.551309E-05,9.6255,0,0.6417,0.0002977645,9.6255,0
0.6426,6.311131E-05,9.639,0,0.6426,0.0001819486,9.639,0
0.6435,-5.001907E-05,9.6525,0,0.6435,0.0001366293,9.6525,0
0.6444,-3.457694E-05,9.666,0,0.6444,4.196231E-05,9.666,0
0.6453,6.210422E-05,9.6795,0,0.6453,-1.174945E-05,9.6795,0
0.6462,-2.853437E-05,9.693,0,0.6462,-4.800488E-05,9.693,0
0.6471,-0.000115816,9.7065,0,0.6471,-8.325322E-05,9.7065,0
0.648,-5.706874E-06,9.72,0,0.648,-0.0001503929,9.72,0
0.6489,7.586786E-05,9.7335,0,0.6489,-0.000193698,9.7335,0
0.6498,7.318227E-05,9.747,0,0.6498,-0.0002218967,9.747,0
0.6507,1.342794E-06,9.7605,0,0.6507,-0.0001923552,9.7605,0
0.6516,-9.835965E-05,9.774,0,0.6516,-0.0002222324,9.774,0
0.6525,-7.452507E-05,9.7875,0,0.6525,-0.0001980621,9.7875,0
0.6534,-8.89601E-05,9.801,0,0.6534,-0.0002336461,9.801,0
0.6543,-9.835965E-05,9.8145,0,0.6543,-9.365987E-05,9.8145,0
0.6552,4.061952E-05,9.828,0,0.6552,2.383459E-05,9.828,0
0.6561,6.814679E-05,9.8415,0,0.6561,-0.0001027237,9.8415,0
0.657,-1.309224E-05,9.855,0,0.657,-6.210422E-05,9.855,0
0.6579,3.726253E-05,9.8685,0,0.6579,1.007095E-06,9.8685,0
0.6588,0.0001044022,9.882,0,0.6588,-3.289845E-05,9.882,0
0.6597,0.000144686,9.8955,0,0.6597,-9.365987E-05,9.8955,0
0.6606,-1.812772E-05,9.909,0,0.6606,-4.733349E-05,9.909,0
0.6615,-7.989624E-05,9.9225,0,0.6615,3.927672E-05,9.9225,0
0.6624,-1.779202E-05,9.936,0,0.6624,0.0001943694,9.936,0
0.6633,3.323415E-05,9.9495,0,0.6633,0.0003447623,9.9495,0
0.6642,-3.356985E-06,9.963,0,0.6642,0.0002843366,9.963,0
0.6651,-7.049668E-05,9.976501,0,0.6651,8.526741E-05,9.976501,0
0.666,9.097429E-05,9.99,0,0.666,-2.18204E-05,9.99,0
0.6669,0.0002252537,10.0035,0,0.6669,-0.0002306248,10.0035,0
0.6678,0.0001359579,10.017,0,0.6678,-0.0002205539,10.017,0
0.6687,6.378271E-06,10.0305,0,0.6687,-0.0002400244,10.0305,0
0.6696,5.706874E-05,10.044,0,0.6696,-0.0005827725,10.044,0
0.6705,1.040665E-05,10.0575,0,0.6705,-0.0004823987,10.0575,0
0.6714,-8.661021E-05,10.071,0,0.6714,-0.0002212253,10.071,0
0.6723,-5.706874E-06,10.0845,0,0.6723,-0.0002279393,10.0845,0
0.6732,1.141375E-05,10.098,0,0.6732,-7.687495E-05,10.098,0
0.6741,-2.047761E-05,10.1115,0,0.6741,0.0004078737,10.1115,0
0.675,-1.577783E-05,10.125,0,0.675,0.0005968719,10.125,0
0.6759,4.028382E-06,10.1385,0,0.6759,0.0005730373,10.1385,0
0.6768,1.577783E-05,10.152,0,0.6768,0.0004441291,10.152,0
0.6777,-2.652018E-05,10.1655,0,0.6777,0.000407538,10.1655,0
0.6786,-4.129091E-05,10.179,0,0.6786,0.0002957504,10.179,0
0.6795,-3.793393E-05,10.1925,0,0.6795,8.72816E-05,10.1925,0
0.6804,-8.728161E-06,10.206,0,0.6804,3.390555E-05,10.206,0
0.6813,-6.57969E-05,10.2195,0,0.6813,2.383459E-05,10.2195,0
0.6822,-0.0001886625,10.233,0,0.6822,-9.600977E-05,10.233,0
0.6831,-0.0001524071,10.2465,0,0.6831,-9.701686E-05,10.2465,0
0.684,-0.0001708705,10.26,0,0.684,-2.954147E-05,10.26,0
0.6849,-0.0002057832,10.2735,0,0.6849,-2.786297E-05,10.2735,0
0.6858,-0.0001037308,10.287,0,0.6858,-0.0001201801,10.287,0
0.6867,3.323415E-05,10.3005,0,0.6867,-0.000119173,10.3005,0
0.6876,4.263371E-05,10.314,0,0.6876,-9.835965E-05,10.314,0
0.6885,0.000190341,10.3275,0,0.6885,-0.0001292439,10.3275,0
0.6894,0.0001819486,10.341,0,0.6894,-0.0001319295,10.341,0
0.6903,0.0001577783,10.3545,0,0.6903,-0.0001178302,10.3545,0
0.6912,-9.735256E-06,10.368,0,0.6912,-0.0001634852,10.368,0
0.6921,-7.418937E-05,10.3815,0,0.6921,-0.0002594949,10.3815,0
0.693,-4.36408E-05,10.395,0,0.693,-0.0003843748,10.395,0
0.6939,-6.210422E-05,10.4085,0,0.6939,-0.0003024643,10.4085,0
0.6948,-0.0001883268,10.422,0,0.6948,-0.0001195087,10.422,0
0.6957,-0.000164828,10.4355,0,0.6957,-9.298848E-05,10.4355,0
0.6966,-8.358892E-05,10.449,0,0.6966,-9.298848E-05,10.449,0
0.6975,-0.0001420005,10.4625,0,0.6975,0.0002024262,10.4625,0
0.6984,-1.007095E-06,10.476,0,0.6984,0.0004830701,10.476,0
0.6993,0.0001708705,10.4895,0,0.6993,0.0006066072,10.4895,0
0.7002,-7.553216E-05,10.503,0,0.7002,0.0005995575,10.503,0
0.7011,-9.097429E-05,10.5165,0,0.7011,0.0004206302,10.5165,0
0.702,-4.867628E-05,10.53,0,0.702,0.0002044404,10.53,0
0.7029,3.860533E-05,10.5435,0,0.7029,3.659113E-05,10.5435,0
0.7038,0.0001517357,10.557,0,0.7038,-0.0001399863,10.557,0
0.7047,6.411841E-05,10.5705,0,0.7047,-0.0002729229,10.5705,0
0.7056,2.652018E-05,10.584,0,0.7056,-0.0002222324,10.584,0
0.7065,8.560311E-05,10.5975,0,0.7065,-0.0001782559,10.5975,0
0.7074,0.0002091402,10.611,0,0.7074,-0.0001829557,10.611,0
0.7083,8.090334E-05,10.6245,0,0.7083,-7.855344E-05,10.6245,0
0.7092,-2.349889E-06,10.638,0,0.7092,-2.18204E-05,10.638,0
0.7101,4.263371E-05,10.6515,0,0.7101,-9.466698E-05,10.6515,0
0.711,-2.719158E-05,10.665,0,0.711,-8.056764E-05,10.665,0
0.7119,-5.136187E-05,10.6785,0,0.7119,-0.0001000381,10.6785,0
0.7128,1.846342E-05,10.692,0,0.7128,-0.0001373007,10.692,0
0.7137,-2.316319E-05,10.7055,0,0.7137,-0.0002312963,10.7055,0
0.7146,-7.821774E-05,10.719,0,0.7146,-0.0003135424,10.719,0
0.7155,-6.948959E-05,10.7325,0,0.7155,-0.0003004501,10.7325,0
0.7164,-0.0001292439,10.746,0,0.7164,-0.0003105211,10.746,0
0.7173,-0.0002769512,10.7595,0,0.7173,-0.0004662852,10.7595,0
0.7182,-0.0002480812,10.773,0,0.7182,-0.0001651637,10.773,0
0.7191,-0.0001044022,10.7865,0,0.7191,0.0003749752,10.7865,0
0.72,-0.0001537499,10.8,0,0.72,0.0002897078,10.8,0
0.7209,-8.291753E-05,10.8135,0,0.7209,0.0001406577,10.8135,0
0.7218,3.726253E-05,10.827,0,0.7218,0.0002185397,10.827,0
0.7227,0.0002823224,10.8405,0,0.7227,0.0001225299,10.8405,0
0.7236,0.0004562142,10.854,0,0.7236,3.826963E-05,10.854,0
0.7245,0.0002198825,10.8675,0,0.7245,0.0001258869,10.8675,0
0.7254,4.36408E-05,10.881,0,0.7254,0.0003155566,10.881,0
0.7263,2.752728E-05,10.8945,0,0.7263,0.0003457694,10.8945,0
0.7272,6.009003E-05,10.908,0,0.7272,0.0001104448,10.908,0
0.7281,-2.047761E-05,10.9215,0,0.7281,7.721065E-06,10.9215,0
0.729,-7.183947E-05,10.935,0,0.729,-0.0001406577,10.935,0
0.7299,-6.6804E-05,10.9485,0,0.7299,-0.000221561,10.9485,0
0.7308,5.136187E-05,10.962,0,0.7308,-0.0001735561,10.962,0
0.7317,2.349889E-06,10.9755,0,0.7317,1.846342E-05,10.9755,0
0.7326,-3.927672E-05,10.989,0,0.7326,0.000119173,10.989,0
0.7335,4.36408E-06,11.0025,0,0.7335,6.915389E-05,11.0025,0
0.7344,-8.157473E-05,11.016,0,0.7344,-0.0001309224,11.016,0
0.7353,-0.0002997787,11.0295,0,0.7353,-9.433127E-05,11.0295,0
0.7362,-0.000340734,11.043,0,0.7362,-4.934768E-05,11.043,0
0.7371,-0.0002151827,11.0565,0,0.7371,-0.000482063,11.0565,0
0.738,-0.000418616,11.07,0,0.738,-0.000829511,11.07,0
0.7389,-0.0004045167,11.0835,0,0.7389,-0.0008661021,11.0835,0
0.7398,-0.0001406577,11.097,0,0.7398,-0.0008335394,11.097,0
0.7407,0.0002292821,11.1105,0,0.7407,-0.0004518502,11.1105,0
0.7416,0.0005179828,11.124,0,0.7416,0.0003031357,11.124,0
0.7425,0.0005314107,11.1375,0,0.7425,0.001079271,11.1375,0
0.7434,0.0002306248,11.151,0,0.7434,0.0009584192,11.151,0
0.7443,0.0002312963,11.1645,0,0.7443,0.0003508049,11.1645,0
0.7452,0.0002880293,11.178,0,0.7452,0.0002715801,11.178,0
0.7461,0.0001413291,11.1915,0,0.7461,0.0003353628,11.1915,0
0.747,0.0001554284,11.205,0,0.747,0.000295079,11.205,0
0.7479,0.0001379721,11.2185,0,0.7479,0.0001420005,11.2185,0
0.7488,-4.36408E-06,11.232,0,0.7488,7.620356E-05,11.232,0
0.7497,-3.323415E-05,11.2455,0,0.7497,3.021286E-06,11.2455,0
0.7506,4.766919E-05,11.259,0,0.7506,-8.023193E-05,11.259,0
0.7515,-5.404745E-05,11.2725,0,0.7515,-6.411841E-05,11.2725,0
0.7524,-8.023193E-05,11.286,0,0.7524,-4.934768E-05,11.286,0
0.7533,2.349889E-06,11.2995,0,0.7533,-0.000197055,11.2995,0
0.7542,3.356985E-06,11.313,0,0.7542,-0.0002477455,11.313,0
0.7551,-0.0001030594,11.3265,0,0.7551,-0.0002188754,11.3265,0
0.756,-4.229801E-05,11.34,0,0.756,-0.0003343557,11.34,0
0.7569,3.121996E-05,11.3535,0,0.7569,-0.0005649806,11.3535,0
0.7578,6.378271E-06,11.367,0,0.7578,-0.0006106356,11.367,0
0.7587,-9.903105E-05,11.3805,0,0.7587,-0.0004733349,11.3805,0
0.7596,-0.0001272297,11.394,0,0.7596,-0.0003867247,11.394,0
0.7605,-5.136187E-05,11.4075,0,0.7605,-0.0001775845,11.4075,0
0.7614,-4.867628E-05,11.421,0,0.7614,0.000404181,11.421,0
0.7623,-6.478981E-05,11.4345,0,0.7623,0.0007972839,11.4345,0
0.7632,-5.673304E-05,11.448,0,0.7632,0.0005445029,11.448,0
0.7641,-3.994812E-05,11.4615,0,0.7641,0.0003017929,11.4615,0
0.765,-5.069047E-05,11.475,0,0.765,0.0002913863,11.475,0
0.7659,-1.879912E-05,11.4885,0,0.7659,0.0002709087,11.4885,0
0.7668,7.721065E-06,11.502,0,0.7668,4.095522E-05,11.502,0
0.7677,-4.061952E-05,11.5155,0,0.7677,1.913481E-05,11.5155,0
0.7686,-9.466698E-05,11.529,0,0.7686,1.947051E-05,11.529,0
0.7695,-5.102617E-05,11.5425,0,0.7695,-4.129091E-05,11.5425,0
0.7704,-9.063859E-06,11.556,0,0.7704,-7.956054E-05,11.556,0
0.7713,3.390555E-05,11.5695,0,0.7713,-0.0001121233,11.5695,0
0.7722,8.056763E-06,11.583,0,0.7722,-0.0001319295,11.583,0
0.7731,-9.567407E-05,11.5965,0,0.7731,-0.0001413291,11.5965,0
0.774,-2.014191E-05,11.61,0,0.774,-0.0001732204,11.61,0
0.7749,3.860533E-05,11.6235,0,0.7749,-0.0001748989,11.6235,0
0.7758,-6.277562E-05,11.637,0,0.7758,-0.000109102,11.637,0
0.7767,-3.793393E-05,11.6505,0,0.7767,-0.0001386435,11.6505,0
0.7776,5.169757E-05,11.664,0,0.7776,-0.000164828,11.664,0
0.7785,-3.860533E-05,11.6775,0,0.7785,-3.726253E-05,11.6775,0
0.7794,-8.023193E-05,11.691,0,0.7794,-7.385367E-05,11.691,0
0.7803,-2.047761E-05,11.7045,0,0.7803,-0.0001064164,11.7045,0
0.7812,-9.735256E-06,11.718,0,0.7812,-0.0001131304,11.718,0
0.7821,3.356985E-07,11.7315,0,0.7821,7.083238E-05,11.7315,0
0.783,2.349889E-06,11.745,0,0.783,4.53193E-05,11.745,0
0.7839,-1.376364E-05,11.7585,0,0.7839,-0.0002302892,11.7585,0
0.7848,-3.121996E-05,11.772,0,0.7848,-0.0002507668,11.772,0
0.7857,-1.779202E-05,11.7855,0,0.7857,3.155566E-05,11.7855,0
0.7866,-3.659113E-05,11.799,0,0.7866,0.0001205158,11.799,0
0.7875,1.007095E-06,11.8125,0,0.7875,5.404745E-05,11.8125,0
0.7884,9.768826E-05,11.826,0,0.7884,5.438316E-05,11.826,0
0.7893,5.203327E-05,11.8395,0,0.7893,0.0001000381,11.8395,0
0.7902,-7.721065E-06,11.853,0,0.7902,0.0001007095,11.853,0
0.7911,5.438316E-05,11.8665,0,0.7911,1.913481E-05,11.8665,0
0.792,5.304036E-05,11.88,0,0.792,6.277562E-05,11.88,0
0.7929,-7.351797E-05,11.8935,0,0.7929,5.975433E-05,11.8935,0
0.7938,-3.424125E-05,11.907,0,0.7938,-5.035477E-06,11.907,0
0.7947,3.927672E-05,11.9205,0,0.7947,-1.678492E-06,11.9205,0
0.7956,-5.606165E-05,11.934,0,0.7956,3.457694E-05,11.934,0
0.7965,-5.337606E-05,11.9475,0,0.7965,2.014191E-06,11.9475,0
0.7974,5.035477E-06,11.961,0,0.7974,-7.385367E-06,11.961,0
0.7983,6.6804E-05,11.9745,0,0.7983,-3.189136E-05,11.9745,0
0.7992,-2.24918E-05,11.988,0,0.7992,-6.478981E-05,11.988,0
0.8001,-0.0001420005,12.0015,0,0.8001,-0.0003773251,12.0015,0
0.801,-9.735256E-05,12.015,0,0.801,-0.0007368582,12.015,0
0.8019,-8.493171E-05,12.0285,0,0.8019,-0.0008043335,12.0285,0
0.8028,-0.0001574426,12.042,0,0.8028,-0.0007187304,12.042,0
0.8037,-0.0001356222,12.0555,0,0.8037,-0.0004206302,12.0555,0
0.8046,8.69459E-05,12.069,0,0.8046,0.0005354391,12.069,0
0.8055,0.000112459,12.0825,0,0.8055,0.001349844,12.0825,0
0.8064,0.000158114,12.096,0,0.8064,0.001092699,12.096,0
0.8073,0.0001957122,12.1095,0,0.8073,0.000519997,12.1095,0
0.8082,0.0001540856,12.123,0,0.8082,0.0004535287,12.123,0
0.8091,6.51255E-05,12.1365,0,0.8091,0.000316228,12.1365,0
0.81,0.00024271,12.15,0,0.81,8.761731E-05,12.15,0
0.8109,0.000186984,12.1635,0,0.8109,-1.040665E-05,12.1635,0
0.8118,7.956054E-05,12.177,0,0.8118,-7.687495E-05,12.177,0
0.8127,-1.577783E-05,12.1905,0,0.8127,-0.0001010452,12.1905,0
0.8136,-0.0001530785,12.204,0,0.8136,-0.0001567712,12.204,0
0.8145,-5.102617E-05,12.2175,0,0.8145,-0.0001829557,12.2175,0
0.8154,4.33051E-05,12.231,0,0.8154,-0.0002500954,12.231,0
0.8163,-2.786297E-05,12.2445,0,0.8163,-0.0003199207,12.2445,0
0.8172,-4.565499E-05,12.258,0,0.8172,-0.0003669185,12.258,0
0.8181,-6.74754E-05,12.2715,0,0.8181,-0.0004568856,12.2715,0
0.819,-0.0001802701,12.285,0,0.819,-0.0004686351,12.285,0
0.8199,-0.0001601282,12.2985,0,0.8199,-0.0003219348,12.2985,0
0.8208,-8.560311E-05,12.312,0,0.8208,-6.076142E-05,12.312,0
0.8217,1.544213E-05,12.3255,0,0.8217,0.0001258869,12.3255,0
0.8226,0.0001272297,12.339,0,0.8226,0.000140322,12.339,0
0.8235,5.706874E-06,12.3525,0,0.8235,-4.49836E-05,12.3525,0
0.8244,-0.0001188373,12.366,0,0.8244,-5.438316E-05,12.366,0
0.8253,-6.277562E-05,12.3795,0,0.8253,-4.934768E-05,12.3795,0
0.8262,-1.376364E-05,12.393,0,0.8262,7.586786E-05,12.393,0
0.8271,0.0001044022,12.4065,0,0.8271,0.0003863889,12.4065,0
0.828,0.0001514,12.42,0,0.828,0.0003165637,12.42,0
0.8289,1.812772E-05,12.4335,0,0.8289,0.0001681849,12.4335,0
0.8298,-9.500267E-05,12.447,0,0.8298,0.0002259251,12.447,0
0.8307,-0.0001477073,12.4605,0,0.8307,0.0001574426,12.4605,0
0.8316,0,12.474,0,0.8316,3.625543E-05,12.474,0
0.8325,1.040665E-05,12.4875,0,0.8325,4.46479E-05,12.4875,0
0.8334,-4.46479E-05,12.501,0,0.8334,-1.812772E-05,12.501,0
0.8343,-0.0001138018,12.5145,0,0.8343,-0.0001698634,12.5145,0
0.8352,-0.0001104448,12.528,0,0.8352,-0.0001587854,12.528,0
0.8361,-0.0001896696,12.5415,0,0.8361,-0.0001198444,12.5415,0
0.837,-0.0002064546,12.555,0,0.837,-0.0001279011,12.555,0
0.8379,-0.0001326009,12.5685,0,0.8379,-0.0001238727,12.5685,0
0.8388,-6.411841E-05,12.582,0,0.8388,-0.0001107805,12.582,0
0.8397,-1.309224E-05,12.5955,0,0.8397,-1.007095E-05,12.5955,0
0.8406,-4.196231E-05,12.609,0,0.8406,-1.007095E-05,12.609,0
0.8415,-1.846342E-05,12.6225,0,0.8415,-7.049668E-06,12.6225,0
0.8424,0.0001285725,12.636,0,0.8424,3.356985E-07,12.636,0
0.8433,0.0002823224,12.6495,0,0.8433,7.016098E-05,12.6495,0
0.8442,0.0003152209,12.663,0,0.8442,-0.000126894,12.663,0
0.8451,0.0002077974,12.6765,0,0.8451,-0.0002524453,12.6765,0
0.846,3.659113E-05,12.69,0,0.846,-7.418937E-05,12.69,0
0.8469,3.356985E-05,12.7035,0,0.8469,-0.0001393149,12.7035,0
0.8478,-1.577783E-05,12.717,0,0.8478,-0.0002051118,12.717,0
0.8487,-3.054856E-05,12.7305,0,0.8487,2.652018E-05,12.7305,0
0.8496,-2.618448E-05,12.744,0,0.8496,0.0003165637,12.744,0
0.8505,-7.351797E-05,12.7575,0,0.8505,0.000144686,12.7575,0
0.8514,-7.284657E-05,12.771,0,0.8514,3.021286E-06,12.771,0
0.8523,-2.18204E-05,12.7845,0,0.8523,-4.800488E-05,12.7845,0
0.8532,-3.927672E-05,12.798,0,0.8532,-6.478981E-05,12.798,0
0.8541,-9.365987E-05,12.8115,0,0.8541,-8.96315E-05,12.8115,0
0.855,-8.761731E-05,12.825,0,0.855,-4.33051E-05,12.825,0
0.8559,-1.544213E-05,12.8385,0,0.8559,-2.316319E-05,12.8385,0
0.8568,-0.0001017166,12.852,0,0.8568,9.164568E-05,12.852,0
0.8577,-5.404745E-05,12.8655,0,0.8577,0.0002010834,12.8655,0
0.8586,7.888914E-05,12.879,0,0.8586,0.0001950408,12.879,0
0.8595001,-3.793393E-05,12.8925,0,0.8595001,0.0001564355,12.8925,0
0.8604,-2.920577E-05,12.906,0,0.8604,6.378271E-05,12.906,0
0.8613,2.920577E-05,12.9195,0,0.8613,-1.242084E-05,12.9195,0
0.8622,8.392462E-06,12.933,0,0.8622,-2.24918E-05,12.933,0
0.8631,-0.0001299153,12.9465,0,0.8631,-9.399558E-06,12.9465,0
0.864,-5.740444E-05,12.96,0,0.864,-3.021286E-06,12.96,0
0.8649,-2.1149E-05,12.9735,0,0.8649,3.054856E-05,12.9735,0
0.8658,-7.049668E-06,12.987,0,0.8658,-5.169757E-05,12.987,0
0.8667,2.786297E-05,13.0005,0,0.8667,-3.961242E-05,13.0005,0
0.8676,4.33051E-05,13.014,0,0.8676,-2.719158E-05,13.014,0
0.8685,3.356985E-06,13.0275,0,0.8685,-7.217517E-05,13.0275,0
0.8694,1.678492E-05,13.041,0,0.8694,-9.097429E-05,13.041,0
0.8703,-2.685588E-05,13.0545,0,0.8703,-3.256275E-05,13.0545,0
0.8712,-2.349889E-06,13.068,0,0.8712,-4.867628E-05,13.068,0
0.8721,6.948959E-05,13.0815,0,0.8721,-9.567407E-05,13.0815,0
0.873,1.309224E-05,13.095,0,0.873,-8.392462E-06,13.095,0
0.8739,3.726253E-05,13.1085,0,0.8739,-0.0001618067,13.1085,0
0.8748,1.812772E-05,13.122,0,0.8748,-0.0002309606,13.122,0
0.8757,1.510643E-05,13.1355,0,0.8757,-0.0002977645,13.1355,0
0.8766,-3.524834E-05,13.149,0,0.8766,-0.0004414435,13.149,0
0.8775,-2.584878E-05,13.1625,0,0.8775,-0.000654612,13.1625,0
0.8784,-2.887007E-05,13.176,0,0.8784,-0.0007083238,13.176,0
0.8793,2.349889E-06,13.1895,0,0.8793,-0.0004562142,13.1895,0
0.8802,-1.644922E-05,13.203,0,0.8802,0.0001634852,13.203,0
0.8811,-8.191043E-05,13.2165,0,0.8811,0.0009097429,13.2165,0
0.882,-2.349889E-06,13.23,0,0.882,0.0009785611,13.23,0
0.8829,2.618448E-05,13.2435,0,0.8829,0.0006146639,13.2435,0
0.8838,-3.927672E-05,13.257,0,0.8838,0.0004491646,13.257,0
0.8847,0.0002279393,13.2705,0,0.8847,0.0003823606,13.2705,0
0.8856,0.0002568093,13.284,0,0.8856,0.0002124971,13.284,0
0.8865,-1.678492E-05,13.2975,0,0.8865,0.000158114,13.2975,0
0.8874,-1.040665E-05,13.311,0,0.8874,5.404745E-05,13.311,0
0.8883,6.344701E-05,13.3245,0,0.8883,-4.766919E-05,13.3245,0
0.8892,-1.107805E-05,13.338,0,0.8892,-8.493171E-05,13.338,0
0.8901,-7.721065E-05,13.3515,0,0.8901,-0.0001201801,13.3515,0
0.891,-3.793393E-05,13.365,0,0.891,-0.0002047761,13.365,0
0.8919,3.356985E-07,13.3785,0,0.8919,-0.0002635233,13.3785,0
0.8928,2.517739E-05,13.392,0,0.8928,-0.000306157,13.392,0
0.8937,1.007095E-06,13.4055,0,0.8937,-0.0003098497,13.4055,0
0.8946,-0.0001389792,13.419,0,0.8946,-0.0003182421,13.419,0
0.8955,-7.888914E-05,13.4325,0,0.8955,-0.0002380102,13.4325,0
0.8964,-1.007095E-06,13.446,0,0.8964,-0.0002453956,13.446,0
0.8973,-0.0001775845,13.4595,0,0.8973,-0.0003514763,13.4595,0
0.8982,-0.0002205539,13.473,0,0.8982,-0.0003115282,13.473,0
0.8991,-8.661021E-05,13.4865,0,0.8991,-0.0001500572,13.4865,0
0.9,-0.0001376364,13.5,0,0.9,-9.835965E-05,13.5,0
0.9009,-0.0001292439,13.5135,0,0.9009,-0.0001117876,13.5135,0
0.9018,1.242084E-05,13.527,0,0.9018,3.155566E-05,13.527,0
0.9027,0.0001997406,13.5405,0,0.9027,0.0001433432,13.5405,0
0.9036,8.96315E-05,13.554,0,0.9036,0.0001510643,13.554,0
0.9045,0.0001977264,13.5675,0,0.9045,0.0001963836,13.5675,0
0.9054,0.0003353628,13.581,0,0.9054,0.0001517357,13.581,0
0.9063,0.0002732586,13.5945,0,0.9063,3.189136E-05,13.5945,0
0.9072,0.0001554284,13.608,0,0.9072,2.349889E-06,13.608,0
0.9081,3.860533E-05,13.6215,0,0.9081,-1.107805E-05,13.6215,0
0.909,4.599069E-05,13.635,0,0.909,-1.342794E-05,13.635,0
0.9099,-8.392462E-06,13.6485,0,0.9099,-4.196231E-05,13.6485,0
0.9108,-7.284657E-05,13.662,0,0.9108,-1.007095E-06,13.662,0
0.9117,-5.606165E-05,13.6755,0,0.9117,-3.390555E-05,13.6755,0
0.9126,-2.24918E-05,13.689,0,0.9126,-7.687495E-05,13.689,0
0.9135,-0.0001571069,13.7025,0,0.9135,-4.46479E-05,13.7025,0
0.9144,-7.452507E-05,13.716,0,0.9144,-8.728161E-06,13.716,0
0.9153,-3.054856E-05,13.7295,0,0.9153,-7.016098E-05,13.7295,0
0.9162,-0.0001201801,13.743,0,0.9162,-0.0002796368,13.743,0
0.9171,-0.0001896696,13.7565,0,0.9171,-0.0002880293,13.7565,0
0.918,-8.69459E-05,13.77,0,0.918,-0.0003246204,13.77,0
0.9189,-9.399557E-05,13.7835,0,0.9189,-0.0003998169,13.7835,0
0.9198,-0.0001077592,13.797,0,0.9198,-0.0002366674,13.797,0
0.9207,-0.0001205158,13.8105,0,0.9207,0.0003108568,13.8105,0
0.9216,4.36408E-06,13.824,0,0.9216,0.0005770657,13.824,0
0.9225,0.0002010834,13.8375,0,0.9225,0.0004004883,13.8375,0
0.9234,0.0001863127,13.851,0,0.9234,0.0002437171,13.851,0
0.9243,1.007095E-06,13.8645,0,0.9243,0.0001785916,13.8645,0
0.9252,-0.0001305867,13.878,0,0.9252,6.64683E-05,13.878,0
0.9261,-0.0001953765,13.8915,0,0.9261,-7.385367E-06,13.8915,0
0.927,-0.0002970932,13.905,0,0.927,-5.035477E-06,13.905,0
0.9279,-0.0003175708,13.9185,0,0.9279,-7.016098E-05,13.9185,0
0.9288,-0.0001258869,13.932,0,0.9288,-0.0001238727,13.932,0
0.9297,1.107805E-05,13.9455,0,0.9297,-7.351797E-05,13.9455,0
0.9306,0.0001775845,13.959,0,0.9306,-9.399558E-06,13.959,0
0.9315,0.000418616,13.9725,0,0.9315,9.735256E-06,13.9725,0
0.9324,0.0003749752,13.986,0,0.9324,-2.18204E-05,13.986,0
0.9333,0.0002722515,13.9995,0,0.9333,-7.553216E-05,13.9995,0
0.9342,0.0001769131,14.013,0,0.9342,-5.035477E-05,14.013,0
0.9351,-5.001907E-05,14.0265,0,0.9351,-3.323415E-05,14.0265,0
0.936,-9.130999E-05,14.04,0,0.936,-3.860533E-05,14.04,0
0.9369,-3.524834E-05,14.0535,0,0.9369,2.383459E-05,14.0535,0
0.9378,-7.217517E-05,14.067,0,0.9378,0.000115816,14.067,0
0.9387,-0.0001138018,14.0805,0,0.9387,7.620356E-05,14.0805,0
0.9396001,-8.392462E-06,14.094,0,0.9396001,-1.376364E-05,14.094,0
0.9405,-4.599069E-05,14.1075,0,0.9405,3.021286E-06,14.1075,0
0.9414001,-5.941863E-05,14.121,0,0.9414001,6.378271E-06,14.121,0
0.9423,1.342794E-05,14.1345,0,0.9423,-2.517739E-05,14.1345,0
0.9432001,-7.284657E-05,14.148,0,0.9432001,2.1149E-05,14.148,0
0.9441,-0.0001326009,14.1615,0,0.9441,6.243992E-05,14.1615,0
0.9450001,-0.0001064164,14.175,0,0.9450001,0.0001017166,14.175,0
0.9459,-8.191043E-05,14.1885,0,0.9459,0.0001037308,14.1885,0
0.9468,-7.956054E-05,14.202,0,0.9468,-1.208515E-05,14.202,0
0.9477,-4.599069E-05,14.2155,0,0.9477,-5.706874E-06,14.2155,0
0.9486,2.383459E-05,14.229,0,0.9486,3.994812E-05,14.229,0
0.9495,0.0001111162,14.2425,0,0.9495,-2.316319E-05,14.2425,0
0.9504,2.719158E-05,14.256,0,0.9504,-7.150377E-05,14.256,0
0.9513,-7.586786E-05,14.2695,0,0.9513,-2.652018E-05,14.2695,0
0.9522,-2.18204E-05,14.283,0,0.9522,-4.061952E-05,14.283,0
0.9531,5.539025E-05,14.2965,0,0.9531,-5.337606E-05,14.2965,0
0.954,-7.620356E-05,14.31,0,0.954,-4.33051E-05,14.31,0
0.9549,-7.922484E-05,14.3235,0,0.9549,-0.0001030594,14.3235,0
0.9558,-2.887007E-05,14.337,0,0.9558,-0.000154757,14.337,0
0.9567,-0.000102388,14.3505,0,0.9567,-8.560311E-05,14.3505,0
0.9576,-0.0001044022,14.364,0,0.9576,-0.000102388,14.364,0
0.9585,-0.0001178302,14.3775,0,0.9585,-9.903105E-05,14.3775,0
0.9594,-4.129091E-05,14.391,0,0.9594,-4.49836E-05,14.391,0
0.9603,1.947051E-05,14.4045,0,0.9603,-9.365987E-05,14.4045,0
0.9612,-1.242084E-05,14.418,0,0.9612,-0.000154757,14.418,0
0.9621,-2.24918E-05,14.4315,0,0.9621,-0.0001540856,14.4315,0
0.963,-3.356985E-07,14.445,0,0.963,-0.0001238727,14.445,0
0.9639,4.867628E-05,14.4585,0,0.9639,-8.96315E-05,14.4585,0
0.9648,-2.21561E-05,14.472,0,0.9648,-5.706874E-06,14.472,0
0.9657,3.121996E-05,14.4855,0,0.9657,0.0001359579,14.4855,0
0.9666,0.0001524071,14.499,0,0.9666,0.0002453956,14.499,0
0.9675,-2.047761E-05,14.5125,0,0.9675,0.0002648661,14.5125,0
0.9684,-6.411841E-05,14.526,0,0.9684,0.000172549,14.526,0
0.9693,3.491264E-05,14.5395,0,0.9693,8.795301E-05,14.5395,0
0.9702,-7.385367E-06,14.553,0,0.9702,4.33051E-05,14.553,0
0.9711,-3.927672E-05,14.5665,0,0.9711,4.733349E-05,14.5665,0
0.972,3.927672E-05,14.58,0,0.972,1.879912E-05,14.58,0
0.9729,3.457694E-05,14.5935,0,0.9729,-7.016098E-05,14.5935,0
0.9738,0,14.607,0,0.9738,-0.0001416648,14.607,0
0.9747,6.74754E-05,14.6205,0,0.9747,-9.466698E-05,14.6205,0
0.9756,0.0001010452,14.634,0,0.9756,-0.0001010452,14.634,0
0.9765,3.524834E-05,14.6475,0,0.9765,-6.982528E-05,14.6475,0
0.9774,5.874724E-05,14.661,0,0.9774,-1.644922E-05,14.661,0
0.9783,1.242084E-05,14.6745,0,0.9783,-5.136187E-05,14.6745,0
0.9792,-8.392462E-06,14.688,0,0.9792,-0.0001198444,14.688,0
0.9801,3.994812E-05,14.7015,0,0.9801,-0.0002591592,14.7015,0
0.981,-4.934768E-05,14.715,0,0.981,-0.0003021286,14.715,0
0.9819,-9.097429E-05,14.7285,0,0.9819,-0.000224918,14.7285,0
0.9828,-2.786297E-05,14.742,0,0.9828,-6.881819E-05,14.742,0
0.9837,-7.956054E-05,14.7555,0,0.9837,0.0003326772,14.7555,0
0.9846,-9.768826E-05,14.769,0,0.9846,0.0002833295,14.769,0
0.9855,-0.0001060807,14.7825,0,0.9855,3.524834E-05,14.7825,0
0.9864,1.007095E-06,14.796,0,0.9864,1.007095E-06,14.796,0
0.9873,0.0001527428,14.8095,0,0.9873,8.69459E-05,14.8095,0
0.9882,0.0001930266,14.823,0,0.9882,0.0002138399,14.823,0
0.9891,0.0001728847,14.8365,0,0.9891,0.0002430457,14.8365,0
0.99,0.0001460288,14.85,0,0.99,0.0002789654,14.85,0
0.9909,0.0001329366,14.8635,0,0.9909,0.0002544594,14.8635,0
0.9918,6.042573E-05,14.877,0,0.9918,0.0001728847,14.877,0
0.9927,2.752728E-05,14.8905,0,0.9927,4.800488E-05,14.8905,0
0.9936,1.779202E-05,14.904,0,0.9936,-4.263371E-05,14.904,0
0.9945,-4.901198E-05,14.9175,0,0.9945,-1.644922E-05,14.9175,0
0.9954,-4.46479E-05,14.931,0,0.9954,-8.392462E-05,14.931,0
0.9963,4.867628E-05,14.9445,0,0.9963,-0.0001386435,14.9445,0
0.9972,5.035477E-06,14.958,0,0.9972,-0.0001658351,14.958,0
0.9981,-6.74754E-05,14.9715,0,0.9981,-0.0001406577,14.9715,0
0.999,-7.016098E-05,14.985,0,0.999,-0.0001497215,14.985,0
0.9999,-2.786297E-05,14.9985,0,0.9999,-0.0001493858,14.9985,0
1.0008,1.913481E-05,15.012,0,1.0008,-0.0001722133,15.012,0
1.0017,-2.484169E-05,15.0255,0,1.0017,-0.0001151446,15.0255,0
1.0026,-0.0001618067,15.039,0,1.0026,-0.0001050736,15.039,0
1.0035,-7.016098E-05,15.0525,0,1.0035,-0.0001440146,15.0525,0
1.0044,4.095522E-05,15.066,0,1.0044,-0.0001406577,15.066,0
1.0053,-8.560311E-05,15.0795,0,1.0053,-0.0001050736,15.0795,0
1.0062,-2.014191E-05,15.093,0,1.0062,-8.526741E-05,15.093,0
1.0071,8.291753E-05,15.1065,0,1.0071,-0.0001144732,15.1065,0
1.008,-4.229801E-05,15.12,0,1.008,-6.61326E-05,15.12,0
1.0089,-4.43122E-05,15.1335,0,1.0089,-3.692683E-05,15.1335,0
1.0098,3.457694E-05,15.147,0,1.0098,-9.164568E-05,15.147,0
1.0107,9.634547E-05,15.1605,0,1.0107,-7.821774E-05,15.1605,0
1.0116,-6.948959E-05,15.174,0,1.0116,-3.659113E-05,15.174,0
1.0125,-3.021286E-06,15.1875,0,1.0125,-6.311131E-05,15.1875,0
1.0134,5.035477E-06,15.201,0,1.0134,-7.687495E-05,15.201,0
1.0143,-7.318227E-05,15.2145,0,1.0143,-8.459602E-05,15.2145,0
1.0152,-0.0001138018,15.228,0,1.0152,-3.927672E-05,15.228,0
1.0161,-0.0001926909,15.2415,0,1.0161,-3.054856E-05,15.2415,0
1.017,-0.0001272297,15.255,0,1.017,-8.761731E-05,15.255,0
1.0179,-2.752728E-05,15.2685,0,1.0179,-8.224613E-05,15.2685,0
1.0188,8.123904E-05,15.282,0,1.0188,-2.484169E-05,15.282,0
1.0197,0.0001188373,15.2955,0,1.0197,-5.001907E-05,15.2955,0
1.0206,0.0001755703,15.309,0,1.0206,-9.869535E-05,15.309,0
1.0215,6.54612E-05,15.3225,0,1.0215,-3.457694E-05,15.3225,0
1.0224,6.176852E-05,15.336,0,1.0224,-1.980621E-05,15.336,0
1.0233,3.054856E-05,15.3495,0,1.0233,-4.33051E-05,15.3495,0
1.0242,4.666209E-05,15.363,0,1.0242,-1.947051E-05,15.363,0
1.0251,-7.049668E-06,15.3765,0,1.0251,1.409934E-05,15.3765,0
1.026,-2.014191E-05,15.39,0,1.026,6.378271E-06,15.39,0
1.0269,-4.599069E-05,15.4035,0,1.0269,-6.378271E-06,15.4035,0
1.0278,1.141375E-05,15.417,0,1.0278,-4.49836E-05,15.417,0
1.0287,1.544213E-05,15.4305,0,1.0287,-1.644922E-05,15.4305,0
1.0296,-4.53193E-05,15.444,0,1.0296,7.721065E-06,15.444,0
1.0305,1.477073E-05,15.4575,0,1.0305,-1.107805E-05,15.4575,0
1.0314,2.047761E-05,15.471,0,1.0314,2.987716E-05,15.471,0
1.0323,-6.814679E-05,15.4845,0,1.0323,0.0001218585,15.4845,0
1.0332,-5.270466E-05,15.498,0,1.0332,9.970245E-05,15.498,0
1.0341,6.915389E-05,15.5115,0,1.0341,1.779202E-05,15.5115,0
1.035,-3.524834E-05,15.525,0,1.035,2.383459E-05,15.525,0
1.0359,-4.733349E-05,15.5385,0,1.0359,-6.009003E-05,15.5385,0
1.0368,7.049668E-06,15.552,0,1.0368,-0.0001174945,15.552,0
1.0377,-3.927672E-05,15.5655,0,1.0377,-8.090334E-05,15.5655,0
1.0386,-0.0001168231,15.579,0,1.0386,-6.009003E-05,15.579,0
1.0395,-3.793393E-05,15.5925,0,1.0395,-3.927672E-05,15.5925,0
1.0404,-6.277562E-05,15.606,0,1.0404,2.652018E-05,15.606,0
1.0413,3.021286E-06,15.6195,0,1.0413,7.653925E-05,15.6195,0
1.0422,6.076142E-05,15.633,0,1.0422,0.000112459,15.633,0
1.0431,-8.392462E-06,15.6465,0,1.0431,0.0001077592,15.6465,0
1.044,-1.040665E-05,15.66,0,1.044,0.0001215228,15.66,0
1.0449,3.558404E-05,15.6735,0,1.0449,0.000115816,15.6735,0
1.0458,-1.779202E-05,15.687,0,1.0458,0.0001816129,15.687,0
1.0467,-6.243992E-05,15.7005,0,1.0467,0.0001886625,15.7005,0
1.0476,2.920577E-05,15.714,0,1.0476,7.284657E-05,15.714,0
1.0485,-1.510643E-05,15.7275,0,1.0485,5.807584E-05,15.7275,0
1.0494,-0.0001221943,15.741,0,1.0494,2.786297E-05,15.741,0
1.0503,-5.673304E-05,15.7545,0,1.0503,-2.014191E-05,15.7545,0
1.0512,-4.36408E-06,15.768,0,1.0512,6.713969E-07,15.768,0
1.0521,-9.869535E-05,15.7815,0,1.0521,1.342794E-06,15.7815,0
1.053,-6.51255E-05,15.795,0,1.053,-5.136187E-05,15.795,0
1.0539,-2.987716E-05,15.8085,0,1.0539,-6.143282E-05,15.8085,0
1.0548,3.692683E-06,15.822,0,1.0548,-9.936675E-05,15.822,0
1.0557,2.417029E-05,15.8355,0,1.0557,-8.090334E-05,15.8355,0
1.0566,3.390555E-05,15.849,0,1.0566,-4.901198E-05,15.849,0
1.0575,5.941863E-05,15.8625,0,1.0575,-9.970245E-05,15.8625,0
1.0584,1.007095E-06,15.876,0,1.0584,-0.0001282368,15.876,0
1.0593,-7.016098E-05,15.8895,0,1.0593,-7.418937E-05,15.8895,0
1.0602,-1.376364E-05,15.903,0,1.0602,-6.378271E-05,15.903,0
1.0611,4.666209E-05,15.9165,0,1.0611,-3.256275E-05,15.9165,0
1.062,-3.591974E-05,15.93,0,1.062,5.304036E-05,15.93,0
1.0629,-2.853437E-05,15.9435,0,1.0629,3.591974E-05,15.9435,0
1.0638,1.846342E-05,15.957,0,1.0638,1.107805E-05,15.957,0
1.0647,-8.224613E-05,15.9705,0,1.0647,-1.510643E-05,15.9705,0
1.0656,-7.519646E-05,15.984,0,1.0656,-1.544213E-05,15.984,0
1.0665,-7.721065E-05,15.9975,0,1.0665,-2.618448E-05,15.9975,0
1.0674,-4.229801E-05,16.011,0,1.0674,-2.987716E-05,16.011,0
1.0683,-6.713969E-07,16.0245,0,1.0683,-4.934768E-05,16.0245,0
1.0692,4.39765E-05,16.038,0,1.0692,-3.793393E-05,16.038,0
1.0701,6.948959E-05,16.0515,0,1.0701,-1.242084E-05,16.0515,0
1.071,6.6804E-05,16.065,0,1.071,-4.028382E-06,16.065,0
1.0719,7.217517E-05,16.0785,0,1.0719,-2.987716E-05,16.0785,0
1.0728,-1.779202E-05,16.092,0,1.0728,9.063859E-06,16.092,0
1.0737,-3.659113E-05,16.1055,0,1.0737,-1.376364E-05,16.1055,0
1.0746,7.989624E-05,16.119,0,1.0746,-4.666209E-05,16.119,0
1.0755,-4.733349E-05,16.1325,0,1.0755,1.174945E-05,16.1325,0
1.0764,3.356985E-07,16.146,0,1.0764,3.323415E-05,16.146,0
1.0773,0.0001107805,16.1595,0,1.0773,-4.53193E-05,16.1595,0
1.0782,-6.277562E-05,16.173,0,1.0782,-4.733349E-05,16.173,0
1.0791,-8.89601E-05,16.1865,0,1.0791,-2.517739E-05,16.1865,0
1.08,-2.1149E-05,16.2,0,1.08,-5.035477E-05,16.2,0
1.0809,-3.793393E-05,16.2135,0,1.0809,-7.888914E-05,16.2135,0
1.0818,-2.047761E-05,16.227,0,1.0818,-0.0001013809,16.227,0
1.0827,1.846342E-05,16.2405,0,1.0827,-9.097429E-05,16.2405,0
1.0836,-3.121996E-05,16.254,0,1.0836,-0.0001047379,16.254,0
1.0845,-3.625543E-05,16.2675,0,1.0845,-0.0001433432,16.2675,0
1.0854,3.659113E-05,16.281,0,1.0854,-0.0001376364,16.281,0
1.0863,-1.443504E-05,16.2945,0,1.0863,-8.224613E-05,16.2945,0
1.0872,-4.599069E-05,16.308,0,1.0872,-0.0001164874,16.308,0
1.0881,6.54612E-05,16.3215,0,1.0881,-0.000161471,16.3215,0
1.089,7.049668E-06,16.335,0,1.089,-9.768826E-05,16.335,0
1.0899,4.53193E-05,16.3485,0,1.0899,-3.793393E-05,16.3485,0
1.0908,0.0001070878,16.362,0,1.0908,-5.136187E-05,16.362,0
1.0917,3.189136E-05,16.3755,0,1.0917,-2.719158E-05,16.3755,0
1.0926,2.081331E-05,16.389,0,1.0926,2.618448E-05,16.389,0
1.0935,-1.376364E-05,16.4025,0,1.0935,3.390555E-05,16.4025,0
1.0944,1.342794E-06,16.416,0,1.0944,6.176852E-05,16.416,0
1.0953,7.855344E-05,16.4295,0,1.0953,6.009003E-05,16.4295,0
1.0962,2.316319E-05,16.443,0,1.0962,9.365987E-05,16.443,0
1.0971,2.584878E-05,16.4565,0,1.0971,0.0001000381,16.4565,0
1.098,2.24918E-05,16.47,0,1.098,7.721065E-05,16.47,0
1.0989,2.18204E-05,16.4835,0,1.0989,5.740444E-05,16.4835,0
1.0998,-2.484169E-05,16.497,0,1.0998,8.526741E-05,16.497,0
1.1007,2.618448E-05,16.5105,0,1.1007,5.706874E-05,16.5105,0
1.1016,8.89601E-05,16.524,0,1.1016,1.745632E-05,16.524,0
1.1025,3.256275E-05,16.5375,0,1.1025,5.740444E-05,16.5375,0
1.1034,-1.980621E-05,16.551,0,1.1034,5.136187E-05,16.551,0
1.1043,4.129091E-05,16.5645,0,1.1043,8.392462E-06,16.5645,0
1.1052,-2.652018E-05,16.578,0,1.1052,1.577783E-05,16.578,0
1.1061,-7.486076E-05,16.5915,0,1.1061,3.524834E-05,16.5915,0
1.107,-3.793393E-05,16.605,0,1.107,1.712062E-05,16.605,0
1.1079,-3.356985E-05,16.6185,0,1.1079,-6.713969E-07,16.6185,0
1.1088,3.155566E-05,16.632,0,1.1088,-2.484169E-05,16.632,0
1.1097,5.203327E-05,16.6455,0,1.1097,-1.913481E-05,16.6455,0
1.1106,-6.78111E-05,16.659,0,1.1106,-2.987716E-05,16.659,0
1.1115,-1.107805E-05,16.6725,0,1.1115,-4.934768E-05,16.6725,0
1.1124,0.0001326009,16.686,0,1.1124,-3.524834E-05,16.686,0
1.1133,-2.786297E-05,16.6995,0,1.1133,1.007095E-06,16.6995,0
1.1142,-2.24918E-05,16.713,0,1.1142,-1.208515E-05,16.713,0
1.1151,9.030289E-05,16.7265,0,1.1151,-4.33051E-05,16.7265,0
1.116,-3.189136E-05,16.74,0,1.116,2.383459E-05,16.74,0
1.1169,3.323415E-05,16.7535,0,1.1169,7.385367E-06,16.7535,0
1.1178,0.0001161517,16.767,0,1.1178,-2.652018E-05,16.767,0
1.1187,-2.450599E-05,16.7805,0,1.1187,3.692683E-06,16.7805,0
1.1196,-0.0001607996,16.794,0,1.1196,8.392462E-06,16.794,0
1.1205,-0.0001245441,16.8075,0,1.1205,-3.390555E-05,16.8075,0
1.1214,-6.076142E-05,16.821,0,1.1214,-5.404745E-05,16.821,0
1.1223,-6.344701E-05,16.8345,0,1.1223,-6.277562E-05,16.8345,0
1.1232,-4.33051E-05,16.848,0,1.1232,-2.987716E-05,16.848,0
1.1241,-4.33051E-05,16.8615,0,1.1241,-2.786297E-05,16.8615,0
1.125,-5.941863E-05,16.875,0,1.125,-5.706874E-05,16.875,0
1.1259,-8.392462E-06,16.8885,0,1.1259,-4.53193E-05,16.8885,0
1.1268,-5.404745E-05,16.902,0,1.1268,1.342794E-05,16.902,0
1.1277,-2.517739E-05,16.9155,0,1.1277,1.678492E-06,16.9155,0
1.1286,1.409934E-05,16.929,0,1.1286,-5.975433E-05,16.929,0
1.1295,-5.169757E-05,16.9425,0,1.1295,-1.913481E-05,16.9425,0
1.1304,-8.89601E-05,16.956,0,1.1304,-1.040665E-05,16.956,0
1.1313,-1.678492E-05,16.9695,0,1.1313,-6.344701E-05,16.9695,0
1.1322,-5.706874E-06,16.983,0,1.1322,-5.941863E-05,16.983,0
1.1331,-0.000109102,16.9965,0,1.1331,-1.779202E-05,16.9965,0
1.134,-4.666209E-05,17.01,0,1.134,-3.054856E-05,17.01,0
1.1349,4.095522E-05,17.0235,0,1.1349,-4.599069E-05,17.0235,0
1.1358,8.224613E-05,17.037,0,1.1358,-5.941863E-05,17.037,0
1.1367,2.24918E-05,17.0505,0,1.1367,-2.417029E-05,17.0505,0
1.1376,5.304036E-05,17.064,0,1.1376,-2.920577E-05,17.064,0
1.1385,8.090334E-05,17.0775,0,1.1385,-5.404745E-05,17.0775,0
1.1394,8.96315E-05,17.091,0,1.1394,-6.109713E-05,17.091,0
1.1403,-5.203327E-05,17.1045,0,1.1403,-5.035477E-06,17.1045,0
1.1412,-2.719158E-05,17.118,0,1.1412,-3.424125E-05,17.118,0
1.1421,5.874724E-05,17.1315,0,1.1421,-9.567407E-05,17.1315,0
1.143,-2.349889E-06,17.145,0,1.143,-5.941863E-05,17.145,0
1.1439,-1.376364E-05,17.1585,0,1.1439,-9.500267E-05,17.1585,0
1.1448,5.505455E-05,17.172,0,1.1448,-0.0001215228,17.172,0
1.1457,-2.1149E-05,17.1855,0,1.1457,-7.653925E-05,17.1855,0
1.1466,-7.486076E-05,17.199,0,1.1466,-5.606165E-05,17.199,0
1.1475,1.644922E-05,17.2125,0,1.1475,-2.349889E-06,17.2125,0
1.1484,-9.735256E-06,17.226,0,1.1484,7.486076E-05,17.226,0
1.1493,5.673304E-05,17.2395,0,1.1493,8.96315E-05,17.2395,0
1.1502,-7.721065E-06,17.253,0,1.1502,0.0001195087,17.253,0
1.1511,-9.533837E-05,17.2665,0,1.1511,9.365987E-05,17.2665,0
1.152,-1.107805E-05,17.28,0,1.152,4.632639E-05,17.28,0
1.1529,5.572595E-05,17.2935,0,1.1529,-1.007095E-06,17.2935,0
1.1538,-5.874724E-05,17.307,0,1.1538,2.920577E-05,17.307,0
1.1547,-8.090334E-05,17.3205,0,1.1547,3.356985E-07,17.3205,0
1.1556,2.349889E-05,17.334,0,1.1556,-4.733349E-05,17.334,0
1.1565,-4.733349E-05,17.3475,0,1.1565,-3.356985E-07,17.3475,0
1.1574,-8.090334E-05,17.361,0,1.1574,-1.174945E-05,17.361,0
1.1583,-1.947051E-05,17.3745,0,1.1583,-6.54612E-05,17.3745,0
1.1592,-3.356985E-05,17.388,0,1.1592,-5.203327E-05,17.388,0
1.1601,-0.0001117876,17.4015,0,1.1601,2.349889E-06,17.4015,0
1.161,-4.196231E-05,17.415,0,1.161,-1.242084E-05,17.415,0
1.1619,-3.390555E-05,17.4285,0,1.1619,-1.242084E-05,17.4285,0
1.1628,-1.544213E-05,17.442,0,1.1628,-3.759823E-05,17.442,0
1.1637,3.021286E-06,17.4555,0,1.1637,-2.719158E-05,17.4555,0
1.1646,-7.553216E-05,17.469,0,1.1646,-5.069047E-05,17.469,0
1.1655,-3.793393E-05,17.4825,0,1.1655,-0.0001047379,17.4825,0
1.1664,-3.961242E-05,17.496,0,1.1664,-0.0001094377,17.496,0
1.1673,-9.567407E-05,17.5095,0,1.1673,-6.64683E-05,17.5095,0
1.1682,-3.390555E-05,17.523,0,1.1682,-5.270466E-05,17.523,0
1.1691,4.800488E-05,17.5365,0,1.1691,-4.599069E-05,17.5365,0
1.17,-1.242084E-05,17.55,0,1.17,4.36408E-05,17.55,0
1.1709,1.980621E-05,17.5635,0,1.1709,2.047761E-05,17.5635,0
1.1718,4.53193E-05,17.577,0,1.1718,-2.450599E-05,17.577,0
1.1727,3.189136E-05,17.5905,0,1.1727,2.316319E-05,17.5905,0
1.1736,-2.719158E-05,17.604,0,1.1736,7.721065E-05,17.604,0
1.1745,-3.726253E-05,17.6175,0,1.1745,6.948959E-05,17.6175,0
1.1754,-2.21561E-05,17.631,0,1.1754,3.793393E-05,17.631,0
1.1763,-1.040665E-05,17.6445,0,1.1763,7.721065E-06,17.6445,0
1.1772,1.040665E-05,17.658,0,1.1772,1.309224E-05,17.658,0
1.1781,-8.526741E-05,17.6715,0,1.1781,1.678492E-06,17.6715,0
1.179,-3.524834E-05,17.685,0,1.179,-2.920577E-05,17.685,0
1.1799,3.356985E-06,17.6985,0,1.1799,-5.539025E-05,17.6985,0
1.1808,-9.298848E-05,17.712,0,1.1808,-3.692683E-06,17.712,0
1.1817,-5.069047E-05,17.7255,0,1.1817,-2.1149E-05,17.7255,0
1.1826,4.632639E-05,17.739,0,1.1826,-5.471885E-05,17.739,0
1.1835,-8.325322E-05,17.7525,0,1.1835,-2.1149E-05,17.7525,0
1.1844,-2.450599E-05,17.766,0,1.1844,-1.510643E-05,17.766,0
1.1853,7.418937E-05,17.7795,0,1.1853,-4.934768E-05,17.7795,0
1.1862,-3.054856E-05,17.793,0,1.1862,-3.726253E-05,17.793,0
1.1871,-7.855344E-05,17.8065,0,1.1871,-1.275654E-05,17.8065,0
1.188,1.275654E-05,17.82,0,1.188,-4.196231E-05,17.82,0
1.1889,-1.309224E-05,17.8335,0,1.1889,-5.001907E-05,17.8335,0
1.1898,5.035477E-06,17.847,0,1.1898,-6.6804E-05,17.847,0
1.1907,1.712062E-05,17.8605,0,1.1907,-1.376364E-05,17.8605,0
1.1916,-5.136187E-05,17.874,0,1.1916,-6.042573E-06,17.874,0
1.1925,-4.968337E-05,17.8875,0,1.1925,-4.901198E-05,17.8875,0
1.1934,-3.021286E-06,17.901,0,1.1934,-4.599069E-05,17.901,0
1.1943,-7.083238E-05,17.9145,0,1.1943,3.692683E-06,17.9145,0
1.1952,-9.433127E-05,17.928,0,1.1952,-3.356985E-07,17.928,0
1.1961,1.947051E-05,17.9415,0,1.1961,-2.853437E-05,17.9415,0
1.197,-5.069047E-05,17.955,0,1.197,2.618448E-05,17.955,0
1.1979,2.18204E-05,17.9685,0,1.1979,3.826963E-05,17.9685,0
1.1988,0.0001225299,17.982,0,1.1988,-2.18204E-05,17.982,0
1.1997,8.82887E-05,17.9955,0,1.1997,6.713969E-07,17.9955,0
1.2006,8.157473E-05,18.009,0,1.2006,-1.678492E-06,18.009,0
1.2015,7.620356E-05,18.0225,0,1.2015,-2.987716E-05,18.0225,0
1.2024,5.807584E-05,18.036,0,1.2024,-3.491264E-05,18.036,0
1.2033,7.351797E-05,18.0495,0,1.2033,-6.076142E-05,18.0495,0
1.2042,1.678492E-05,18.063,0,1.2042,-4.095522E-05,18.063,0
1.2051,-4.599069E-05,18.0765,0,1.2051,-2.450599E-05,18.0765,0
1.206,-4.867628E-05,18.09,0,1.206,-4.800488E-05,18.09,0
1.2069,-3.826963E-05,18.1035,0,1.2069,-6.478981E-05,18.1035,0
1.2078,-0.0001050736,18.117,0,1.2078,-1.980621E-05,18.117,0
1.2087,-0.0001127947,18.1305,0,1.2087,-4.666209E-05,18.1305,0
1.2096,-4.196231E-05,18.144,0,1.2096,-8.090334E-05,18.144,0
1.2105,-0.0001017166,18.1575,0,1.2105,-3.189136E-05,18.1575,0
1.2114,-6.143282E-05,18.171,0,1.2114,-4.196231E-05,18.171,0
1.2123,1.309224E-05,18.1845,0,1.2123,-9.231708E-05,18.1845,0
1.2132,-8.358892E-05,18.198,0,1.2132,-6.076142E-05,18.198,0
1.2141,-4.901198E-05,18.2115,0,1.2141,-1.947051E-05,18.2115,0
1.215,2.316319E-05,18.225,0,1.215,-3.189136E-05,18.225,0
1.2159,5.740444E-05,18.2385,0,1.2159,-4.43122E-05,18.2385,0
1.2168,9.903105E-05,18.252,0,1.2168,-6.143282E-05,18.252,0
1.2177,5.203327E-05,18.2655,0,1.2177,-1.040665E-05,18.2655,0
1.2186,4.263371E-05,18.279,0,1.2186,1.678492E-05,18.279,0
1.2195,6.411841E-05,18.2925,0,1.2195,6.378271E-06,18.2925,0
1.2204,6.948959E-05,18.306,0,1.2204,-1.174945E-05,18.306,0
1.2213,-9.433127E-05,18.3195,0,1.2213,1.141375E-05,18.3195,0
1.2222,-6.478981E-05,18.333,0,1.2222,3.054856E-05,18.333,0
1.2231,7.486076E-05,18.3465,0,1.2231,0,18.3465,0
1.224,-4.46479E-05,18.36,0,1.224,4.733349E-05,18.36,0
1.2249,-6.277562E-05,18.3735,0,1.2249,3.524834E-05,18.3735,0
1.2258,8.358892E-05,18.387,0,1.2258,1.007095E-05,18.387,0
1.2267,9.970245E-05,18.4005,0,1.2267,2.584878E-05,18.4005,0
1.2276,-5.706874E-06,18.414,0,1.2276,4.53193E-05,18.414,0
1.2285,4.263371E-05,18.4275,0,1.2285,2.920577E-05,18.4275,0
1.2294,8.493171E-05,18.441,0,1.2294,2.383459E-05,18.441,0
1.2303,0.0001030594,18.4545,0,1.2303,-1.007095E-06,18.4545,0
1.2312,1.913481E-05,18.468,0,1.2312,4.061952E-05,18.468,0
1.2321,-6.009003E-05,18.4815,0,1.2321,4.196231E-05,18.4815,0
1.233,3.021286E-06,18.495,0,1.233,-6.378271E-06,18.495,0
1.2339,3.659113E-05,18.5085,0,1.2339,-2.786297E-05,18.5085,0
1.2348,-1.544213E-05,18.522,0,1.2348,-7.049668E-06,18.522,0
1.2357,-2.853437E-05,18.5355,0,1.2357,-3.356985E-05,18.5355,0
1.2366,3.390555E-05,18.549,0,1.2366,-7.687495E-05,18.549,0
1.2375,-3.424125E-05,18.5625,0,1.2375,-1.275654E-05,18.5625,0
1.2384,-9.433127E-05,18.576,0,1.2384,4.766919E-05,18.576,0
1.2393,-5.136187E-05,18.5895,0,1.2393,2.047761E-05,18.5895,0
1.2402,-1.510643E-05,18.603,0,1.2402,1.577783E-05,18.603,0
1.2411,-9.835965E-05,18.6165,0,1.2411,1.980621E-05,18.6165,0
1.242,-4.263371E-05,18.63,0,1.242,-4.36408E-06,18.63,0
1.2429,2.24918E-05,18.6435,0,1.2429,-1.712062E-05,18.6435,0
1.2438,1.040665E-05,18.657,0,1.2438,-3.961242E-05,18.657,0
1.2447,1.107805E-05,18.6705,0,1.2447,-3.793393E-05,18.6705,0
1.2456,-2.28275E-05,18.684,0,1.2456,-6.61326E-05,18.684,0
1.2465,-1.510643E-05,18.6975,0,1.2465,-0.000105745,18.6975,0
1.2474,2.584878E-05,18.711,0,1.2474,-0.0001215228,18.711,0
1.2483,-5.270466E-05,18.7245,0,1.2483,-8.392462E-05,18.7245,0
1.2492,-1.007095E-05,18.738,0,1.2492,-8.090334E-05,18.738,0
1.2501,5.874724E-05,18.7515,0,1.2501,-8.090334E-05,18.7515,0
1.251,5.035477E-06,18.765,0,1.251,2.21561E-05,18.765,0
1.2519,0.0001044022,18.7785,0,1.2519,-2.014191E-06,18.7785,0
1.2528,9.567407E-05,18.792,0,1.2528,-9.466698E-05,18.792,0
1.2537,3.121996E-05,18.8055,0,1.2537,-0.0001211871,18.8055,0
1.2546,-3.021286E-06,18.819,0,1.2546,-0.0001134661,18.819,0
1.2555,2.349889E-06,18.8325,0,1.2555,-0.0001195087,18.8325,0
1.2564,-4.599069E-05,18.846,0,1.2564,-0.000115816,18.846,0
1.2573,2.349889E-06,18.8595,0,1.2573,-0.0001379721,18.8595,0
1.2582,-6.713969E-07,18.873,0,1.2582,-9.701686E-05,18.873,0
1.2591,-0.0001225299,18.8865,0,1.2591,-8.291753E-05,18.8865,0
1.26,-7.486076E-05,18.9,0,1.26,-0.0001305867,18.9,0
1.2609,5.505455E-05,18.9135,0,1.2609,-0.0001205158,18.9135,0
1.2618,-9.701686E-05,18.927,0,1.2618,-4.867628E-05,18.927,0
1.2627,-8.426032E-05,18.9405,0,1.2627,-4.599069E-05,18.9405,0
1.2636,4.666209E-05,18.954,0,1.2636,-5.505455E-05,18.954,0
1.2645,-5.505455E-05,18.9675,0,1.2645,5.069047E-05,18.9675,0
1.2654,-9.332418E-05,18.981,0,1.2654,7.754635E-05,18.981,0
1.2663,4.263371E-05,18.9945,0,1.2663,3.323415E-05,18.9945,0
1.2672,3.692683E-06,19.008,0,1.2672,2.819867E-05,19.008,0
1.2681,-6.982528E-05,19.0215,0,1.2681,8.627451E-05,19.0215,0
1.269,-4.39765E-05,19.035,0,1.269,4.699779E-05,19.035,0
1.2699,4.39765E-05,19.0485,0,1.2699,3.189136E-05,19.0485,0
1.2708,6.344701E-05,19.062,0,1.2708,2.1149E-05,19.062,0
1.2717,2.383459E-05,19.0755,0,1.2717,5.169757E-05,19.0755,0
1.2726,-7.754635E-05,19.089,0,1.2726,4.599069E-05,19.089,0
1.2735,-4.599069E-05,19.1025,0,1.2735,2.584878E-05,19.1025,0
1.2744,1.376364E-05,19.116,0,1.2744,1.846342E-05,19.116,0
1.2753,-2.450599E-05,19.1295,0,1.2753,5.136187E-05,19.1295,0
1.2762,-3.524834E-05,19.143,0,1.2762,1.846342E-05,19.143,0
1.2771,6.277562E-05,19.1565,0,1.2771,-3.256275E-05,19.1565,0
1.278,1.309224E-05,19.17,0,1.278,3.726253E-05,19.17,0
1.2789,-3.659113E-05,19.1835,0,1.2789,4.263371E-05,19.1835,0
1.2798,1.779202E-05,19.197,0,1.2798,-8.392462E-06,19.197,0
1.2807,5.807584E-05,19.2105,0,1.2807,1.443504E-05,19.2105,0
1.2816,-3.927672E-05,19.224,0,1.2816,4.632639E-05,19.224,0
1.2825,-8.090334E-05,19.2375,0,1.2825,8.728161E-06,19.2375,0
1.2834,-0.0001228656,19.251,0,1.2834,6.378271E-06,19.251,0
1.2843,-1.577783E-05,19.2645,0,1.2843,-5.706874E-06,19.2645,0
1.2852,-7.049668E-06,19.278,0,1.2852,6.378271E-06,19.278,0
1.2861,-9.600977E-05,19.2915,0,1.2861,1.208515E-05,19.2915,0
1.287,-1.745632E-05,19.305,0,1.287,-3.659113E-05,19.305,0
1.2879,1.208515E-05,19.3185,0,1.2879,-4.129091E-05,19.3185,0
1.2888,1.007095E-06,19.332,0,1.2888,-1.443504E-05,19.332,0
1.2897,0.0001359579,19.3455,0,1.2897,-3.726253E-05,19.3455,0
1.2906,0.000190341,19.359,0,1.2906,-8.224613E-05,19.359,0
1.2915,9.735256E-06,19.3725,0,1.2915,-3.726253E-05,19.3725,0
1.2924,-5.236896E-05,19.386,0,1.2924,-4.39765E-05,19.386,0
1.2933,1.913481E-05,19.3995,0,1.2933,-7.016098E-05,19.3995,0
1.2942,5.606165E-05,19.413,0,1.2942,-1.309224E-05,19.413,0
1.2951,-3.054856E-05,19.4265,0,1.2951,1.242084E-05,19.4265,0
1.296,8.157473E-05,19.44,0,1.296,-5.035477E-06,19.44,0
1.2969,9.298848E-05,19.4535,0,1.2969,-1.779202E-05,19.4535,0
1.2978,0.0001715419,19.467,0,1.2978,-3.054856E-05,19.467,0
1.2987,0.0001886625,19.4805,0,1.2987,1.812772E-05,19.4805,0
1.2996,7.687495E-05,19.494,0,1.2996,2.21561E-05,19.494,0
1.3005,8.258183E-05,19.5075,0,1.3005,1.342794E-06,19.5075,0
1.3014,0.000105745,19.521,0,1.3014,-9.735256E-06,19.521,0
1.3023,7.049668E-06,19.5345,0,1.3023,3.591974E-05,19.5345,0
1.3032,-3.457694E-05,19.548,0,1.3032,-2.685588E-06,19.548,0
1.3041,7.821774E-05,19.5615,0,1.3041,-4.263371E-05,19.5615,0
1.305,-5.572595E-05,19.575,0,1.305,-2.685588E-06,19.575,0
1.3059,-9.130999E-05,19.5885,0,1.3059,1.174945E-05,19.5885,0
1.3068,-1.443504E-05,19.602,0,1.3068,-5.203327E-05,19.602,0
1.3077,-5.572595E-05,19.6155,0,1.3077,-5.673304E-05,19.6155,0
1.3086,-0.0001587854,19.629,0,1.3086,-3.927672E-05,19.629,0
1.3095,-0.0001138018,19.6425,0,1.3095,-4.699779E-05,19.6425,0
1.3104,-6.210422E-05,19.656,0,1.3104,-4.49836E-05,19.656,0
1.3113,-2.316319E-05,19.6695,0,1.3113,-6.71397E-05,19.6695,0
1.3122,-5.941863E-05,19.683,0,1.3122,-2.920577E-05,19.683,0
1.3131,-2.081331E-05,19.6965,0,1.3131,-8.056763E-06,19.6965,0
1.314,-2.383459E-05,19.71,0,1.314,-2.987716E-05,19.71,0
1.3149,4.699779E-06,19.7235,0,1.3149,-2.584878E-05,19.7235,0
1.3158,-1.107805E-05,19.737,0,1.3158,2.954147E-05,19.737,0
1.3167,-5.606165E-05,19.7505,0,1.3167,-8.728161E-06,19.7505,0
1.3176,4.36408E-06,19.764,0,1.3176,-4.129091E-05,19.764,0
1.3185,-5.774014E-05,19.7775,0,1.3185,3.692683E-06,19.7775,0
1.3194,-8.69459E-05,19.791,0,1.3194,3.021286E-06,19.791,0
1.3203,-8.728161E-06,19.8045,0,1.3203,-5.270466E-05,19.8045,0
1.3212,2.24918E-05,19.818,0,1.3212,-1.812772E-05,19.818,0
1.3221,-5.337606E-05,19.8315,0,1.3221,1.544213E-05,19.8315,0
1.323,-4.46479E-05,19.845,0,1.323,2.349889E-06,19.845,0
1.3239,-2.551309E-05,19.8585,0,1.3239,-1.174945E-05,19.8585,0
1.3248,4.095522E-05,19.872,0,1.3248,-4.699779E-06,19.872,0
1.3257,-3.726253E-05,19.8855,0,1.3257,3.289845E-05,19.8855,0
1.3266,-6.076142E-05,19.899,0,1.3266,3.894102E-05,19.899,0
1.3275,4.229801E-05,19.9125,0,1.3275,1.745632E-05,19.9125,0
1.3284,2.920577E-05,19.926,0,1.3284,-3.692683E-06,19.926,0
1.3293,-8.72816E-05,19.9395,0,1.3293,1.678492E-06,19.9395,0
1.3302,-2.719158E-05,19.953,0,1.3302,-4.29694E-05,19.953,0
1.3311,0.0001044022,19.9665,0,1.3311,-9.567407E-05,19.9665,0
1.332,-6.210422E-05,19.98,0,1.332,-2.719158E-05,19.98,0
1.3329,-0.0001185016,19.9935,0,1.3329,-2.517739E-05,19.9935,0
1.3338,2.349889E-06,20.007,0,1.3338,-5.203327E-05,20.007,0
1.3347,-4.095522E-05,20.0205,0,1.3347,6.713969E-07,20.0205,0
1.3356,-9.231708E-05,20.034,0,1.3356,2.1149E-05,20.034,0
1.3365,-6.378271E-06,20.0475,0,1.3365,-2.719158E-05,20.0475,0
1.3374,1.846342E-05,20.061,0,1.3374,-3.994812E-05,20.061,0
1.3383,2.014191E-05,20.0745,0,1.3383,-3.692683E-05,20.0745,0
1.3392,1.846342E-05,20.088,0,1.3392,-3.356985E-06,20.088,0
1.3401,-6.042573E-06,20.1015,0,1.3401,-7.049668E-06,20.1015,0
1.341,4.028382E-06,20.115,0,1.341,-4.901198E-05,20.115,0
1.3419,6.915389E-05,20.1285,0,1.3419,-6.344701E-05,20.1285,0
1.3428,3.894102E-05,20.142,0,1.3428,-1.544213E-05,20.142,0
1.3437,-1.712062E-05,20.1555,0,1.3437,-2.417029E-05,20.1555,0
1.3446,7.721065E-05,20.169,0,1.3446,-5.874724E-05,20.169,0
1.3455,1.376364E-05,20.1825,0,1.3455,-1.409934E-05,20.1825,0
1.3464,-7.855344E-05,20.196,0,1.3464,-2.047761E-05,20.196,0
1.3473,-6.61326E-05,20.2095,0,1.3473,-4.33051E-05,20.2095,0
1.3482,-5.908293E-05,20.223,0,1.3482,-5.035477E-06,20.223,0
1.3491,-0.0001258869,20.2365,0,1.3491,1.309224E-05,20.2365,0
1.35,-3.826963E-05,20.25,0,1.35,-1.208515E-05,20.25,0
1.3509,3.558404E-05,20.2635,0,1.3509,3.021286E-06,20.2635,0
1.3518,3.323415E-05,20.277,0,1.3518,5.035477E-06,20.277,0
1.3527,5.270466E-05,20.2905,0,1.3527,1.040665E-05,20.2905,0
1.3536,4.196231E-05,20.304,0,1.3536,-8.056763E-06,20.304,0
1.3545,5.169757E-05,20.3175,0,1.3545,-3.961242E-05,20.3175,0
1.3554,3.927672E-05,20.331,0,1.3554,-4.29694E-05,20.331,0
1.3563,-5.941863E-05,20.3445,0,1.3563,-2.584878E-05,20.3445,0
1.3572,-2.1149E-05,20.358,0,1.3572,-3.424125E-05,20.358,0
1.3581,3.189136E-05,20.3715,0,1.3581,-6.915389E-05,20.3715,0
1.359,-6.478981E-05,20.385,0,1.359,-2.853437E-05,20.385,0
1.3599,-2.517739E-05,20.3985,0,1.3599,-4.028382E-05,20.3985,0
1.3608,-1.644922E-05,20.412,0,1.3608,-8.89601E-05,20.412,0
1.3617,-3.692683E-05,20.4255,0,1.3617,-6.143282E-05,20.4255,0
1.3626,-8.627451E-05,20.439,0,1.3626,-5.404745E-05,20.439,0
1.3635,-0.0001238727,20.4525,0,1.3635,-9.097429E-05,20.4525,0
1.3644,-0.0001319295,20.466,0,1.3644,-0.0001070878,20.466,0
1.3653,-7.049668E-05,20.4795,0,1.3653,-0.0001366293,20.4795,0
1.3662,-2.551309E-05,20.493,0,1.3662,-8.69459E-05,20.493,0
1.3671,-5.539025E-05,20.5065,0,1.3671,-3.894102E-05,20.5065,0
1.368,-8.392462E-06,20.52,0,1.368,-5.673304E-05,20.52,0
1.3689,0.0001282368,20.5335,0,1.3689,-7.956054E-05,20.5335,0
1.3698,9.903105E-05,20.547,0,1.3698,-6.042573E-06,20.547,0
1.3707,0.0001967193,20.5605,0,1.3707,1.879912E-05,20.5605,0
1.3716,0.0003165637,20.574,0,1.3716,-7.385367E-06,20.574,0
1.3725,0.0001514,20.5875,0,1.3725,5.001907E-05,20.5875,0
1.3734,6.109713E-05,20.601,0,1.3734,4.632639E-05,20.601,0
1.3743,9.164568E-05,20.6145,0,1.3743,-4.36408E-06,20.6145,0
1.3752,1.712062E-05,20.628,0,1.3752,1.644922E-05,20.628,0
1.3761,-4.33051E-05,20.6415,0,1.3761,4.46479E-05,20.6415,0
1.377,-3.726253E-05,20.655,0,1.377,1.577783E-05,20.655,0
1.3779,-1.275654E-05,20.6685,0,1.3779,-1.208515E-05,20.6685,0
1.3788,-3.860533E-05,20.682,0,1.3788,-5.807584E-05,20.682,0
1.3797,-5.270466E-05,20.6955,0,1.3797,-1.141375E-05,20.6955,0
1.3806,-0.0001366293,20.709,0,1.3806,-2.316319E-05,20.709,0
1.3815,-0.0001094377,20.7225,0,1.3815,-7.418937E-05,20.7225,0
1.3824,-2.920577E-05,20.736,0,1.3824,-6.6804E-05,20.736,0
1.3833,-8.392462E-05,20.7495,0,1.3833,5.371176E-06,20.7495,0
1.3842,-0.000105745,20.763,0,1.3842,-1.141375E-05,20.763,0
1.3851,-1.477073E-05,20.7765,0,1.3851,-4.196231E-05,20.7765,0
1.386,-5.404745E-05,20.79,0,1.386,1.644922E-05,20.79,0
1.3869,-8.291753E-05,20.8035,0,1.3869,1.040665E-05,20.8035,0
1.3878,-2.853437E-05,20.817,0,1.3878,-2.21561E-05,20.817,0
1.3887,-2.987716E-05,20.8305,0,1.3887,-6.713969E-07,20.8305,0
1.3896,-3.390555E-05,20.844,0,1.3896,2.786297E-05,20.844,0
1.3905,-5.706874E-06,20.8575,0,1.3905,1.007095E-05,20.8575,0
1.3914,2.685588E-06,20.871,0,1.3914,7.049668E-06,20.871,0
1.3923,5.807584E-05,20.8845,0,1.3923,-2.081331E-05,20.8845,0
1.3932,1.275654E-05,20.898,0,1.3932,-5.035477E-06,20.898,0
1.3941,-4.36408E-06,20.9115,0,1.3941,1.678492E-06,20.9115,0
1.395,1.342794E-05,20.925,0,1.395,6.378271E-06,20.925,0
1.3959,-7.049668E-06,20.9385,0,1.3959,3.356985E-07,20.9385,0
1.3968,-4.43122E-05,20.952,0,1.3968,4.129091E-05,20.952,0
1.3977,3.591974E-05,20.9655,0,1.3977,2.517739E-05,20.9655,0
1.3986,6.042573E-05,20.979,0,1.3986,-1.712062E-05,20.979,0
1.3995,-6.042573E-06,20.9925,0,1.3995,4.666209E-05,20.9925,0
1.4004,3.457694E-05,21.006,0,1.4004,3.961242E-05,21.006,0
1.4013,6.210422E-05,21.0195,0,1.4013,-1.107805E-05,21.0195,0
1.4022,-3.356985E-06,21.033,0,1.4022,1.040665E-05,21.033,0
1.4031,-3.356985E-05,21.0465,0,1.4031,3.424125E-05,21.0465,0
1.404,1.712062E-05,21.06,0,1.404,2.1149E-05,21.06,0
1.4049,-3.894102E-05,21.0735,0,1.4049,-1.275654E-05,21.0735,0
1.4058,1.007095E-06,21.087,0,1.4058,-4.263371E-05,21.087,0
1.4067,2.014191E-06,21.1005,0,1.4067,6.713969E-06,21.1005,0
1.4076,-0.0001215228,21.114,0,1.4076,2.014191E-06,21.114,0
1.4085,-4.095522E-05,21.1275,0,1.4085,-9.735256E-06,21.1275,0
1.4094,8.392462E-06,21.141,0,1.4094,-1.309224E-05,21.141,0
1.4103,-6.814679E-05,21.1545,0,1.4103,1.242084E-05,21.1545,0
1.4112,-5.001907E-05,21.168,0,1.4112,-1.846342E-05,21.168,0
1.4121,4.934768E-05,21.1815,0,1.4121,-6.411841E-05,21.1815,0
1.413,-4.028382E-06,21.195,0,1.413,-1.040665E-05,21.195,0
1.4139,1.678492E-05,21.2085,0,1.4139,-1.544213E-05,21.2085,0
1.4148,9.768826E-05,21.222,0,1.4148,-6.64683E-05,21.222,0
1.4157,-2.987716E-05,21.2355,0,1.4157,-5.035477E-05,21.2355,0
1.4166,-5.337606E-05,21.249,0,1.4166,-2.450599E-05,21.249,0
1.4175,4.263371E-05,21.2625,0,1.4175,-2.685588E-05,21.2625,0
1.4184,-5.706874E-06,21.276,0,1.4184,-3.323415E-05,21.276,0
1.4193,3.860533E-05,21.2895,0,1.4193,-6.64683E-05,21.2895,0
1.4202,6.243992E-05,21.303,0,1.4202,-3.524834E-05,21.303,0
1.4211,5.236896E-05,21.3165,0,1.4211,-4.800488E-05,21.3165,0
1.422,1.510643E-05,21.33,0,1.422,-7.956054E-05,21.33,0
1.4229,2.652018E-05,21.3435,0,1.4229,-9.231708E-05,21.3435,0
1.4238,-6.109713E-05,21.357,0,1.4238,-3.793393E-05,21.357,0
1.4247,-3.692683E-06,21.3705,0,1.4247,-4.36408E-05,21.3705,0
1.4256,5.841154E-05,21.384,0,1.4256,-5.941863E-05,21.384,0
1.4265,-4.53193E-05,21.3975,0,1.4265,-6.713969E-07,21.3975,0
1.4274,-8.627451E-05,21.411,0,1.4274,2.383459E-05,21.411,0
1.4283,-5.035477E-06,21.4245,0,1.4283,-4.733349E-05,21.4245,0
1.4292,7.318227E-05,21.438,0,1.4292,-3.021286E-05,21.438,0
1.4301,-3.659113E-05,21.4515,0,1.4301,1.242084E-05,21.4515,0
1.431,-6.74754E-05,21.465,0,1.431,2.752728E-05,21.465,0
1.4319,5.035477E-06,21.4785,0,1.4319,2.484169E-05,21.4785,0
1.4328,8.72816E-05,21.492,0,1.4328,-1.342794E-06,21.492,0
1.4337,-2.450599E-05,21.5055,0,1.4337,4.196231E-05,21.5055,0
1.4346,-0.000123537,21.519,0,1.4346,7.217517E-05,21.519,0
1.4355,-2.920577E-05,21.5325,0,1.4355,7.486076E-05,21.5325,0
1.4364,2.987716E-05,21.546,0,1.4364,3.457694E-05,21.546,0
1.4373,-7.083238E-05,21.5595,0,1.4373,5.606165E-05,21.5595,0
1.4382,-3.021286E-05,21.573,0,1.4382,2.819867E-05,21.573,0
1.4391,5.471885E-05,21.5865,0,1.4391,-3.659113E-05,21.5865,0
1.44,-6.344701E-05,21.6,0,1.44,-6.378271E-06,21.6,0
1.4409,-2.517739E-05,21.6135,0,1.4409,-1.443504E-05,21.6135,0
1.4418,5.740444E-05,21.627,0,1.4418,-5.337606E-05,21.627,0
1.4427,-3.189136E-05,21.6405,0,1.4427,-1.242084E-05,21.6405,0
1.4436,-7.821774E-05,21.654,0,1.4436,-1.745632E-05,21.654,0
1.4445,-1.812772E-05,21.6675,0,1.4445,-4.733349E-05,21.6675,0
1.4454,-5.740444E-05,21.681,0,1.4454,-5.740444E-05,21.681,0
1.4463,-2.28275E-05,21.6945,0,1.4463,-8.96315E-05,21.6945,0
1.4472,2.349889E-06,21.708,0,1.4472,-6.64683E-05,21.708,0
1.4481,-2.920577E-05,21.7215,0,1.4481,-3.021286E-05,21.7215,0
1.449,-4.061952E-05,21.735,0,1.449,-8.224613E-05,21.735,0
1.4499,2.887007E-05,21.7485,0,1.4499,-9.130999E-05,21.7485,0
1.4508,1.980621E-05,21.762,0,1.4508,-3.726253E-05,21.762,0
1.4517,7.385367E-06,21.7755,0,1.4517,-3.793393E-05,21.7755,0
1.4526,0.0001755703,21.789,0,1.4526,-0.0001000381,21.789,0
1.4535,0.0001215228,21.8025,0,1.4535,-4.061952E-05,21.8025,0
1.4544,4.095522E-05,21.816,0,1.4544,-3.726253E-05,21.816,0
1.4553,0.0001420005,21.8295,0,1.4553,-8.493171E-05,21.8295,0
1.4562,7.888914E-05,21.843,0,1.4562,-3.323415E-05,21.843,0
1.4571,-4.666209E-05,21.8565,0,1.4571,1.007095E-06,21.8565,0
1.458,-4.39765E-05,21.87,0,1.458,-1.510643E-05,21.87,0
1.4589,-3.356985E-07,21.8835,0,1.4589,-2.551309E-05,21.8835,0
1.4598,-1.745632E-05,21.897,0,1.4598,-3.726253E-05,21.897,0
1.4607,-2.920577E-05,21.9105,0,1.4607,-1.644922E-05,21.9105,0
1.4616,1.342794E-06,21.924,0,1.4616,1.678492E-06,21.924,0
1.4625,5.874724E-05,21.9375,0,1.4625,-1.879912E-05,21.9375,0
1.4634,2.920577E-05,21.951,0,1.4634,-2.081331E-05,21.951,0
1.4643,-3.256275E-05,21.9645,0,1.4643,1.309224E-05,21.9645,0
1.4652,-1.913481E-05,21.978,0,1.4652,-6.378271E-06,21.978,0
1.4661,3.692683E-06,21.9915,0,1.4661,-3.860533E-05,21.9915,0
1.467,-0.000102388,22.005,0,1.467,1.007095E-06,22.005,0
1.4679,-0.0001168231,22.0185,0,1.4679,-8.392462E-06,22.0185,0
1.4688,-6.57969E-05,22.032,0,1.4688,-3.390555E-05,22.032,0
1.4697,3.189136E-05,22.0455,0,1.4697,-2.014191E-06,22.0455,0
1.4706,3.692683E-06,22.059,0,1.4706,1.577783E-05,22.059,0
1.4715,-2.584878E-05,22.0725,0,1.4715,1.980621E-05,22.0725,0
1.4724,3.021286E-06,22.086,0,1.4724,5.035477E-06,22.086,0
1.4733,9.063859E-05,22.0995,0,1.4733,-1.980621E-05,22.0995,0
1.4742,3.860533E-05,22.113,0,1.4742,2.383459E-05,22.113,0
1.4751,-0.0001265583,22.1265,0,1.4751,2.819867E-05,22.1265,0
1.476,-5.639734E-05,22.14,0,1.476,-3.021286E-05,22.14,0
1.4769,1.779202E-05,22.1535,0,1.4769,-5.706874E-05,22.1535,0
1.4778,-9.298848E-05,22.167,0,1.4778,-1.577783E-05,22.167,0
1.4787,-3.591974E-05,22.1805,0,1.4787,-2.24918E-05,22.1805,0
1.4796,0.0001003738,22.194,0,1.4796,-7.721065E-05,22.194,0
1.4805,-1.779202E-05,22.2075,0,1.4805,-1.712062E-05,22.2075,0
1.4814,2.484169E-05,22.221,0,1.4814,-1.275654E-05,22.221,0
1.4823,4.934768E-05,22.2345,0,1.4823,-7.418937E-05,22.2345,0
1.4832,-7.721065E-05,22.248,0,1.4832,-3.994812E-05,22.248,0
1.4841,-9.433127E-05,22.2615,0,1.4841,-3.692683E-06,22.2615,0
1.485,-3.390555E-05,22.275,0,1.485,-1.510643E-05,22.275,0
1.4859,-2.081331E-05,22.2885,0,1.4859,-3.927672E-05,22.2885,0
1.4868,-4.095522E-05,22.302,0,1.4868,-4.129091E-05,22.302,0
1.4877,-2.584878E-05,22.3155,0,1.4877,7.049668E-06,22.3155,0
1.4886,-2.349889E-05,22.329,0,1.4886,8.056763E-06,22.329,0
1.4895,-2.652018E-05,22.3425,0,1.4895,-3.021286E-05,22.3425,0
1.4904,3.659113E-05,22.356,0,1.4904,-4.53193E-05,22.356,0
1.4913,-3.256275E-05,22.3695,0,1.4913,-2.24918E-05,22.3695,0
1.4922,-9.735256E-06,22.383,0,1.4922,-3.726253E-05,22.383,0
1.4931,8.560311E-05,22.3965,0,1.4931,-7.821774E-05,22.3965,0
1.494,-9.399558E-06,22.41,0,1.494,-2.417029E-05,22.41,0
1.4949,-4.061952E-05,22.4235,0,1.4949,-4.867628E-05,22.4235,0
1.4958,4.129091E-05,22.437,0,1.4958,-8.291753E-05,22.437,0
1.4967,8.191043E-05,22.4505,0,1.4967,-4.867628E-05,22.4505,0
1.4976,5.706874E-06,22.464,0,1.4976,1.007095E-06,22.464,0
1.4985,-1.947051E-05,22.4775,0,1.4985,-1.510643E-05,22.4775,0
1.4994,-3.692683E-06,22.491,0,1.4994,-2.18204E-05,22.491,0
1.5003,2.517739E-05,22.5045,0,1.5003,-4.666209E-05,22.5045,0
1.5012,-4.36408E-05,22.518,0,1.5012,-8.392462E-06,22.518,0
1.5021,-0.0001279011,22.5315,0,1.5021,2.652018E-05,22.5315,0
1.503,-6.009003E-05,22.545,0,1.503,1.644922E-05,22.545,0
1.5039,-4.39765E-05,22.5585,0,1.5039,1.141375E-05,22.5585,0
1.5048,-9.634547E-05,22.572,0,1.5048,3.356985E-05,22.572,0
1.5057,-3.390555E-05,22.5855,0,1.5057,1.376364E-05,22.5855,0
1.5066,2.24918E-05,22.599,0,1.5066,-2.316319E-05,22.599,0
1.5075,-5.236896E-05,22.6125,0,1.5075,4.46479E-05,22.6125,0
1.5084,7.016098E-05,22.626,0,1.5084,4.53193E-05,22.626,0
1.5093,6.210422E-05,22.6395,0,1.5093,7.049668E-06,22.6395,0
1.5102,-2.349889E-06,22.653,0,1.5102,9.735256E-06,22.653,0
1.5111,-1.275654E-05,22.6665,0,1.5111,9.063859E-06,22.6665,0
1.512,-5.706874E-06,22.68,0,1.512,-2.786297E-05,22.68,0
1.5129,-4.666209E-05,22.6935,0,1.5129,-2.819867E-05,22.6935,0
1.5138,1.141375E-05,22.707,0,1.5138,-4.632639E-05,22.707,0
1.5147,-6.042573E-06,22.7205,0,1.5147,6.713969E-07,22.7205,0
1.5156,-7.721065E-05,22.734,0,1.5156,-1.678492E-06,22.734,0
1.5165,-1.376364E-05,22.7475,0,1.5165,-5.035477E-05,22.7475,0
1.5174,-4.36408E-06,22.761,0,1.5174,-6.344701E-05,22.761,0
1.5183,-8.157473E-05,22.7745,0,1.5183,-2.24918E-05,22.7745,0
1.5192,-5.404745E-05,22.788,0,1.5192,-2.920577E-05,22.788,0
1.5201,6.57969E-05,22.8015,0,1.5201,-9.265278E-05,22.8015,0
1.521,-5.471885E-05,22.815,0,1.521,-3.457694E-05,22.815,0
1.5219,-0.0001426719,22.8285,0,1.5219,-3.826963E-05,22.8285,0
1.5228,-1.376364E-05,22.842,0,1.5228,-6.076142E-05,22.842,0
1.5237,7.888914E-05,22.8555,0,1.5237,-4.867628E-05,22.8555,0
1.5246,-4.43122E-05,22.869,0,1.5246,-1.913481E-05,22.869,0
1.5255,3.759823E-05,22.8825,0,1.5255,-1.577783E-05,22.8825,0
1.5264,3.927672E-05,22.896,0,1.5264,-1.544213E-05,22.896,0
1.5273,7.888914E-05,22.9095,0,1.5273,-2.517739E-05,22.9095,0
1.5282,7.687495E-05,22.923,0,1.5282,2.383459E-05,22.923,0
1.5291,3.457694E-05,22.9365,0,1.5291,3.054856E-05,22.9365,0
1.53,4.867628E-05,22.95,0,1.53,-1.107805E-05,22.95,0
1.5309,5.102617E-05,22.9635,0,1.5309,-1.107805E-05,22.9635,0
1.5318,-3.726253E-05,22.977,0,1.5318,4.061952E-05,22.977,0
1.5327,-1.107805E-05,22.9905,0,1.5327,1.376364E-05,22.9905,0
1.5336,3.121996E-05,23.004,0,1.5336,-7.721065E-06,23.004,0
1.5345,-3.390555E-05,23.0175,0,1.5345,4.901198E-05,23.0175,0
1.5354,-7.956054E-05,23.031,0,1.5354,7.284657E-05,23.031,0
1.5363,-1.242084E-05,23.0445,0,1.5363,1.913481E-05,23.0445,0
1.5372,2.450599E-05,23.058,0,1.5372,1.107805E-05,23.058,0
1.5381,-6.54612E-05,23.0715,0,1.5381,2.786297E-05,23.0715,0
1.539,-5.438316E-05,23.085,0,1.539,-1.712062E-05,23.085,0
1.5399,-3.390555E-05,23.0985,0,1.5399,-6.277562E-05,23.0985,0
1.5408,1.409934E-05,23.112,0,1.5408,-8.224613E-05,23.112,0
1.5417,-2.987716E-05,23.1255,0,1.5417,-5.371176E-05,23.1255,0
1.5426,7.385367E-06,23.139,0,1.5426,-5.471885E-05,23.139,0
1.5435,7.956054E-05,23.1525,0,1.5435,-7.351797E-05,23.1525,0
1.5444,4.129091E-05,23.166,0,1.5444,-9.433127E-05,23.166,0
1.5453,-1.913481E-05,23.1795,0,1.5453,-3.625543E-05,23.1795,0
1.5462,5.001907E-05,23.193,0,1.5462,-3.894102E-05,23.193,0
1.5471,5.975433E-05,23.2065,0,1.5471,-5.673304E-05,23.2065,0
1.548,-6.78111E-05,23.22,0,1.548,3.356985E-07,23.22,0
1.5489,-2.584878E-05,23.2335,0,1.5489,3.121996E-05,23.2335,0
1.5498,5.505455E-05,23.247,0,1.5498,1.980621E-05,23.247,0
1.5507,1.678492E-06,23.2605,0,1.5507,3.692683E-06,23.2605,0
1.5516,-4.766919E-05,23.274,0,1.5516,2.316319E-05,23.274,0
1.5525,-4.33051E-05,23.2875,0,1.5525,1.779202E-05,23.2875,0
1.5534,-1.007095E-05,23.301,0,1.5534,2.1149E-05,23.301,0
1.5543,3.356985E-05,23.3145,0,1.5543,-4.699779E-06,23.3145,0
1.5552,3.994812E-05,23.328,0,1.5552,1.174945E-05,23.328,0
1.5561,-3.390555E-05,23.3415,0,1.5561,1.275654E-05,23.3415,0
1.557,-2.517739E-05,23.355,0,1.557,-1.107805E-05,23.355,0
1.5579,2.383459E-05,23.3685,0,1.5579,-3.155566E-05,23.3685,0
1.5588,-9.466698E-05,23.382,0,1.5588,8.056763E-06,23.382,0
1.5597,-5.874724E-05,23.3955,0,1.5597,-1.007095E-05,23.3955,0
1.5606,8.224613E-05,23.409,0,1.5606,-6.814679E-05,23.409,0
1.5615,-8.661021E-05,23.4225,0,1.5615,-2.316319E-05,23.4225,0
1.5624,-6.74754E-05,23.436,0,1.5624,-4.095522E-05,23.436,0
1.5633,7.385367E-05,23.4495,0,1.5633,-0.0001037308,23.4495,0
1.5642,-4.666209E-05,23.463,0,1.5642,-5.270466E-05,23.463,0
1.5651,-8.92958E-05,23.4765,0,1.5651,-1.947051E-05,23.4765,0
1.566,-3.961242E-05,23.49,0,1.566,-2.719158E-05,23.49,0
1.5669,-1.544213E-05,23.5035,0,1.5669,-2.719158E-05,23.5035,0
1.5678,1.242084E-05,23.517,0,1.5678,-4.263371E-05,23.517,0
1.5687,-2.047761E-05,23.5305,0,1.5687,-2.28275E-05,23.5305,0
1.5696,-4.800488E-05,23.544,0,1.5696,-3.659113E-05,23.544,0
1.5705,-3.927672E-05,23.5575,0,1.5705,-6.74754E-05,23.5575,0
1.5714,2.1149E-05,23.571,0,1.5714,-5.505455E-05,23.571,0
1.5723,2.786297E-05,23.5845,0,1.5723,-3.491264E-05,23.5845,0
1.5732,-1.376364E-05,23.598,0,1.5732,-5.136187E-05,23.598,0
1.5741,7.217517E-05,23.6115,0,1.5741,-7.486076E-05,23.6115,0
1.575,7.721065E-06,23.625,0,1.575,-2.887007E-05,23.625,0
1.5759,1.309224E-05,23.6385,0,1.5759,-3.994812E-05,23.6385,0
1.5768,2.383459E-05,23.652,0,1.5768,-6.948959E-05,23.652,0
1.5777,-3.021286E-05,23.6655,0,1.5777,-3.323415E-05,23.6655,0
1.5786,-7.318227E-05,23.679,0,1.5786,-1.846342E-05,23.679,0
1.5795,-2.18204E-05,23.6925,0,1.5795,-3.289845E-05,23.6925,0
1.5804,-9.735256E-06,23.706,0,1.5804,-2.920577E-05,23.706,0
1.5813,6.6804E-05,23.7195,0,1.5813,-3.424125E-05,23.7195,0
1.5822,5.706874E-06,23.733,0,1.5822,-5.035477E-06,23.733,0
1.5831,-3.860533E-05,23.7465,0,1.5831,-5.706874E-06,23.7465,0
1.584,2.1149E-05,23.76,0,1.584,-2.819867E-05,23.76,0
1.5849,5.874724E-05,23.7735,0,1.5849,-3.793393E-05,23.7735,0
1.5858,-4.33051E-05,23.787,0,1.5858,2.618448E-05,23.787,0
1.5867,5.706874E-06,23.8005,0,1.5867,2.1149E-05,23.8005,0
1.5876,0.0001171588,23.814,0,1.5876,-6.042573E-06,23.814,0
1.5885,-2.920577E-05,23.8275,0,1.5885,5.539025E-05,23.8275,0
1.5894,2.652018E-05,23.841,0,1.5894,3.457694E-05,23.841,0
1.5903,6.009003E-05,23.8545,0,1.5903,-2.517739E-05,23.8545,0
1.5912,-4.36408E-05,23.868,0,1.5912,1.007095E-06,23.868,0
1.5921,-7.150377E-05,23.8815,0,1.5921,3.692683E-06,23.8815,0
1.593,1.409934E-05,23.895,0,1.593,-2.685588E-06,23.895,0
1.5939,5.035477E-06,23.9085,0,1.5939,1.980621E-05,23.9085,0
1.5948,9.399558E-06,23.922,0,1.5948,1.678492E-06,23.922,0
1.5957,1.409934E-05,23.9355,0,1.5957,4.129091E-05,23.9355,0
1.5966,-4.733349E-05,23.949,0,1.5966,5.438316E-05,23.949,0
1.5975,-6.478981E-05,23.9625,0,1.5975,1.980621E-05,23.9625,0
1.5984,9.735256E-06,23.976,0,1.5984,1.040665E-05,23.976,0
1.5993,-8.627451E-05,23.9895,0,1.5993,4.061952E-05,23.9895,0
1.6002,-5.270466E-05,24.003,0,1.6002,2.853437E-05,24.003,0
1.6011,7.486076E-05,24.0165,0,1.6011,-2.450599E-05,24.0165,0
1.602,-2.316319E-05,24.03,0,1.602,3.021286E-06,24.03,0
1.6029,-2.920577E-05,24.0435,0,1.6029,2.1149E-05,24.0435,0
1.6038,2.786297E-05,24.057,0,1.6038,-3.659113E-05,24.057,0
1.6047,4.699779E-06,24.0705,0,1.6047,-2.584878E-05,24.0705,0
1.6056,-5.908293E-05,24.084,0,1.6056,-2.014191E-06,24.084,0
1.6065,-7.586786E-05,24.0975,0,1.6065,-4.061952E-05,24.0975,0
1.6074,-2.853437E-05,24.111,0,1.6074,-4.39765E-05,24.111,0
1.6083,7.721065E-06,24.1245,0,1.6083,-5.304036E-05,24.1245,0
1.6092,1.947051E-05,24.138,0,1.6092,-1.879912E-05,24.138,0
1.6101,8.224613E-05,24.1515,0,1.6101,-2.517739E-05,24.1515,0
1.611,4.36408E-05,24.165,0,1.611,-5.975433E-05,24.165,0
1.6119,3.424125E-05,24.1785,0,1.6119,-5.606165E-05,24.1785,0
1.6128,-1.141375E-05,24.192,0,1.6128,-2.786297E-05,24.192,0
1.6137,3.356985E-07,24.2055,0,1.6137,-4.599069E-05,24.2055,0
1.6146,2.584878E-05,24.219,0,1.6146,-8.627451E-05,24.219,0
1.6155,-5.169757E-05,24.2325,0,1.6155,-4.061952E-05,24.2325,0
1.6164,-3.088426E-05,24.246,0,1.6164,-3.424125E-05,24.246,0
1.6173,-4.800488E-05,24.2595,0,1.6173,-6.78111E-05,24.2595,0
1.6182,-2.652018E-05,24.273,0,1.6182,-6.210422E-05,24.273,0
1.6191,-2.853437E-05,24.2865,0,1.6191,-3.692683E-06,24.2865,0
1.62,-4.33051E-05,24.3,0,1.62,-1.913481E-05,24.3,0
1.6209,-2.652018E-05,24.3135,0,1.6209,-3.726253E-05,24.3135,0
1.6218,3.457694E-05,24.327,0,1.6218,-4.095522E-05,24.327,0
1.6227,1.174945E-05,24.3405,0,1.6227,-7.721065E-06,24.3405,0
1.6236,1.141375E-05,24.354,0,1.6236,1.208515E-05,24.354,0
1.6245,2.786297E-05,24.3675,0,1.6245,6.713969E-07,24.3675,0
1.6254,7.049668E-06,24.381,0,1.6254,3.692683E-06,24.381,0
1.6263,-4.800488E-05,24.3945,0,1.6263,5.337606E-05,24.3945,0
1.6272,-1.846342E-05,24.408,0,1.6272,5.035477E-05,24.408,0
1.6281,0.000115816,24.4215,0,1.6281,-6.378271E-06,24.4215,0
1.629,-4.162661E-05,24.435,0,1.629,3.021286E-05,24.435,0
1.6299,-0.000105745,24.4485,0,1.6299,1.947051E-05,24.4485,0
1.6308,-1.107805E-05,24.462,0,1.6308,-2.652018E-05,24.462,0
1.6317,-9.735256E-06,24.4755,0,1.6317,1.510643E-05,24.4755,0
1.6326,-0.0001077592,24.489,0,1.6326,1.510643E-05,24.489,0
1.6335,-4.46479E-05,24.5025,0,1.6335,3.356985E-07,24.5025,0
1.6344,-3.726253E-05,24.516,0,1.6344,4.36408E-06,24.516,0
1.6353,3.524834E-05,24.5295,0,1.6353,-1.980621E-05,24.5295,0
1.6362,8.090334E-05,24.543,0,1.6362,1.309224E-05,24.543,0
1.6371,-5.404745E-05,24.5565,0,1.6371,3.356985E-06,24.5565,0
1.638,-2.316319E-05,24.57,0,1.638,-2.853437E-05,24.57,0
1.6389,2.618448E-05,24.5835,0,1.6389,-2.014191E-05,24.5835,0
1.6398,-5.001907E-05,24.597,0,1.6398,1.174945E-05,24.597,0
1.6407,-1.174945E-05,24.6105,0,1.6407,-1.678492E-06,24.6105,0
1.6416,7.318227E-05,24.624,0,1.6416,-6.881819E-05,24.624,0
1.6425,-3.356985E-07,24.6375,0,1.6425,-1.846342E-05,24.6375,0
1.6434,-1.510643E-05,24.651,0,1.6434,-2.1149E-05,24.651,0
1.6443,5.673304E-05,24.6645,0,1.6443,-6.915389E-05,24.6645,0
1.6452,9.365987E-05,24.678,0,1.6452,-3.121996E-05,24.678,0
1.6461,-4.599069E-05,24.6915,0,1.6461,-8.392462E-06,24.6915,0
1.647,-1.510643E-05,24.705,0,1.647,-2.517739E-05,24.705,0
1.6479,4.599069E-05,24.7185,0,1.6479,-4.061952E-05,24.7185,0
1.6488,3.524834E-05,24.732,0,1.6488,-6.78111E-05,24.732,0
1.6497,1.309224E-05,24.7455,0,1.6497,-3.793393E-05,24.7455,0
1.6506,3.927672E-05,24.759,0,1.6506,-4.901198E-05,24.759,0
1.6515,6.277562E-05,24.7725,0,1.6515,-6.478981E-05,24.7725,0
1.6524,5.706874E-06,24.786,0,1.6524,-7.653925E-05,24.786,0
1.6533,-4.733349E-05,24.7995,0,1.6533,-1.644922E-05,24.7995,0
1.6542,3.289845E-05,24.813,0,1.6542,-3.121996E-05,24.813,0
1.6551,4.46479E-05,24.8265,0,1.6551,-7.956054E-05,24.8265,0
1.656,-3.793393E-05,24.84,0,1.656,-1.644922E-05,24.84,0
1.6569,-5.203327E-05,24.8535,0,1.6569,-7.049668E-06,24.8535,0
1.6578,-2.18204E-05,24.867,0,1.6578,-5.169757E-05,24.867,0
1.6587,4.263371E-05,24.8805,0,1.6587,-2.719158E-05,24.8805,0
1.6596,-3.961242E-05,24.894,0,1.6596,-1.510643E-05,24.894,0
1.6605,-4.229801E-05,24.9075,0,1.6605,-5.740444E-05,24.9075,0
1.6614,-2.316319E-05,24.921,0,1.6614,-6.74754E-05,24.921,0
1.6623,3.121996E-05,24.9345,0,1.6623,-7.586786E-05,24.9345,0
1.6632,5.337606E-05,24.948,0,1.6632,-3.457694E-05,24.948,0
1.6641,-6.210422E-05,24.9615,0,1.6641,-5.203327E-05,24.9615,0
1.665,-1.409934E-05,24.975,0,1.665,-7.284657E-05,24.975,0
1.6659,5.505455E-05,24.9885,0,1.6659,-7.956054E-05,24.9885,0
1.6668,-6.378271E-05,25.002,0,1.6668,-3.591974E-05,25.002,0
1.6677,-6.64683E-05,25.0155,0,1.6677,-4.162661E-05,25.0155,0
1.6686,4.196231E-05,25.029,0,1.6686,-7.620356E-05,25.029,0
1.6695,-7.956054E-05,25.0425,0,1.6695,-5.706874E-06,25.0425,0
1.6704,-0.000126894,25.056,0,1.6704,1.678492E-05,25.056,0
1.6713,-1.107805E-05,25.0695,0,1.6713,-3.659113E-05,25.0695,0
1.6722,-7.754635E-05,25.083,0,1.6722,-2.618448E-05,25.083,0
1.6731,-0.0001144732,25.0965,0,1.6731,-4.36408E-06,25.0965,0
1.674,-6.6804E-05,25.11,0,1.674,-2.853437E-05,25.11,0
1.6749,-7.721065E-06,25.1235,0,1.6749,-2.24918E-05,25.1235,0
1.6758,7.721065E-06,25.137,0,1.6758,-4.095522E-05,25.137,0
1.6767,-2.047761E-05,25.1505,0,1.6767,-1.980621E-05,25.1505,0
1.6776,-7.754635E-05,25.164,0,1.6776,-4.36408E-06,25.164,0
1.6785,-5.807584E-05,25.1775,0,1.6785,-2.887007E-05,25.1775,0
1.6794,1.007095E-05,25.191,0,1.6794,-2.383459E-05,25.191,0
1.6803,-1.510643E-05,25.2045,0,1.6803,2.047761E-05,25.2045,0
1.6812,-5.807584E-05,25.218,0,1.6812,1.174945E-05,25.218,0
1.6821,5.102617E-05,25.2315,0,1.6821,-1.107805E-05,25.2315,0
1.683,2.1149E-05,25.245,0,1.683,4.229801E-05,25.245,0
1.6839,7.385367E-06,25.2585,0,1.6839,3.323415E-05,25.2585,0
1.6848,5.069047E-05,25.272,0,1.6848,-1.678492E-06,25.272,0
1.6857,-2.081331E-05,25.2855,0,1.6857,3.659113E-05,25.2855,0
1.6866,-5.606165E-05,25.299,0,1.6866,5.136187E-05,25.299,0
1.6875,-4.53193E-05,25.3125,0,1.6875,2.18204E-05,25.3125,0
1.6884,-3.021286E-06,25.326,0,1.6884,-2.349889E-06,25.326,0
1.6893,5.807584E-05,25.3395,0,1.6893,-5.706874E-06,25.3395,0
1.6902,-1.678492E-05,25.353,0,1.6902,2.517739E-05,25.353,0
1.6911,4.39765E-05,25.3665,0,1.6911,4.43122E-05,25.3665,0
1.692,6.814679E-05,25.38,0,1.692,5.706874E-06,25.38,0
1.6929,4.666209E-05,25.3935,0,1.6929,1.342794E-06,25.3935,0
1.6938,-3.356985E-05,25.407,0,1.6938,3.692683E-05,25.407,0
1.6947,-4.36408E-06,25.4205,0,1.6947,9.063859E-06,25.4205,0
1.6956,7.687495E-05,25.434,0,1.6956,-4.632639E-05,25.434,0
1.6965,-1.275654E-05,25.4475,0,1.6965,-9.399558E-06,25.4475,0
1.6974,-6.478981E-05,25.461,0,1.6974,-1.376364E-05,25.461,0
1.6983,8.392462E-06,25.4745,0,1.6983,-5.706874E-05,25.4745,0
1.6992,3.457694E-05,25.488,0,1.6992,-3.424125E-05,25.488,0
1.7001,-5.639734E-05,25.5015,0,1.7001,-1.712062E-05,25.5015,0
1.701,-2.786297E-05,25.515,0,1.701,-2.584878E-05,25.515,0
1.7019,1.040665E-05,25.5285,0,1.7019,-3.659113E-05,25.5285,0
1.7028,8.358892E-05,25.542,0,1.7028,-6.478981E-05,25.542,0
1.7037,2.685588E-06,25.5555,0,1.7037,-2.786297E-05,25.5555,0
1.7046,-0.0001349508,25.569,0,1.7046,-2.047761E-05,25.569,0
1.7055,-2.18204E-05,25.5825,0,1.7055,-5.606165E-05,25.5825,0
1.7064,5.606165E-05,25.596,0,1.7064,-6.51255E-05,25.596,0
1.7073,-8.191043E-05,25.6095,0,1.7073,-2.652018E-05,25.6095,0
1.7082,-2.316319E-05,25.623,0,1.7082,-4.095522E-05,25.623,0
1.7091,7.620356E-05,25.6365,0,1.7091,-8.761731E-05,25.6365,0
1.71,-6.713969E-07,25.65,0,1.71,-1.913481E-05,25.65,0
1.7109,-2.014191E-06,25.6635,0,1.7109,-2.551309E-05,25.6635,0
1.7118,0.0001003738,25.677,0,1.7118,-6.009003E-05,25.677,0
1.7127,0.0001285725,25.6905,0,1.7127,-3.054856E-05,25.6905,0
1.7136,-2.349889E-06,25.704,0,1.7136,1.007095E-06,25.704,0
1.7145,2.450599E-05,25.7175,0,1.7145,-4.36408E-06,25.7175,0
1.7154,5.404745E-05,25.731,0,1.7154,-1.812772E-05,25.731,0
1.7163,2.652018E-05,25.7445,0,1.7163,-3.994812E-05,25.7445,0
1.7172,2.652018E-05,25.758,0,1.7172,-1.208515E-05,25.758,0
1.7181,-2.450599E-05,25.7715,0,1.7181,-2.584878E-05,25.7715,0
1.719,-4.934768E-05,25.785,0,1.719,-6.243992E-05,25.785,0
1.7199,-1.678492E-06,25.7985,0,1.7199,-6.311131E-05,25.7985,0
1.7208,-7.989624E-05,25.812,0,1.7208,-1.376364E-05,25.812,0
1.7217,-4.901198E-05,25.8255,0,1.7217,-3.121996E-05,25.8255,0
1.7226,3.558404E-05,25.839,0,1.7226,-5.874724E-05,25.839,0
1.7235,-3.524834E-05,25.8525,0,1.7235,-1.007095E-06,25.8525,0
1.7244,6.277562E-05,25.866,0,1.7244,-1.779202E-05,25.866,0
1.7253,7.486076E-05,25.8795,0,1.7253,-5.236896E-05,25.8795,0
1.7262,3.659113E-05,25.893,0,1.7262,-3.021286E-06,25.893,0
1.7271,2.517739E-05,25.9065,0,1.7271,4.33051E-05,25.9065,0
1.728,-2.21561E-05,25.92,0,1.728,6.713969E-06,25.92,0
1.7289,4.699779E-06,25.9335,0,1.7289,2.014191E-06,25.9335,0
1.7298,6.57969E-05,25.947,0,1.7298,-6.713969E-07,25.947,0
1.7307,-1.544213E-05,25.9605,0,1.7307,1.007095E-05,25.9605,0
1.7316,-0.0001500572,25.974,0,1.7316,1.409934E-05,25.974,0
1.7325,-7.284657E-05,25.9875,0,1.7325,-1.409934E-05,25.9875,0
1.7334,-3.558404E-05,26.001,0,1.7334,-3.994812E-05,26.001,0
1.7343,-8.92958E-05,26.0145,0,1.7343,-2.349889E-06,26.0145,0
1.7352,-6.344701E-05,26.028,0,1.7352,-1.510643E-05,26.028,0
1.7361,7.821774E-05,26.0415,0,1.7361,-7.150377E-05,26.0415,0
1.737,-6.344701E-05,26.055,0,1.737,-4.699779E-06,26.055,0
1.7379,7.721065E-06,26.0685,0,1.7379,9.735256E-06,26.0685,0
1.7388,8.761731E-05,26.082,0,1.7388,-1.409934E-05,26.082,0
1.7397,-5.337606E-05,26.0955,0,1.7397,6.713969E-06,26.0955,0
1.7406,-0.000112459,26.109,0,1.7406,2.920577E-05,26.109,0
1.7415,-4.934768E-05,26.1225,0,1.7415,1.947051E-05,26.1225,0
1.7424,-4.49836E-05,26.136,0,1.7424,1.577783E-05,26.136,0
1.7433,1.309224E-05,26.1495,0,1.7433,-7.721065E-06,26.1495,0
1.7442,3.994812E-05,26.163,0,1.7442,4.53193E-05,26.163,0
1.7451,-9.668116E-05,26.1765,0,1.7451,6.076142E-05,26.1765,0
1.746,-5.606165E-05,26.19,0,1.746,1.678492E-05,26.19,0
1.7469,2.24918E-05,26.2035,0,1.7469,3.121996E-05,26.2035,0
1.7478,-2.652018E-05,26.217,0,1.7478,6.243992E-05,26.217,0
1.7487,-3.860533E-05,26.2305,0,1.7487,2.853437E-05,26.2305,0
1.7496,6.948959E-05,26.244,0,1.7496,-3.356985E-06,26.244,0
1.7505,1.779202E-05,26.2575,0,1.7505,4.263371E-05,26.2575,0
1.7514,5.035477E-06,26.271,0,1.7514,3.860533E-05,26.271,0
1.7523,3.189136E-05,26.2845,0,1.7523,-4.599069E-05,26.2845,0
1.7532,3.793393E-05,26.298,0,1.7532,-3.591974E-05,26.298,0
1.7541,-8.69459E-05,26.3115,0,1.7541,-1.644922E-05,26.3115,0
1.755,-5.673304E-05,26.325,0,1.755,-5.438316E-05,26.325,0
1.7559,2.920577E-05,26.3385,0,1.7559,-5.841154E-05,26.3385,0
1.7568,2.081331E-05,26.352,0,1.7568,-9.097429E-05,26.352,0
1.7577,3.356985E-06,26.3655,0,1.7577,-5.505455E-05,26.3655,0
1.7586,-1.980621E-05,26.379,0,1.7586,-4.800488E-05,26.379,0
1.7595,-6.378271E-06,26.3925,0,1.7595,-9.433127E-05,26.3925,0
1.7604,-2.584878E-05,26.406,0,1.7604,-0.0001134661,26.406,0
1.7613,-7.418937E-05,26.4195,0,1.7613,-6.478981E-05,26.4195,0
1.7622,-1.409934E-05,26.433,0,1.7622,-8.493171E-05,26.433,0
1.7631,2.24918E-05,26.4465,0,1.7631,-0.0001097734,26.4465,0
1.764,-1.644922E-05,26.46,0,1.764,-5.606165E-05,26.46,0
1.7649,3.726253E-05,26.4735,0,1.7649,-4.968337E-05,26.4735,0
1.7658,3.054856E-05,26.487,0,1.7658,-6.51255E-05,26.487,0
1.7667,1.174945E-05,26.5005,0,1.7667,-3.289845E-05,26.5005,0
1.7676,-4.934768E-05,26.514,0,1.7676,-1.678492E-06,26.514,0
1.7685,-2.383459E-05,26.5275,0,1.7685,-1.812772E-05,26.5275,0
1.7694,-1.678492E-06,26.541,0,1.7694,-2.316319E-05,26.541,0
1.7703,3.189136E-05,26.5545,0,1.7703,-3.591974E-05,26.5545,0
1.7712,4.800488E-05,26.568,0,1.7712,1.007095E-06,26.568,0
1.7721,-7.888914E-05,26.5815,0,1.7721,-9.063859E-06,26.5815,0
1.773,-3.390555E-05,26.595,0,1.773,-3.189136E-05,26.595,0
1.7739,5.471885E-05,26.6085,0,1.7739,-2.014191E-05,26.6085,0
1.7748,-6.478981E-05,26.622,0,1.7748,4.666209E-05,26.622,0
1.7757,-4.632639E-05,26.6355,0,1.7757,2.24918E-05,26.6355,0
1.7766,6.915389E-05,26.649,0,1.7766,-2.484169E-05,26.649,0
1.7775,-7.721065E-06,26.6625,0,1.7775,3.491264E-05,26.6625,0
1.7784,1.309224E-05,26.676,0,1.7784,6.74754E-05,26.676,0
1.7793,6.009003E-05,26.6895,0,1.7793,1.174945E-05,26.6895,0
1.7802,-2.652018E-05,26.703,0,1.7802,1.544213E-05,26.703,0
1.7811,-8.325322E-05,26.7165,0,1.7811,3.457694E-05,26.7165,0
1.782,-5.337606E-05,26.73,0,1.782,-1.040665E-05,26.73,0
1.7829,1.745632E-05,26.7435,0,1.7829,-3.021286E-06,26.7435,0
1.7838,2.954147E-05,26.757,0,1.7838,-3.726253E-05,26.757,0
1.7847,1.779202E-05,26.7705,0,1.7847,-6.713969E-07,26.7705,0
1.7856,-4.263371E-05,26.784,0,1.7856,1.007095E-06,26.784,0
1.7865,-3.457694E-05,26.7975,0,1.7865,-4.733349E-05,26.7975,0
1.7874,5.337606E-05,26.811,0,1.7874,-4.095522E-05,26.811,0
1.7883,-1.510643E-05,26.8245,0,1.7883,4.36408E-06,26.8245,0
1.7892,-4.33051E-05,26.838,0,1.7892,-2.719158E-05,26.838,0
1.7901,4.263371E-05,26.8515,0,1.7901,-5.874724E-05,26.8515,0
1.791,-5.706874E-06,26.865,0,1.791,-2.18204E-05,26.865,0
1.7919,-3.726253E-05,26.8785,0,1.7919,-1.544213E-05,26.8785,0
1.7928,-7.721065E-06,26.892,0,1.7928,-6.74754E-05,26.892,0
1.7937,2.887007E-05,26.9055,0,1.7937,-3.793393E-05,26.9055,0
1.7946,-7.150377E-05,26.919,0,1.7946,1.342794E-06,26.919,0
1.7955,-5.606165E-05,26.9325,0,1.7955,-8.392462E-06,26.9325,0
1.7964,8.392462E-06,26.946,0,1.7964,-2.819867E-05,26.946,0
1.7973,5.606165E-05,26.9595,0,1.7973,-4.36408E-05,26.9595,0
1.7982,8.728161E-06,26.973,0,1.7982,-2.24918E-05,26.973,0
1.7991,-1.947051E-05,26.9865,0,1.7991,-7.049668E-06,26.9865,0
1.8,2.484169E-05,27,0,1.8,-2.450599E-05,27,0
1.8009,1.678492E-05,27.0135,0,1.8009,-5.371176E-05,27.0135,0
1.8018,-3.726253E-05,27.027,0,1.8018,-5.035477E-06,27.027,0
1.8027,-8.728161E-06,27.0405,0,1.8027,-1.510643E-05,27.0405,0
1.8036,9.365987E-05,27.054,0,1.8036,-4.599069E-05,27.054,0
1.8045,-1.107805E-05,27.0675,0,1.8045,1.107805E-05,27.0675,0
1.8054,2.987716E-05,27.081,0,1.8054,1.443504E-05,27.081,0
1.8063,7.754635E-05,27.0945,0,1.8063,-3.189136E-05,27.0945,0
1.8072,-1.376364E-05,27.108,0,1.8072,4.699779E-06,27.108,0
1.8081,-6.076142E-05,27.1215,0,1.8081,1.779202E-05,27.1215,0
1.809,-2.349889E-06,27.135,0,1.809,-4.028382E-06,27.135,0
1.8099,-2.18204E-05,27.1485,0,1.8099,-5.035477E-06,27.1485,0
1.8108,3.155566E-05,27.162,0,1.8108,-1.275654E-05,27.162,0
1.8117,-7.049668E-06,27.1755,0,1.8117,5.706874E-06,27.1755,0
1.8126,-0.000105745,27.189,0,1.8126,-2.349889E-06,27.189,0
1.8135,-2.014191E-06,27.2025,0,1.8135,-1.678492E-05,27.2025,0
1.8144,1.712062E-05,27.216,0,1.8144,-1.510643E-05,27.216,0
1.8153,-0.0001211871,27.2295,0,1.8153,1.107805E-05,27.2295,0
1.8162,-7.318227E-05,27.243,0,1.8162,-8.728161E-06,27.243,0
1.8171,3.524834E-05,27.2565,0,1.8171,-3.994812E-05,27.2565,0
1.818,-1.678492E-05,27.27,0,1.818,0,27.27,0
