X[s],"Trigno IM sensor 3: EMG 3 (IM)",X[s],"Trigno IM sensor 3: Mag 3.Z (IM)",X[s],"Trigno IM sensor 4: EMG 4 (IM)",X[s],"Trigno IM sensor 4: Mag 4.Z (IM)"
0.000000,-7.721065E-06,0.000000,47,0.000000,-5.371176E-06,0.000000,98
0.0009,-6.176852E-05,0.0135,48,0.0009,1.409934E-05,0.0135,103
0.0018,-6.74754E-05,0.027,48,0.0018,7.049668E-06,0.027,97
0.0027,2.618448E-05,0.0405,47,0.0027,-3.256275E-05,0.0405,101
0.0036,3.356985E-07,0.054,48,0.0036,-5.673304E-05,0.054,100
0.0045,-9.063859E-06,0.0675,48,0.0045,-1.779202E-05,0.0675,97
0.0054,-8.392462E-06,0.081,47,0.0054,-0.0001174945,0.081,98
0.0063,-9.298848E-05,0.0945,46,0.0063,-0.0001027237,0.0945,101
0.0072,-0.0001386435,0.108,46,0.0072,-8.123904E-05,0.108,98
0.0081,-0.0001094377,0.1215,47,0.0081,-0.000112459,0.1215,98
0.009000001,-8.493171E-05,0.135,47,0.009000001,-0.0001262226,0.135,97
0.0099,-0.0001940337,0.1485,46,0.0099,-0.0001775845,0.1485,100
0.0108,-0.0002155184,0.162,46,0.0108,-0.0002621805,0.162,98
0.0117,-6.143282E-05,0.1755,46,0.0117,-0.000164828,0.1755,97
0.0126,-2.652018E-05,0.189,45,0.0126,5.035477E-06,0.189,99
0.0135,1.007095E-06,0.2025,46,0.0135,6.344701E-05,0.2025,100
0.0144,6.881819E-05,0.216,46,0.0144,7.150377E-05,0.216,97
0.0153,6.478981E-05,0.2295,45,0.0153,4.867628E-05,0.2295,99
0.0162,3.323415E-05,0.243,45,0.0162,-0.0001238727,0.243,99
0.0171,-2.987716E-05,0.2565,46,0.0171,-0.0002396887,0.2565,100
0.018,-8.123904E-05,0.27,46,0.018,-0.0002145113,0.27,100
0.0189,-2.24918E-05,0.2835,46,0.0189,-0.000200412,0.2835,102
0.0198,1.980621E-05,0.297,46,0.0198,-0.0001332723,0.297,98
0.0207,4.666209E-05,0.3105,45,0.0207,0.000109102,0.3105,99
0.0216,-1.040665E-05,0.324,46,0.0216,0.0004441291,0.324,99
0.0225,1.376364E-05,0.3375,44,0.0225,0.000327306,0.3375,101
0.0234,8.96315E-05,0.351,46,0.0234,0.0001279011,0.351,100
0.0243,3.323415E-05,0.3645,46,0.0243,9.668116E-05,0.3645,99
0.0252,2.349889E-06,0.378,46,0.0252,2.652018E-05,0.378,99
0.0261,-1.779202E-05,0.3915,46,0.0261,-7.049668E-06,0.3915,98
0.027,-7.586786E-05,0.405,46,0.027,-2.28275E-05,0.405,98
0.0279,-0.0001084306,0.4185,46,0.0279,-4.934768E-05,0.4185,100
0.0288,-1.779202E-05,0.432,45,0.0288,-0.0001000381,0.432,98
0.0297,3.021286E-06,0.4455,46,0.0297,-8.82887E-05,0.4455,99
0.0306,0.0001218585,0.459,46,0.0306,8.728161E-06,0.459,101
0.0315,0.0002259251,0.4725,46,0.0315,4.229801E-05,0.4725,99
0.0324,0.0002487526,0.486,46,0.0324,1.007095E-06,0.486,103
0.0333,0.0002074617,0.4995,44,0.0333,3.054856E-05,0.4995,102
0.0342,0.0001688563,0.513,45,0.0342,3.021286E-06,0.513,101
0.0351,0.0001379721,0.5265,44,0.0351,-5.706874E-06,0.5265,100
0.036,6.378271E-06,0.54,46,0.036,5.035477E-05,0.54,99
0.0369,-3.994812E-05,0.5535,45,0.0369,1.040665E-05,0.5535,98
0.0378,-1.342794E-05,0.567,45,0.0378,-5.371176E-05,0.567,101
0.0387,-0.0001242084,0.5805,44,0.0387,-2.450599E-05,0.5805,102
0.0396,-0.0001507286,0.594,44,0.0396,-3.054856E-05,0.594,104
0.0405,-1.913481E-05,0.6075,44,0.0405,-3.927672E-05,0.6075,100
0.0414,-2.047761E-05,0.621,45,0.0414,-3.054856E-05,0.621,97
0.0423,3.692683E-06,0.6345,45,0.0423,-4.43122E-05,0.6345,103
0.0432,3.189136E-05,0.648,45,0.0432,1.040665E-05,0.648,100
0.0441,3.994812E-05,0.6615,43,0.0441,7.721065E-06,0.6615,99
0.045,9.735256E-06,0.675,44,0.045,-1.846342E-05,0.675,98
0.0459,-1.678492E-06,0.6885,44,0.0459,-5.941863E-05,0.6885,99
0.0468,-9.365987E-05,0.702,43,0.0468,-4.095522E-05,0.702,101
0.0477,-0.0001440146,0.7155,45,0.0477,-2.18204E-05,0.7155,101
0.0486,-5.404745E-05,0.729,44,0.0486,-8.627451E-05,0.729,97
0.0495,-7.486076E-05,0.7425,44,0.0495,2.047761E-05,0.7425,101
0.0504,-0.0001554284,0.756,44,0.0504,1.309224E-05,0.756,97
0.0513,-9.634547E-05,0.7695,44,0.0513,-4.901198E-05,0.7695,100
0.0522,-5.236896E-05,0.783,44,0.0522,-7.855344E-05,0.783,99
0.0531,-0.0001366293,0.7965,43,0.0531,-0.0001265583,0.7965,103
0.054,-5.606165E-05,0.81,42,0.054,-0.0001500572,0.81,100
0.0549,-2.517739E-05,0.8235,43,0.0549,-0.0001453574,0.8235,98
0.0558,5.136187E-05,0.837,44,0.0558,-0.0001658351,0.837,97
0.0567,5.941863E-05,0.8505,43,0.0567,5.304036E-05,0.8505,97
0.0576,6.54612E-05,0.864,45,0.0576,0.0002212253,0.864,98
0.0585,6.411841E-05,0.8775,44,0.0585,0.0002168612,0.8775,102
0.0594,5.337606E-05,0.891,43,0.0594,0.0001493858,0.891,102
0.0603,1.779202E-05,0.9045,44,0.0603,0.0001950408,0.9045,103
0.0612,2.1149E-05,0.918,44,0.0612,0.0001681849,0.918,101
0.0621,-1.242084E-05,0.9315,43,0.0621,0.0001094377,0.9315,97
0.063,-9.231708E-05,0.945,43,0.063,0.0001030594,0.945,96
0.0639,-7.083238E-05,0.9585,44,0.0639,6.009003E-05,0.9585,97
0.0648,-5.304036E-05,0.972,44,0.0648,5.740444E-05,0.972,98
0.0657,-3.524834E-05,0.9855,43,0.0657,2.920577E-05,0.9855,98
0.0666,-2.987716E-05,0.999,43,0.0666,1.846342E-05,0.999,100
0.0675,1.040665E-05,1.0125,44,0.0675,-4.129091E-05,1.0125,97
0.0684,-2.987716E-05,1.026,44,0.0684,-7.284657E-05,1.026,97
0.0693,-9.399558E-06,1.0395,45,0.0693,-0.0001185016,1.0395,97
0.0702,-1.644922E-05,1.053,44,0.0702,-0.0001242084,1.053,98
0.0711,-1.409934E-05,1.0665,43,0.0711,-6.74754E-05,1.0665,101
0.072,3.659113E-05,1.08,44,0.072,-8.526741E-05,1.08,99
0.0729,5.404745E-05,1.0935,46,0.0729,-0.0001164874,1.0935,101
0.07380001,-2.685588E-05,1.107,45,0.07380001,-0.0001148089,1.107,102
0.07470001,2.047761E-05,1.1205,46,0.07470001,-0.0001326009,1.1205,99
0.0756,0.0001117876,1.134,43,0.0756,-0.0001279011,1.134,98
0.0765,1.141375E-05,1.1475,44,0.0765,-8.258183E-05,1.1475,98
0.0774,2.987716E-05,1.161,44,0.0774,-5.874724E-05,1.161,100
0.0783,7.150377E-05,1.1745,44,0.0783,-7.016098E-05,1.1745,99
0.0792,5.539025E-05,1.188,45,0.0792,-7.821774E-05,1.188,100
0.0801,-4.666209E-05,1.2015,44,0.0801,-0.0001131304,1.2015,101
0.081,-2.450599E-05,1.215,44,0.081,-0.0001876554,1.215,102
0.0819,-4.46479E-05,1.2285,45,0.0819,-0.0002326391,1.2285,102
0.0828,-8.69459E-05,1.242,45,0.0828,-0.0001735561,1.242,97
0.0837,-7.553216E-05,1.2555,44,0.0837,2.987716E-05,1.2555,98
0.0846,-9.164568E-05,1.269,44,0.0846,0.0001393149,1.269,98
0.0855,-0.0001127947,1.2825,45,0.0855,7.922484E-05,1.2825,98
0.0864,-9.231708E-05,1.296,43,0.0864,0.000112459,1.296,98
0.0873,-8.92958E-05,1.3095,44,0.0873,0.0001765774,1.3095,103
0.0882,-5.035477E-06,1.323,45,0.0882,0.0001628138,1.323,101
0.0891,0.0001473716,1.3365,45,0.0891,1.980621E-05,1.3365,102
0.09,4.867628E-05,1.35,46,0.09,3.558404E-05,1.35,98
0.0909,9.063859E-06,1.3635,45,0.0909,5.404745E-05,1.3635,101
0.0918,-3.021286E-06,1.377,44,0.0918,3.726253E-05,1.377,99
0.0927,-1.007095E-06,1.3905,44,0.0927,4.33051E-05,1.3905,101
0.0936,-6.478981E-05,1.404,45,0.0936,2.652018E-05,1.404,101
0.09450001,-1.712062E-05,1.4175,46,0.09450001,7.721065E-06,1.4175,98
0.09540001,9.735256E-06,1.431,46,0.09540001,-9.735256E-06,1.431,100
0.09630001,-2.21561E-05,1.4445,46,0.09630001,-4.39765E-05,1.4445,101
0.0972,-8.82887E-05,1.458,45,0.0972,-5.236896E-05,1.458,102
0.0981,-0.0001097734,1.4715,44,0.0981,-6.344701E-05,1.4715,104
0.099,-6.64683E-05,1.485,45,0.099,-7.351797E-05,1.485,101
0.0999,-2.450599E-05,1.4985,45,0.0999,-9.600977E-05,1.4985,98
0.1008,-2.719158E-05,1.512,46,0.1008,-9.835965E-05,1.512,101
0.1017,-1.980621E-05,1.5255,45,0.1017,-8.82887E-05,1.5255,100
0.1026,0.0001030594,1.539,45,0.1026,-9.701686E-05,1.539,99
0.1035,4.196231E-05,1.5525,45,0.1035,-0.0001104448,1.5525,101
0.1044,8.560311E-05,1.566,45,0.1044,-0.0001265583,1.566,98
0.1053,0.0001198444,1.5795,46,0.1053,-0.0001282368,1.5795,98
0.1062,8.358892E-05,1.593,45,0.1062,-7.989624E-05,1.593,99
0.1071,7.418937E-05,1.6065,44,0.1071,-2.316319E-05,1.6065,101
0.108,7.620356E-05,1.62,43,0.108,-5.035477E-06,1.62,101
0.1089,2.24918E-05,1.6335,45,0.1089,-9.063859E-06,1.6335,101
0.1098,1.544213E-05,1.647,44,0.1098,-5.572595E-05,1.647,105
0.1107,1.913481E-05,1.6605,43,0.1107,-4.028382E-05,1.6605,102
0.1116,-8.358892E-05,1.674,44,0.1116,-2.28275E-05,1.674,102
0.1125,-4.061952E-05,1.6875,45,0.1125,-8.392462E-06,1.6875,103
0.1134,-1.812772E-05,1.701,44,0.1134,4.699779E-06,1.701,100
0.1143,-6.6804E-05,1.7145,43,0.1143,3.927672E-05,1.7145,106
0.1152,-8.459602E-05,1.728,44,0.1152,1.443504E-05,1.728,103
0.1161,-5.539025E-05,1.7415,44,0.1161,-6.076142E-05,1.7415,102
0.117,-0.0001201801,1.755,45,0.117,-5.572595E-05,1.755,99
0.1179,-0.0001064164,1.7685,44,0.1179,-5.404745E-05,1.7685,103
0.1188,-3.189136E-05,1.782,45,0.1188,-4.766919E-05,1.782,102
0.1197,3.189136E-05,1.7955,44,0.1197,5.371176E-06,1.7955,103
0.1206,6.143282E-05,1.809,45,0.1206,3.323415E-05,1.809,104
0.1215,0.0001000381,1.8225,44,0.1215,-3.256275E-05,1.8225,105
0.1224,6.915389E-05,1.836,45,0.1224,-9.030289E-05,1.836,102
0.1233,3.591974E-05,1.8495,45,0.1233,-4.33051E-05,1.8495,102
0.1242,2.383459E-05,1.863,45,0.1242,1.477073E-05,1.863,99
0.1251,-2.081331E-05,1.8765,45,0.1251,1.611353E-05,1.8765,101
0.126,3.457694E-05,1.89,46,0.126,8.69459E-05,1.89,101
0.1269,5.874724E-05,1.9035,45,0.1269,0.0002353246,1.9035,104
0.1278,1.107805E-05,1.917,45,0.1278,0.0001762417,1.917,101
0.1287,8.92958E-05,1.9305,44,0.1287,3.860533E-05,1.9305,104
0.1296,2.517739E-05,1.944,45,0.1296,-7.687495E-05,1.944,102
0.1305,-8.358892E-05,1.9575,44,0.1305,-0.0001131304,1.9575,103
0.1314,-2.316319E-05,1.971,44,0.1314,-0.0001701991,1.971,104
0.1323,3.558404E-05,1.9845,43,0.1323,-0.0001806058,1.9845,104
0.1332,5.203327E-05,1.998,43,0.1332,-0.0001121233,1.998,105
0.1341,-3.659113E-05,2.0115,41,0.1341,8.157473E-05,2.0115,106
0.135,-3.994812E-05,2.025,42,0.135,0.0002477455,2.025,104
0.1359,-1.242084E-05,2.0385,43,0.1359,0.0002333104,2.0385,106
0.1368,4.129091E-05,2.052,42,0.1368,7.284657E-05,2.052,106
0.1377,-6.378271E-06,2.0655,42,0.1377,3.793393E-05,2.0655,106
0.1386,-6.74754E-05,2.079,41,0.1386,9.063859E-06,2.079,105
0.1395,-4.196231E-05,2.0925,40,0.1395,-7.183947E-05,2.0925,107
0.1404,6.713969E-06,2.106,41,0.1404,-7.553216E-05,2.106,106
0.1413,-4.33051E-05,2.1195,42,0.1413,-5.404745E-05,2.1195,103
0.1422,-1.208515E-05,2.133,40,0.1422,-9.063859E-05,2.133,104
0.1431,7.486076E-05,2.1465,40,0.1431,-6.64683E-05,2.1465,107
0.144,-2.618448E-05,2.16,41,0.144,3.323415E-05,2.16,101
0.1449,-3.659113E-05,2.1735,39,0.1449,6.009003E-05,2.1735,107
0.1458,-2.987716E-05,2.187,40,0.1458,-1.611353E-05,2.187,106
0.1467,-4.599069E-05,2.2005,40,0.1467,-2.349889E-05,2.2005,106
0.1476,-0.0001138018,2.214,41,0.1476,-2.417029E-05,2.214,103
0.1485,-5.874724E-05,2.2275,41,0.1485,-7.116808E-05,2.2275,105
0.1494,3.323415E-05,2.241,40,0.1494,-9.399557E-05,2.241,107
0.1503,0.0001386435,2.2545,39,0.1503,-2.819867E-05,2.2545,106
0.1512,0.0001332723,2.268,41,0.1512,-1.577783E-05,2.268,103
0.1521,8.157473E-05,2.2815,42,0.1521,8.392462E-06,2.2815,104
0.153,1.846342E-05,2.295,42,0.153,-4.028382E-05,2.295,108
0.1539,-1.242084E-05,2.3085,42,0.1539,-0.0001134661,2.3085,105
0.1548,-6.378271E-05,2.322,44,0.1548,-0.0001141375,2.322,104
0.1557,-8.89601E-05,2.3355,42,0.1557,-8.795301E-05,2.3355,105
0.1566,-7.620356E-05,2.349,44,0.1566,-6.6804E-05,2.349,105
0.1575,-0.0001319295,2.3625,42,0.1575,6.378271E-06,2.3625,108
0.1584,-0.0001577783,2.376,42,0.1584,9.634547E-05,2.376,107
0.1593,-7.754635E-05,2.3895,43,0.1593,0.0001443503,2.3895,108
0.1602,-1.342794E-05,2.403,41,0.1602,0.0001621424,2.403,107
0.1611,-1.242084E-05,2.4165,42,0.1611,0.0001305867,2.4165,107
0.162,3.323415E-05,2.43,42,0.162,5.505455E-05,2.43,103
0.1629,2.450599E-05,2.4435,43,0.1629,2.1149E-05,2.4435,105
0.1638,2.652018E-05,2.457,42,0.1638,-2.853437E-05,2.457,108
0.1647,-4.46479E-05,2.4705,42,0.1647,-1.779202E-05,2.4705,103
0.1656,-5.807584E-05,2.484,42,0.1656,-3.491264E-05,2.484,104
0.1665,-2.618448E-05,2.4975,43,0.1665,-6.210422E-05,2.4975,104
0.1674,-1.376364E-05,2.511,44,0.1674,-6.848249E-05,2.511,106
0.1683,-6.78111E-05,2.5245,44,0.1683,-5.941863E-05,2.5245,102
0.1692,-8.426032E-05,2.538,43,0.1692,-6.478981E-05,2.538,106
0.1701,-4.867628E-05,2.5515,43,0.1701,-0.0001037308,2.5515,102
0.171,-7.452507E-05,2.565,44,0.171,-5.941863E-05,2.565,101
0.1719,-2.349889E-06,2.5785,44,0.1719,-4.867628E-05,2.5785,102
0.1728,4.229801E-05,2.592,43,0.1728,-9.936675E-05,2.592,102
0.1737,9.063859E-06,2.6055,42,0.1737,-0.000197055,2.6055,105
0.1746,-2.484169E-05,2.619,43,0.1746,-0.0002809796,2.619,103
0.1755,8.123904E-05,2.6325,45,0.1755,-0.0002554666,2.6325,106
0.1764,0.0001007095,2.646,45,0.1764,-0.0001980621,2.646,105
0.1773,0.0001420005,2.6595,45,0.1773,-0.0001832914,2.6595,105
0.1782,0.0001232013,2.673,45,0.1782,-5.975433E-05,2.673,103
0.1791,5.941863E-05,2.6865,45,0.1791,0.0001366293,2.6865,107
0.18,6.6804E-05,2.7,43,0.18,0.0001668421,2.7,104
0.1809,1.846342E-05,2.7135,45,0.1809,9.634547E-05,2.7135,103
0.1818,-7.217517E-05,2.727,43,0.1818,0.0002104829,2.727,102
0.1827,-3.860533E-05,2.7405,45,0.1827,0.0001607996,2.7405,106
0.1836,3.256275E-05,2.754,44,0.1836,5.706874E-05,2.754,104
0.1845,-4.867628E-05,2.7675,46,0.1845,0.0001339437,2.7675,106
0.1854,3.155566E-05,2.781,46,0.1854,5.606165E-05,2.781,103
0.1863,0.0001379721,2.7945,46,0.1863,5.035477E-06,2.7945,104
0.1872,6.009003E-05,2.808,45,0.1872,-2.853437E-05,2.808,102
0.1881,-4.53193E-05,2.8215,46,0.1881,-7.116808E-05,2.8215,103
0.189,7.721065E-06,2.835,46,0.189,-4.599069E-05,2.835,103
0.1899,-1.577783E-05,2.8485,46,0.1899,-6.243992E-05,2.8485,104
0.1908,-7.721065E-06,2.862,46,0.1908,-6.6804E-05,2.862,101
0.1917,6.009003E-05,2.8755,45,0.1917,-2.920577E-05,2.8755,104
0.1926,7.217517E-05,2.889,45,0.1926,-3.256275E-05,2.889,103
0.1935,4.666209E-05,2.9025,45,0.1935,-5.539025E-05,2.9025,104
0.1944,-1.007095E-05,2.916,45,0.1944,-4.43122E-05,2.916,105
0.1953,-0.0001198444,2.9295,45,0.1953,-2.652018E-05,2.9295,103
0.1962,-8.392462E-05,2.943,45,0.1962,-8.224613E-05,2.943,103
0.1971,-7.385367E-06,2.9565,45,0.1971,-0.0001440146,2.9565,102
0.198,-7.754635E-05,2.97,45,0.198,-0.0001030594,2.97,104
0.1989,-0.0001577783,2.9835,43,0.1989,-7.754635E-05,2.9835,103
0.1998,-0.0001510643,2.997,44,0.1998,-8.761731E-05,2.997,104
0.2007,-6.814679E-05,3.0105,0,0.2007,-3.826963E-05,3.0105,0
0.2016,-8.493171E-05,3.024,0,0.2016,4.162661E-05,3.024,0
0.2025,-0.0001332723,3.0375,0,0.2025,0.0001473716,3.0375,0
0.2034,-0.0001248798,3.051,0,0.2034,9.231708E-05,3.051,0
0.2043,-6.6804E-05,3.0645,0,0.2043,1.712062E-05,3.0645,0
0.2052,-4.699779E-05,3.078,0,0.2052,-1.846342E-05,3.078,0
0.2061,-1.644922E-05,3.0915,0,0.2061,4.33051E-05,3.0915,0
0.207,-2.987716E-05,3.105,0,0.207,1.040665E-05,3.105,0
0.2079,-4.934768E-05,3.1185,0,0.2079,-2.517739E-05,3.1185,0
0.2088,-9.097429E-05,3.132,0,0.2088,1.577783E-05,3.132,0
0.2097,-6.042573E-05,3.1455,0,0.2097,-0.0001161517,3.1455,0
0.2106,8.358892E-05,3.159,0,0.2106,-0.0001406577,3.159,0
0.2115,6.61326E-05,3.1725,0,0.2115,-3.021286E-05,3.1725,0
0.2124,9.634547E-05,3.186,0,0.2124,1.577783E-05,3.186,0
0.2133,6.848249E-05,3.1995,0,0.2133,-1.644922E-05,3.1995,0
0.2142,3.021286E-06,3.213,0,0.2142,-4.49836E-05,3.213,0
0.2151,-3.826963E-05,3.2265,0,0.2151,9.735256E-06,3.2265,0
0.216,-2.719158E-05,3.24,0,0.216,-3.121996E-05,3.24,0
0.2169,-4.196231E-05,3.2535,0,0.2169,-4.229801E-05,3.2535,0
0.2178,3.021286E-06,3.267,0,0.2178,-4.46479E-05,3.267,0
0.2187,-1.947051E-05,3.2805,0,0.2187,-2.417029E-05,3.2805,0
0.2196,-5.975433E-05,3.294,0,0.2196,4.867628E-05,3.294,0
0.2205,3.189136E-05,3.3075,0,0.2205,9.768826E-05,3.3075,0
0.2214,7.083238E-05,3.321,0,0.2214,6.51255E-05,3.321,0
0.2223,-1.376364E-05,3.3345,0,0.2223,7.620356E-05,3.3345,0
0.2232,6.713969E-06,3.348,0,0.2232,7.183947E-05,3.348,0
0.2241,0.0001037308,3.3615,0,0.2241,4.39765E-05,3.3615,0
0.225,-1.376364E-05,3.375,0,0.225,8.023193E-05,3.375,0
0.2259,-4.599069E-05,3.3885,0,0.2259,6.277562E-05,3.3885,0
0.2268,-2.047761E-05,3.402,0,0.2268,-2.719158E-05,3.402,0
0.2277,-2.618448E-05,3.4155,0,0.2277,-5.304036E-05,3.4155,0
0.2286,-7.721065E-05,3.429,0,0.2286,-5.035477E-05,3.429,0
0.2295,-5.572595E-05,3.4425,0,0.2295,-7.922484E-05,3.4425,0
0.2304,-2.24918E-05,3.456,0,0.2304,-7.888914E-05,3.456,0
0.2313,2.517739E-05,3.4695,0,0.2313,-9.936675E-05,3.4695,0
0.2322,1.577783E-05,3.483,0,0.2322,-7.318227E-05,3.483,0
0.2331,9.365987E-05,3.4965,0,0.2331,-7.721065E-06,3.4965,0
0.234,9.701686E-05,3.51,0,0.234,-2.18204E-05,3.51,0
0.2349,6.61326E-05,3.5235,0,0.2349,-7.150377E-05,3.5235,0
0.2358,5.539025E-05,3.537,0,0.2358,-6.445411E-05,3.537,0
0.2367,9.164568E-05,3.5505,0,0.2367,-5.404745E-05,3.5505,0
0.2376,0.0001225299,3.564,0,0.2376,-7.251087E-05,3.564,0
0.2385,4.800488E-05,3.5775,0,0.2385,1.007095E-06,3.5775,0
0.2394,-1.947051E-05,3.591,0,0.2394,1.007095E-06,3.591,0
0.2403,3.894102E-05,3.6045,0,0.2403,-8.023193E-05,3.6045,0
0.2412,5.270466E-05,3.618,0,0.2412,-3.256275E-05,3.618,0
0.2421,-4.934768E-05,3.6315,0,0.2421,3.692683E-06,3.6315,0
0.243,-1.007095E-06,3.645,0,0.243,-5.941863E-05,3.645,0
0.2439,4.263371E-05,3.6585,0,0.2439,-6.915389E-05,3.6585,0
0.2448,9.634547E-05,3.672,0,0.2448,-7.418937E-05,3.672,0
0.2457,8.358892E-05,3.6855,0,0.2457,-2.920577E-05,3.6855,0
0.2466,-1.477073E-05,3.699,0,0.2466,-4.53193E-05,3.699,0
0.2475,-2.28275E-05,3.7125,0,0.2475,-6.076142E-05,3.7125,0
0.2484,4.129091E-05,3.726,0,0.2484,8.92958E-05,3.726,0
0.2493,0.0001040665,3.7395,0,0.2493,0.0001658351,3.7395,0
0.2502,0.0001836271,3.753,0,0.2502,9.198138E-05,3.753,0
0.2511,8.82887E-05,3.7665,0,0.2511,5.337606E-05,3.7665,0
0.252,-4.867628E-05,3.78,0,0.252,0.0001352865,3.78,0
0.2529,-2.047761E-05,3.7935,0,0.2529,4.46479E-05,3.7935,0
0.2538,-1.544213E-05,3.807,0,0.2538,-4.867628E-05,3.807,0
0.2547,-4.162661E-05,3.8205,0,0.2547,-2.584878E-05,3.8205,0
0.2556,-0.000109102,3.834,0,0.2556,2.349889E-05,3.834,0
0.2565,-8.560311E-05,3.8475,0,0.2565,-1.712062E-05,3.8475,0
0.2574,-8.761731E-05,3.861,0,0.2574,-2.484169E-05,3.861,0
0.2583,-5.941863E-05,3.8745,0,0.2583,-5.169757E-05,3.8745,0
0.2592,-5.606165E-05,3.888,0,0.2592,-5.606165E-05,3.888,0
0.2601,-0.0001144732,3.9015,0,0.2601,-2.551309E-05,3.9015,0
0.261,-9.701686E-05,3.915,0,0.261,-5.304036E-05,3.915,0
0.2619,-6.6804E-05,3.9285,0,0.2619,-5.975433E-05,3.9285,0
0.2628,-0.0001594568,3.942,0,0.2628,-1.577783E-05,3.942,0
0.2637,-0.0001594568,3.9555,0,0.2637,-2.719158E-05,3.9555,0
0.2646,-5.404745E-05,3.969,0,0.2646,-7.150377E-05,3.969,0
0.2655,-0.0001037308,3.9825,0,0.2655,-5.941863E-05,3.9825,0
0.2664,-0.0001010452,3.996,0,0.2664,-4.061952E-05,3.996,0
0.2673,4.263371E-05,4.0095,0,0.2673,-4.934768E-05,4.0095,0
0.2682,9.198138E-05,4.023,0,0.2682,-3.390555E-05,4.023,0
0.2691,8.392462E-06,4.0365,0,0.2691,-4.196231E-05,4.0365,0
0.27,3.692683E-06,4.05,0,0.27,-7.721065E-05,4.05,0
0.2709,5.069047E-05,4.0635,0,0.2709,-0.0001248798,4.0635,0
0.2718,4.934768E-05,4.077,0,0.2718,-0.0001386435,4.077,0
0.2727,-3.860533E-05,4.0905,0,0.2727,-0.0001134661,4.0905,0
0.2736,-8.92958E-05,4.104,0,0.2736,-3.054856E-05,4.104,0
0.2745,1.712062E-05,4.1175,0,0.2745,-1.007095E-06,4.1175,0
0.2754,6.54612E-05,4.131,0,0.2754,-2.987716E-05,4.131,0
0.2763,1.812772E-05,4.1445,0,0.2763,7.721065E-06,4.1445,0
0.2772,3.356985E-06,4.158,0,0.2772,-2.081331E-05,4.158,0
0.2781,9.063859E-06,4.1715,0,0.2781,-6.277562E-05,4.1715,0
0.279,-7.486076E-05,4.185,0,0.279,-5.337606E-05,4.185,0
0.2799,-7.687495E-05,4.1985,0,0.2799,-7.351797E-05,4.1985,0
0.2808,-4.095522E-05,4.212,0,0.2808,-7.922484E-05,4.212,0
0.2817,2.752728E-05,4.2255,0,0.2817,4.733349E-05,4.2255,0
0.2826,2.786297E-05,4.239,0,0.2826,0.0001460288,4.239,0
0.2835,2.584878E-05,4.2525,0,0.2835,0.0002077974,4.2525,0
0.2844,-3.155566E-05,4.266,0,0.2844,0.0001027237,4.266,0
0.2853,2.1149E-05,4.2795,0,0.2853,-4.632639E-05,4.2795,0
0.2862,4.53193E-05,4.293,0,0.2862,-6.109713E-05,4.293,0
0.2871,0.0001077592,4.3065,0,0.2871,-5.337606E-05,4.3065,0
0.288,7.754635E-05,4.32,0,0.288,-0.0001228656,4.32,0
0.2889,-3.356985E-07,4.3335,0,0.2889,-0.0001772488,4.3335,0
0.2898,-7.956054E-05,4.347,0,0.2898,-0.0001366293,4.347,0
0.2907,-7.922484E-05,4.3605,0,0.2907,-5.136187E-05,4.3605,0
0.2916,-2.719158E-05,4.374,0,0.2916,-2.853437E-05,4.374,0
0.2925,-0.0001131304,4.3875,0,0.2925,0.0001587854,4.3875,0
0.2934,-7.116808E-05,4.401,0,0.2934,0.0001795987,4.401,0
0.2943,8.560311E-05,4.4145,0,0.2943,7.888914E-05,4.4145,0
0.2952,4.599069E-05,4.428,0,0.2952,5.136187E-05,4.428,0
0.2961,-1.712062E-05,4.4415,0,0.2961,0.0001047379,4.4415,0
0.297,3.189136E-05,4.455,0,0.297,6.948959E-05,4.455,0
0.2979,-3.323415E-05,4.4685,0,0.2979,3.323415E-05,4.4685,0
0.2988,1.644922E-05,4.482,0,0.2988,1.678492E-05,4.482,0
0.2997,6.277562E-05,4.4955,0,0.2997,6.713969E-07,4.4955,0
0.3006,1.309224E-05,4.509,0,0.3006,-6.54612E-05,4.509,0
0.3015,3.356985E-07,4.5225,0,0.3015,-8.69459E-05,4.5225,0
0.3024,6.143282E-05,4.536,0,0.3024,-5.102617E-05,4.536,0
0.3033,4.901198E-05,4.5495,0,0.3033,-7.754635E-05,4.5495,0
0.3042,7.620356E-05,4.563,0,0.3042,-0.000154757,4.563,0
0.3051,0.0001225299,4.5765,0,0.3051,-0.0001587854,4.5765,0
0.306,0.000105745,4.59,0,0.306,-5.169757E-05,4.59,0
0.3069,6.948959E-05,4.6035,0,0.3069,-1.242084E-05,4.6035,0
0.3078,0.0001037308,4.617,0,0.3078,2.349889E-05,4.617,0
0.3087,0.0002017548,4.6305,0,0.3087,0.000119173,4.6305,0
0.3096,0.0001312581,4.644,0,0.3096,8.69459E-05,4.644,0
0.3105,5.069047E-05,4.6575,0,0.3105,-6.378271E-06,4.6575,0
0.3114,1.309224E-05,4.671,0,0.3114,5.035477E-06,4.671,0
0.3123,-1.980621E-05,4.6845,0,0.3123,1.980621E-05,4.6845,0
0.3132,-0.0001030594,4.698,0,0.3132,4.565499E-05,4.698,0
0.3141,-0.0001577783,4.7115,0,0.3141,9.399558E-06,4.7115,0
0.315,-0.000164828,4.725,0,0.315,-9.433127E-05,4.725,0
0.3159,-0.0001299153,4.7385,0,0.3159,-0.0001084306,4.7385,0
0.3168,-0.0001923552,4.752,0,0.3168,-5.136187E-05,4.752,0
0.3177,-0.0001685206,4.7655,0,0.3177,-2.24918E-05,4.7655,0
0.3186,-8.82887E-05,4.779,0,0.3186,-5.706874E-06,4.779,0
0.3195,-0.0001681849,4.7925,0,0.3195,-1.644922E-05,4.7925,0
0.3204,-0.0001003738,4.806,0,0.3204,-1.913481E-05,4.806,0
0.3213,-5.069047E-05,4.8195,0,0.3213,2.517739E-05,4.8195,0
0.3222,-7.888914E-05,4.833,0,0.3222,9.970245E-05,4.833,0
0.3231,-9.332418E-05,4.8465,0,0.3231,8.023193E-05,4.8465,0
0.324,-0.0001087663,4.86,0,0.324,1.107805E-05,4.86,0
0.3249,-0.0001027237,4.8735,0,0.3249,-2.24918E-05,4.8735,0
0.3258,-1.443504E-05,4.887,0,0.3258,-6.478981E-05,4.887,0
0.3267,2.652018E-05,4.9005,0,0.3267,-4.968337E-05,4.9005,0
0.3276,0.0001205158,4.914,0,0.3276,-2.786297E-05,4.914,0
0.3285,0.0001487144,4.9275,0,0.3285,-5.706874E-05,4.9275,0
0.3294,0.0001326009,4.941,0,0.3294,-7.284657E-05,4.941,0
0.3303,-6.713969E-06,4.9545,0,0.3303,-3.994812E-05,4.9545,0
0.3312,3.323415E-05,4.968,0,0.3312,-7.586786E-05,4.968,0
0.3321,9.265278E-05,4.9815,0,0.3321,-0.0001399863,4.9815,0
0.333,-3.793393E-05,4.995,0,0.333,-9.365987E-05,4.995,0
0.3339,-1.577783E-05,5.0085,0,0.3339,-5.774014E-05,5.0085,0
0.3348,3.457694E-05,5.022,0,0.3348,-3.457694E-05,5.022,0
0.3357,1.980621E-05,5.0355,0,0.3357,-2.450599E-05,5.0355,0
0.3366,-7.586786E-05,5.049,0,0.3366,-8.392462E-06,5.049,0
0.3375,-3.088426E-05,5.0625,0,0.3375,2.047761E-05,5.0625,0
0.3384,-4.46479E-05,5.076,0,0.3384,2.349889E-05,5.076,0
0.3393,1.007095E-06,5.0895,0,0.3393,-3.256275E-05,5.0895,0
0.3402,-2.584878E-05,5.103,0,0.3402,-6.948959E-05,5.103,0
0.3411,-4.33051E-05,5.1165,0,0.3411,-8.627451E-05,5.1165,0
0.342,-5.673304E-05,5.13,0,0.342,-7.351797E-05,5.13,0
0.3429,-1.644922E-05,5.1435,0,0.3429,2.484169E-05,5.1435,0
0.3438,-5.706874E-06,5.157,0,0.3438,7.318227E-05,5.157,0
0.3447,1.174945E-05,5.1705,0,0.3447,-2.417029E-05,5.1705,0
0.3456,5.035477E-05,5.184,0,0.3456,-6.344701E-05,5.184,0
0.3465,-1.510643E-05,5.1975,0,0.3465,-5.169757E-05,5.1975,0
0.3474,-2.450599E-05,5.211,0,0.3474,-1.812772E-05,5.211,0
0.3483,3.390555E-05,5.2245,0,0.3483,-3.054856E-05,5.2245,0
0.3492,8.493171E-05,5.238,0,0.3492,-1.678492E-06,5.238,0
0.3501,-7.553216E-05,5.2515,0,0.3501,2.752728E-05,5.2515,0
0.351,-5.807584E-05,5.265,0,0.351,4.733349E-05,5.265,0
0.3519,-3.558404E-05,5.2785,0,0.3519,0.000105745,5.2785,0
0.3528,5.069047E-05,5.292,0,0.3528,0.0001500572,5.292,0
0.3537,3.424125E-05,5.3055,0,0.3537,8.392462E-05,5.3055,0
0.3546,-4.666209E-05,5.319,0,0.3546,-3.894102E-05,5.319,0
0.3555,-3.994812E-05,5.3325,0,0.3555,-8.795301E-05,5.3325,0
0.3564,-3.961242E-05,5.346,0,0.3564,-0.0001161517,5.346,0
0.3573,-6.143282E-05,5.3595,0,0.3573,-9.265278E-05,5.3595,0
0.3582,1.577783E-05,5.373,0,0.3582,-0.0001329366,5.373,0
0.3591,4.800488E-05,5.3865,0,0.3591,-0.0001443503,5.3865,0
0.36,3.826963E-05,5.4,0,0.36,-7.486076E-05,5.4,0
0.3609,-5.706874E-06,5.4135,0,0.3609,-4.39765E-05,5.4135,0
0.3618,-5.304036E-05,5.427,0,0.3618,-3.793393E-05,5.427,0
0.3627,-3.726253E-05,5.4405,0,0.3627,-2.517739E-05,5.4405,0
0.3636,-3.591974E-05,5.454,0,0.3636,-1.980621E-05,5.454,0
0.3645,-3.692683E-06,5.4675,0,0.3645,-1.577783E-05,5.4675,0
0.3654,-4.33051E-05,5.481,0,0.3654,1.007095E-06,5.481,0
0.3663,-2.047761E-05,5.4945,0,0.3663,-3.289845E-05,5.4945,0
0.3672,-2.316319E-05,5.508,0,0.3672,-7.183947E-05,5.508,0
0.3681,-0.0001215228,5.5215,0,0.3681,-8.358892E-05,5.5215,0
0.369,-3.524834E-05,5.535,0,0.369,-8.358892E-05,5.535,0
0.3699,9.433127E-05,5.5485,0,0.3699,-9.164568E-05,5.5485,0
0.3708,-4.699779E-06,5.562,0,0.3708,-2.685588E-06,5.562,0
0.3717,3.994812E-05,5.5755,0,0.3717,4.263371E-05,5.5755,0
0.3726,0.000158114,5.589,0,0.3726,7.620356E-05,5.589,0
0.3735,0.0001232013,5.6025,0,0.3735,0.0001017166,5.6025,0
0.3744,0.0001748989,5.616,0,0.3744,8.493171E-05,5.616,0
0.3753,0.0001688563,5.6295,0,0.3753,8.82887E-05,5.6295,0
0.3762,9.634547E-05,5.643,0,0.3762,0.0001067521,5.643,0
0.3771,1.107805E-05,5.6565,0,0.3771,7.956054E-05,5.6565,0
0.378,4.632639E-05,5.67,0,0.378,2.24918E-05,5.67,0
0.3789,-4.36408E-06,5.6835,0,0.3789,-1.846342E-05,5.6835,0
0.3798,1.040665E-05,5.697,0,0.3798,-4.599069E-05,5.697,0
0.3807,2.920577E-05,5.7105,0,0.3807,2.517739E-05,5.7105,0
0.3816,-6.378271E-06,5.724,0,0.3816,-4.666209E-05,5.724,0
0.3825,-6.61326E-05,5.7375,0,0.3825,-0.000193698,5.7375,0
0.3834,-8.157473E-05,5.751,0,0.3834,-0.0001493858,5.751,0
0.3843,-0.0001275654,5.7645,0,0.3843,4.263371E-05,5.7645,0
0.3852,-0.0001409934,5.778,0,0.3852,7.620356E-05,5.778,0
0.3861,-2.484169E-05,5.7915,0,0.3861,3.356985E-05,5.7915,0
0.387,1.443504E-05,5.805,0,0.387,7.888914E-05,5.805,0
0.3879,2.652018E-05,5.8185,0,0.3879,-7.721065E-06,5.8185,0
0.3888,-4.49836E-05,5.832,0,0.3888,-0.0001326009,5.832,0
0.3897,-0.0001406577,5.8455,0,0.3897,-0.0001940337,5.8455,0
0.3906,-0.0002057832,5.859,0,0.3906,-0.0001916838,5.859,0
0.3915,-0.0002010834,5.8725,0,0.3915,-0.0002074617,5.8725,0
0.3924,-0.0001151446,5.886,0,0.3924,-0.0001668421,5.886,0
0.3933,-3.692683E-05,5.8995,0,0.3933,-3.625543E-05,5.8995,0
0.3942,-1.040665E-05,5.913,0,0.3942,0.0001930266,5.913,0
0.3951,0.0001178302,5.9265,0,0.3951,0.0001863127,5.9265,0
0.396,0.0002547952,5.94,0,0.396,0.000119173,5.94,0
0.3969,0.000239353,5.9535,0,0.3969,4.733349E-05,5.9535,0
0.3978,0.0001487144,5.967,0,0.3978,-5.169757E-05,5.967,0
0.3987,9.735256E-05,5.9805,0,0.3987,-7.284657E-05,5.9805,0
0.3996,9.802396E-05,5.994,0,0.3996,-6.6804E-05,5.994,0
0.4005,4.699779E-06,6.0075,0,0.4005,4.867628E-05,6.0075,0
0.4014,-1.007095E-05,6.021,0,0.4014,7.821774E-05,6.021,0
0.4023,7.721065E-06,6.0345,0,0.4023,8.392462E-06,6.0345,0
0.4032,-8.69459E-05,6.048,0,0.4032,2.047761E-05,6.048,0
0.4041,-8.157473E-05,6.0615,0,0.4041,3.591974E-05,6.0615,0
0.405,-1.510643E-05,6.075,0,0.405,1.208515E-05,6.075,0
0.4059,-6.948959E-05,6.0885,0,0.4059,1.510643E-05,6.0885,0
0.4068,-7.150377E-05,6.102,0,0.4068,-2.484169E-05,6.102,0
0.4077,-7.821774E-05,6.1155,0,0.4077,-3.994812E-05,6.1155,0
0.4086,-9.298848E-05,6.129,0,0.4086,-6.042573E-05,6.129,0
0.4095,-9.365987E-05,6.1425,0,0.4095,-8.157473E-05,6.1425,0
0.4104,-0.0001084306,6.156,0,0.4104,-5.539025E-05,6.156,0
0.4113,-0.0001420005,6.1695,0,0.4113,0,6.1695,0
0.4122,-9.030289E-05,6.183,0,0.4122,-3.524834E-05,6.183,0
0.4131,-4.33051E-05,6.1965,0,0.4131,-0.0001500572,6.1965,0
0.414,-3.591974E-05,6.21,0,0.414,-0.0001097734,6.21,0
0.4149,-6.74754E-05,6.2235,0,0.4149,-5.471885E-05,6.2235,0
0.4158,-2.1149E-05,6.237,0,0.4158,-4.196231E-05,6.237,0
0.4167,-1.913481E-05,6.2505,0,0.4167,-0.0001131304,6.2505,0
0.4176,-8.358892E-05,6.264,0,0.4176,-9.298848E-05,6.264,0
0.4185,1.577783E-05,6.2775,0,0.4185,-0.0001111162,6.2775,0
0.4194,0.0001097734,6.291,0,0.4194,-0.0001772488,6.291,0
0.4203,0.0001668421,6.3045,0,0.4203,-0.0002077974,6.3045,0
0.4212,0.0001829557,6.318,0,0.4212,-0.0001262226,6.318,0
0.4221,0.0001943694,6.3315,0,0.4221,-8.728161E-06,6.3315,0
0.423,8.761731E-05,6.345,0,0.423,-2.28275E-05,6.345,0
0.4239,5.471885E-05,6.3585,0,0.4239,3.793393E-05,6.3585,0
0.4248,-5.001907E-05,6.372,0,0.4248,0.0001641566,6.372,0
0.4257,-3.759823E-05,6.3855,0,0.4257,0.0001084306,6.3855,0
0.4266,-3.054856E-05,6.399,0,0.4266,3.121996E-05,6.399,0
0.4275,-0.0001668421,6.4125,0,0.4275,8.996719E-05,6.4125,0
0.4284,-0.0001681849,6.426,0,0.4284,0.000109102,6.426,0
0.4293,-0.0001675135,6.4395,0,0.4293,3.189136E-05,6.4395,0
0.4302,-0.0001292439,6.453,0,0.4302,5.304036E-05,6.453,0
0.4311,-8.560311E-05,6.4665,0,0.4311,5.337606E-05,6.4665,0
0.432,-0.000112459,6.48,0,0.432,3.356985E-07,6.48,0
0.4329,-5.807584E-05,6.4935,0,0.4329,4.229801E-05,6.4935,0
0.4338,0.0001678492,6.507,0,0.4338,9.600977E-05,6.507,0
0.4347,0.0001299153,6.5205,0,0.4347,9.365987E-05,6.5205,0
0.4356,8.056763E-06,6.534,0,0.4356,3.524834E-05,6.534,0
0.4365,5.874724E-05,6.5475,0,0.4365,1.544213E-05,6.5475,0
0.4374,7.754635E-05,6.561,0,0.4374,-7.586786E-05,6.561,0
0.4383,-1.376364E-05,6.5745,0,0.4383,-7.956054E-05,6.5745,0
0.4392,4.36408E-05,6.588,0,0.4392,-5.035477E-05,6.588,0
0.4401,0.0001080949,6.6015,0,0.4401,-1.342794E-06,6.6015,0
0.441,-3.021286E-05,6.615,0,0.441,-2.316319E-05,6.615,0
0.4419,5.606165E-05,6.6285,0,0.4419,-0.000102388,6.6285,0
0.4428,8.92958E-05,6.642,0,0.4428,-6.076142E-05,6.642,0
0.4437,-6.378271E-06,6.6555,0,0.4437,-2.081331E-05,6.6555,0
0.4446,-4.901198E-05,6.669,0,0.4446,-3.256275E-05,6.669,0
0.4455,2.24918E-05,6.6825,0,0.4455,5.740444E-05,6.6825,0
0.4464,2.450599E-05,6.696,0,0.4464,7.083238E-05,6.696,0
0.4473,1.376364E-05,6.7095,0,0.4473,-2.618448E-05,6.7095,0
0.4482,-3.692683E-06,6.723,0,0.4482,-3.524834E-05,6.723,0
0.4491,1.712062E-05,6.7365,0,0.4491,-7.956054E-05,6.7365,0
0.45,5.035477E-06,6.75,0,0.45,-9.768826E-05,6.75,0
0.4509,1.812772E-05,6.7635,0,0.4509,-8.090334E-05,6.7635,0
0.4518,2.081331E-05,6.777,0,0.4518,-3.659113E-05,6.777,0
0.4527,4.129091E-05,6.7905,0,0.4527,2.014191E-05,6.7905,0
0.4536,0.0001064164,6.804,0,0.4536,4.028382E-06,6.804,0
0.4545,2.786297E-05,6.8175,0,0.4545,-0.000102388,6.8175,0
0.4554,-4.46479E-05,6.831,0,0.4554,-0.0001889983,6.831,0
0.4563,-3.222705E-05,6.8445,0,0.4563,-0.0001399863,6.8445,0
0.4572,-3.121996E-05,6.858,0,0.4572,-5.236896E-05,6.858,0
0.4581,-8.258183E-05,6.8715,0,0.4581,-6.042573E-06,6.8715,0
0.459,-3.189136E-05,6.885,0,0.459,5.438316E-05,6.885,0
0.4599,-1.644922E-05,6.8985,0,0.4599,0.000161471,6.8985,0
0.4608,1.510643E-05,6.912,0,0.4608,6.54612E-05,6.912,0
0.4617,-2.417029E-05,6.9255,0,0.4617,-3.927672E-05,6.9255,0
0.4626,-7.418937E-05,6.939,0,0.4626,-5.841154E-05,6.939,0
0.4635,-7.083238E-05,6.9525,0,0.4635,-7.284657E-05,6.9525,0
0.4644,-6.881819E-05,6.966,0,0.4644,-5.001907E-05,6.966,0
0.4653,-0.0001305867,6.9795,0,0.4653,1.544213E-05,6.9795,0
0.4662,-0.0001064164,6.993,0,0.4662,7.653925E-05,6.993,0
0.4671,-7.183947E-05,7.0065,0,0.4671,4.901198E-05,7.0065,0
0.468,-0.0001148089,7.02,0,0.468,3.927672E-05,7.02,0
0.4689,-3.994812E-05,7.0335,0,0.4689,3.894102E-05,7.0335,0
0.4698,-1.712062E-05,7.047,0,0.4698,5.136187E-05,7.047,0
0.4707,6.243992E-05,7.0605,0,0.4707,3.591974E-05,7.0605,0
0.4716,3.860533E-05,7.074,0,0.4716,6.009003E-05,7.074,0
0.4725,-1.376364E-05,7.0875,0,0.4725,8.761731E-05,7.0875,0
0.4734,-3.692683E-05,7.101,0,0.4734,9.231708E-05,7.101,0
0.4743,3.121996E-05,7.1145,0,0.4743,0.0001195087,7.1145,0
0.4752,1.141375E-05,7.128,0,0.4752,3.793393E-05,7.128,0
0.4761,-8.291753E-05,7.1415,0,0.4761,-1.107805E-05,7.1415,0
0.477,-3.256275E-05,7.155,0,0.477,-7.754635E-05,7.155,0
0.4779,2.1149E-05,7.1685,0,0.4779,-0.0001477073,7.1685,0
0.4788,-3.323415E-05,7.182,0,0.4788,-5.371176E-05,7.182,0
0.4797,-1.309224E-05,7.1955,0,0.4797,-9.399558E-06,7.1955,0
0.4806,1.376364E-05,7.209,0,0.4806,-8.291753E-05,7.209,0
0.4815,-6.378271E-06,7.2225,0,0.4815,-3.424125E-05,7.2225,0
0.4824,4.36408E-06,7.236,0,0.4824,-8.023193E-05,7.236,0
0.4833,4.632639E-05,7.2495,0,0.4833,-0.000144686,7.2495,0
0.4842,4.565499E-05,7.263,0,0.4842,-0.0001366293,7.263,0
0.4851,-3.189136E-05,7.2765,0,0.4851,-3.524834E-05,7.2765,0
0.486,4.49836E-05,7.29,0,0.486,1.644922E-05,7.29,0
0.4869,6.009003E-05,7.3035,0,0.4869,-2.450599E-05,7.3035,0
0.4878,7.721065E-06,7.317,0,0.4878,-3.558404E-05,7.317,0
0.4887,-3.524834E-05,7.3305,0,0.4887,-8.056763E-06,7.3305,0
0.4896,-0.0001077592,7.344,0,0.4896,-7.217517E-05,7.344,0
0.4905,-5.975433E-05,7.3575,0,0.4905,-0.0001453574,7.3575,0
0.4914,-4.061952E-05,7.371,0,0.4914,-0.0001426719,7.371,0
0.4923,-0.0001198444,7.3845,0,0.4923,-8.493171E-05,7.3845,0
0.4932,-5.606165E-05,7.398,0,0.4932,-4.46479E-05,7.398,0
0.4941,0.0001389792,7.4115,0,0.4941,6.076142E-05,7.4115,0
0.495,0.000200412,7.425,0,0.495,5.035477E-06,7.425,0
0.4959,0.0002829938,7.4385,0,0.4959,-0.0001010452,7.4385,0
0.4968,0.0001607996,7.452,0,0.4968,-9.164568E-05,7.452,0
0.4977,1.409934E-05,7.4655,0,0.4977,-9.701686E-05,7.4655,0
0.4986,-4.599069E-05,7.479,0,0.4986,-0.000102388,7.479,0
0.4995,-6.378271E-05,7.4925,0,0.4995,-0.0001114519,7.4925,0
0.5004,-1.644922E-05,7.506,0,0.5004,-3.692683E-05,7.506,0
0.5013,-8.728161E-06,7.5195,0,0.5013,2.484169E-05,7.5195,0
0.5022,-5.471885E-05,7.533,0,0.5022,-3.189136E-05,7.533,0
0.5031,-5.706874E-05,7.5465,0,0.5031,-0.0001346151,7.5465,0
0.504,-1.376364E-05,7.56,0,0.504,-0.0001151446,7.56,0
0.5049,-2.786297E-05,7.5735,0,0.5049,0.0001309224,7.5735,0
0.5058,-3.591974E-05,7.587,0,0.5058,0.0002346532,7.587,0
0.5067,1.947051E-05,7.6005,0,0.5067,1.577783E-05,7.6005,0
0.5076,-4.061952E-05,7.614,0,0.5076,-8.661021E-05,7.614,0
0.5085,-0.0001050736,7.6275,0,0.5085,1.376364E-05,7.6275,0
0.5094,4.263371E-05,7.641,0,0.5094,1.980621E-05,7.641,0
0.5103,3.994812E-05,7.6545,0,0.5103,-3.356985E-06,7.6545,0
0.5112,-0.0001654994,7.668,0,0.5112,7.049668E-06,7.668,0
0.5121,-0.0001856413,7.6815,0,0.5121,7.486076E-05,7.6815,0
0.513,-0.0001500572,7.695,0,0.513,0.0001641566,7.695,0
0.5139,-0.0001806058,7.7085,0,0.5139,0.0001916838,7.7085,0
0.5148,-0.0001144732,7.722,0,0.5148,8.157473E-05,7.722,0
0.5157,-7.620356E-05,7.7355,0,0.5157,3.927672E-05,7.7355,0
0.5166,-2.987716E-05,7.749,0,0.5166,4.263371E-05,7.749,0
0.5175,1.174945E-05,7.7625,0,0.5175,-9.567407E-05,7.7625,0
0.5184,5.069047E-05,7.776,0,0.5184,-0.0001802701,7.776,0
0.5193,-4.263371E-05,7.7895,0,0.5193,-0.0001245441,7.7895,0
0.5202,-4.43122E-05,7.803,0,0.5202,-0.0001359579,7.803,0
0.5211,4.196231E-05,7.8165,0,0.5211,-0.0001806058,7.8165,0
0.522,2.584878E-05,7.83,0,0.522,-7.553216E-05,7.83,0
0.5229,5.706874E-05,7.8435,0,0.5229,4.263371E-05,7.8435,0
0.5238,0.000148043,7.857,0,0.5238,2.484169E-05,7.857,0
0.5247,9.231708E-05,7.8705,0,0.5247,-2.450599E-05,7.8705,0
0.5256,0.0001097734,7.884,0,0.5256,-2.1149E-05,7.884,0
0.5265,0.0002306248,7.8975,0,0.5265,-2.719158E-05,7.8975,0
0.5274,0.0001715419,7.911,0,0.5274,-4.028382E-06,7.911,0
0.5283,0.0001483787,7.9245,0,0.5283,1.275654E-05,7.9245,0
0.5292,7.620356E-05,7.938,0,0.5292,-1.242084E-05,7.938,0
0.5301,-3.088426E-05,7.9515,0,0.5301,-0.0001134661,7.9515,0
0.531,3.356985E-07,7.965,0,0.531,-0.0001218585,7.965,0
0.5319,-5.706874E-06,7.9785,0,0.5319,-0.0001148089,7.9785,0
0.5328,-4.733349E-05,7.992,0,0.5328,-0.000102388,7.992,0
0.5337,-3.692683E-06,8.0055,0,0.5337,-0.0001084306,8.0055,0
0.5346,3.726253E-05,8.019,0,0.5346,-0.0001409934,8.019,0
0.5355,-3.356985E-05,8.0325,0,0.5355,-6.51255E-05,8.0325,0
0.5364,-4.733349E-05,8.046,0,0.5364,-0.000102388,8.046,0
0.5373,-8.392462E-06,8.0595,0,0.5373,-0.0001789273,8.0595,0
0.5382,-2.014191E-05,8.073,0,0.5382,-0.0001282368,8.073,0
0.5391,-7.452507E-05,8.0865,0,0.5391,3.927672E-05,8.0865,0
0.54,-4.666209E-05,8.1,0,0.54,8.090334E-05,8.1,0
0.5409,-3.860533E-05,8.1135,0,0.5409,0.0001661708,8.1135,0
0.5418,-3.457694E-05,8.127,0,0.5418,0.0002699016,8.127,0
0.5427,-4.901198E-05,8.1405,0,0.5427,0.0002521096,8.1405,0
0.5436,-6.411841E-05,8.154,0,0.5436,0.0001544213,8.154,0
0.5445,7.049668E-06,8.1675,0,0.5445,4.666209E-05,8.1675,0
0.5454,4.196231E-05,8.181,0,0.5454,9.063859E-06,8.181,0
0.5463,-4.49836E-05,8.1945,0,0.5463,6.009003E-05,8.1945,0
0.5472,-4.196231E-05,8.208,0,0.5472,-6.713969E-07,8.208,0
0.5481,-3.289845E-05,8.2215,0,0.5481,-0.0001044022,8.2215,0
0.549,-0.0001030594,8.235,0,0.549,-6.378271E-05,8.235,0
0.5499,-5.001907E-05,8.2485,0,0.5499,-4.46479E-05,8.2485,0
0.5508,-1.107805E-05,8.262,0,0.5508,-6.74754E-05,8.262,0
0.5517,-8.392462E-06,8.2755,0,0.5517,-6.64683E-05,8.2755,0
0.5526,-3.726253E-05,8.289,0,0.5526,-9.466698E-05,8.289,0
0.5535,-1.376364E-05,8.3025,0,0.5535,-4.028382E-06,8.3025,0
0.5544,-2.450599E-05,8.316,0,0.5544,0.0001947051,8.316,0
0.5553,-3.524834E-05,8.3295,0,0.5553,0.0001574426,8.3295,0
0.5562,-2.920577E-05,8.343,0,0.5562,6.74754E-05,8.343,0
0.5571,-9.097429E-05,8.3565,0,0.5571,5.337606E-05,8.3565,0
0.558,-0.0001319295,8.37,0,0.558,4.129091E-05,8.37,0
0.5589,-3.054856E-05,8.3835,0,0.5589,-1.007095E-06,8.3835,0
0.5598,6.848249E-05,8.397,0,0.5598,5.035477E-06,8.397,0
0.5607,8.224613E-05,8.4105,0,0.5607,-6.915389E-05,8.4105,0
0.5616,0.000115816,8.424,0,0.5616,-7.083238E-05,8.424,0
0.5625,2.1149E-05,8.4375,0,0.5625,-3.323415E-05,8.4375,0
0.5634,7.754635E-05,8.451,0,0.5634,-3.759823E-05,8.451,0
0.5643,0.0001171588,8.4645,0,0.5643,-0.0001920195,8.4645,0
0.5652,-1.107805E-05,8.478,0,0.5652,-0.0002756084,8.478,0
0.5661,-7.486076E-05,8.4915,0,0.5661,-0.0002588235,8.4915,0
0.567,-8.392462E-06,8.505,0,0.567,-0.0001178302,8.505,0
0.5679,5.035477E-06,8.5185,0,0.5679,-7.116808E-05,8.5185,0
0.5688,7.049668E-06,8.532,0,0.5688,-9.063859E-06,8.532,0
0.5697,-2.618448E-05,8.5455,0,0.5697,0.0002789654,8.5455,0
0.5706,-3.692683E-06,8.559,0,0.5706,0.0005233539,8.559,0
0.5715,4.733349E-05,8.5725,0,0.5715,0.0002890364,8.5725,0
0.5724,2.1149E-05,8.586,0,0.5724,0.0001349508,8.586,0
0.5733,1.040665E-05,8.5995,0,0.5733,0.0001930266,8.5995,0
0.5742,2.316319E-05,8.613,0,0.5742,0.0001500572,8.613,0
0.5751,4.263371E-05,8.6265,0,0.5751,6.71397E-05,8.6265,0
0.576,3.323415E-05,8.64,0,0.576,7.183947E-05,8.64,0
0.5769,5.304036E-05,8.6535,0,0.5769,3.793393E-05,8.6535,0
0.5778,3.692683E-06,8.667,0,0.5778,-4.766919E-05,8.667,0
0.5787,3.726253E-05,8.6805,0,0.5787,-6.881819E-05,8.6805,0
0.5796,2.1149E-05,8.694,0,0.5796,-6.109713E-05,8.694,0
0.5805,-3.356985E-07,8.7075,0,0.5805,-9.567407E-05,8.7075,0
0.5814,-7.721065E-06,8.721,0,0.5814,-0.0001161517,8.721,0
0.5823,4.599069E-05,8.7345,0,0.5823,-0.0001571069,8.7345,0
0.5832,-4.36408E-06,8.748,0,0.5832,-0.0001467002,8.748,0
0.5841,4.36408E-05,8.7615,0,0.5841,-0.000193698,8.7615,0
0.585,0.0001517357,8.775,0,0.585,-0.0003185779,8.775,0
0.5859,3.289845E-05,8.7885,0,0.5859,-0.0004766918,8.7885,0
0.5868,-8.82887E-05,8.802,0,0.5868,-0.0003736324,8.802,0
0.5877,-4.162661E-05,8.8155,0,0.5877,-0.0002376745,8.8155,0
0.5886,1.443504E-05,8.829,0,0.5886,-8.224613E-05,8.829,0
0.5895,5.035477E-06,8.8425,0,0.5895,8.056764E-05,8.8425,0
0.5904,7.351797E-05,8.856,0,0.5904,0.0003031357,8.856,0
0.5913,0.0001050736,8.8695,0,0.5913,0.0003215991,8.8695,0
0.5922,-0.0001054093,8.883,0,0.5922,0.000144686,8.883,0
0.5931,-0.0001349508,8.8965,0,0.5931,6.076142E-05,8.8965,0
0.594,-9.903105E-05,8.91,0,0.594,-6.713969E-07,8.91,0
0.5949,-8.661021E-05,8.9235,0,0.5949,-7.183947E-05,8.9235,0
0.5958,2.349889E-06,8.937,0,0.5958,-0.0001050736,8.937,0
0.5967,0.0001070878,8.9505,0,0.5967,-8.493171E-05,8.9505,0
0.5976,8.023193E-05,8.964,0,0.5976,-8.090334E-05,8.964,0
0.5985,3.860533E-05,8.9775,0,0.5985,-0.0001775845,8.9775,0
0.5994,2.349889E-06,8.991,0,0.5994,-0.000197055,8.991,0
0.6003,-0.0002239109,9.0045,0,0.6003,-1.242084E-05,9.0045,0
0.6012,-0.0002574807,9.018,0,0.6012,2.349889E-05,9.018,0
0.6021,-8.89601E-05,9.0315,0,0.6021,4.766919E-05,9.0315,0
0.603,-0.000115816,9.045,0,0.603,2.719158E-05,9.045,0
0.6039,-0.0002685588,9.0585,0,0.6039,-3.021286E-05,9.0585,0
0.6048,-0.0002312963,9.072001,0,0.6048,-7.821774E-05,9.072001,0
0.6057,-0.0001114519,9.0855,0,0.6057,-0.0001047379,9.0855,0
0.6066,-0.0002312963,9.099,0,0.6066,-0.0001198444,9.099,0
0.6075,-0.0002064546,9.1125,0,0.6075,-4.36408E-05,9.1125,0
0.6084,-8.96315E-05,9.126,0,0.6084,4.36408E-06,9.126,0
0.6093,1.007095E-06,9.1395,0,0.6093,6.042573E-06,9.1395,0
0.6102,-1.409934E-05,9.153,0,0.6102,4.263371E-05,9.153,0
0.6111,-0.0001279011,9.1665,0,0.6111,6.311131E-05,9.1665,0
0.612,-0.0001554284,9.18,0,0.612,1.980621E-05,9.18,0
0.6129,-0.0001856413,9.1935,0,0.6129,3.692683E-06,9.1935,0
0.6138,-0.0002077974,9.207,0,0.6138,-1.275654E-05,9.207,0
0.6147,-9.701686E-05,9.2205,0,0.6147,-4.33051E-05,9.2205,0
0.6156,-3.692683E-06,9.234,0,0.6156,-3.424125E-05,9.234,0
0.6165,-1.510643E-05,9.2475,0,0.6165,-2.719158E-05,9.2475,0
0.6174,0.0001399863,9.261,0,0.6174,-4.39765E-05,9.261,0
0.6183,0.0003085069,9.2745,0,0.6183,-0.0001342794,9.2745,0
0.6192,0.0002715801,9.288,0,0.6192,-8.761731E-05,9.288,0
0.6201,7.183947E-05,9.3015,0,0.6201,-1.007095E-05,9.3015,0
0.621,0.0001285725,9.315,0,0.621,5.035477E-06,9.315,0
0.6219,0.0002413672,9.3285,0,0.6219,6.713969E-06,9.3285,0
0.6228,0.0003165637,9.342,0,0.6228,3.994812E-05,9.342,0
0.6237,0.0001950408,9.3555,0,0.6237,7.922484E-05,9.3555,0
0.6246,8.72816E-05,9.369,0,0.6246,-4.36408E-06,9.369,0
0.6255,0.0001195087,9.3825,0,0.6255,-4.33051E-05,9.3825,0
0.6264,0.0002010834,9.396,0,0.6264,-8.69459E-05,9.396,0
0.6273,0.000119173,9.4095,0,0.6273,-8.92958E-05,9.4095,0
0.6282,0.0001265583,9.423,0,0.6282,-5.774014E-05,9.423,0
0.6291,0.0001292439,9.4365,0,0.6291,-3.356985E-07,9.4365,0
0.63,5.270466E-05,9.45,0,0.63,0.000148043,9.45,0
0.6309,2.081331E-05,9.4635,0,0.6309,4.766919E-05,9.4635,0
0.6318,3.793393E-05,9.477,0,0.6318,-8.090334E-05,9.477,0
0.6327,-2.920577E-05,9.4905,0,0.6327,-5.740444E-05,9.4905,0
0.6336,9.063859E-06,9.504,0,0.6336,5.035477E-06,9.504,0
0.6345,9.600977E-05,9.5175,0,0.6345,-5.337606E-05,9.5175,0
0.6354,3.289845E-05,9.531,0,0.6354,-0.000109102,9.531,0
0.6363,6.210422E-05,9.5445,0,0.6363,3.692683E-06,9.5445,0
0.6372,7.721065E-05,9.558,0,0.6372,9.265278E-05,9.558,0
0.6381,1.544213E-05,9.5715,0,0.6381,4.263371E-05,9.5715,0
0.639,-1.174945E-05,9.585,0,0.639,1.242084E-05,9.585,0
0.6399,-3.961242E-05,9.5985,0,0.6399,7.016098E-05,9.5985,0
0.6408,-7.653925E-05,9.612,0,0.6408,0.0001383078,9.612,0
0.6417,-0.0001171588,9.6255,0,0.6417,0.0001030594,9.6255,0
0.6426,-4.565499E-05,9.639,0,0.6426,-9.063859E-06,9.639,0
0.6435,-3.256275E-05,9.6525,0,0.6435,6.378271E-06,9.6525,0
0.6444,-5.740444E-05,9.666,0,0.6444,-6.378271E-06,9.666,0
0.6453,-4.196231E-05,9.6795,0,0.6453,-4.53193E-05,9.6795,0
0.6462,-4.599069E-05,9.693,0,0.6462,-0.0001111162,9.693,0
0.6471,-0.0001007095,9.7065,0,0.6471,-0.000109102,9.7065,0
0.648,-8.661021E-05,9.72,0,0.648,-0.0001658351,9.72,0
0.6489,-3.121996E-05,9.7335,0,0.6489,-0.0002155184,9.7335,0
0.6498,-3.356985E-05,9.747,0,0.6498,-0.0002594949,9.747,0
0.6507,-0.0001413291,9.7605,0,0.6507,-0.0002319677,9.7605,0
0.6516,-0.0001211871,9.774,0,0.6516,-0.0001379721,9.774,0
0.6525,-8.728161E-06,9.7875,0,0.6525,-1.913481E-05,9.7875,0
0.6534,-3.155566E-05,9.801,0,0.6534,0.0002373388,9.801,0
0.6543,-8.627451E-05,9.8145,0,0.6543,0.0002450599,9.8145,0
0.6552,-8.023193E-05,9.828,0,0.6552,7.620356E-05,9.828,0
0.6561,-6.51255E-05,9.8415,0,0.6561,-5.807584E-05,9.8415,0
0.657,-0.0001131304,9.855,0,0.657,-1.007095E-06,9.855,0
0.6579,-2.18204E-05,9.8685,0,0.6579,3.860533E-05,9.8685,0
0.6588,2.349889E-06,9.882,0,0.6588,8.392462E-06,9.882,0
0.6597,-5.941863E-05,9.8955,0,0.6597,2.584878E-05,9.8955,0
0.6606,-3.424125E-05,9.909,0,0.6606,3.591974E-05,9.909,0
0.6615,3.591974E-05,9.9225,0,0.6615,-6.57969E-05,9.9225,0
0.6624,-1.913481E-05,9.936,0,0.6624,-4.834058E-05,9.936,0
0.6633,2.28275E-05,9.9495,0,0.6633,-1.309224E-05,9.9495,0
0.6642,2.014191E-05,9.963,0,0.6642,6.076142E-05,9.963,0
0.6651,1.779202E-05,9.976501,0,0.6651,0.000102388,9.976501,0
0.666,3.121996E-05,9.99,0,0.666,6.478981E-05,9.99,0
0.6669,-2.349889E-06,10.0035,0,0.6669,4.632639E-05,10.0035,0
0.6678,-7.721065E-05,10.017,0,0.6678,4.229801E-05,10.017,0
0.6687,-4.196231E-05,10.0305,0,0.6687,-0.0001346151,10.0305,0
0.6696,-3.356985E-07,10.044,0,0.6696,-0.0002826581,10.044,0
0.6705,-9.097429E-05,10.0575,0,0.6705,-0.0002252537,10.0575,0
0.6714,-7.989624E-05,10.071,0,0.6714,-0.0001607996,10.071,0
0.6723,-2.28275E-05,10.0845,0,0.6723,-8.325322E-05,10.0845,0
0.6732,-1.712062E-05,10.098,0,0.6732,0.0001607996,10.098,0
0.6741,-8.392462E-05,10.1115,0,0.6741,0.0003085069,10.1115,0
0.675,-6.344701E-05,10.125,0,0.675,0.0001373007,10.125,0
0.6759,-3.659113E-05,10.1385,0,0.6759,3.457694E-05,10.1385,0
0.6768,1.174945E-05,10.152,0,0.6768,1.846342E-05,10.152,0
0.6777,-1.007095E-06,10.1655,0,0.6777,4.061952E-05,10.1655,0
0.6786,-3.457694E-05,10.179,0,0.6786,-1.107805E-05,10.179,0
0.6795,-7.016098E-05,10.1925,0,0.6795,-4.36408E-05,10.1925,0
0.6804,-3.860533E-05,10.206,0,0.6804,-0.0001070878,10.206,0
0.6813,-2.987716E-05,10.2195,0,0.6813,-9.097429E-05,10.2195,0
0.6822,5.203327E-05,10.233,0,0.6822,-5.740444E-05,10.233,0
0.6831,0.0001470359,10.2465,0,0.6831,-6.210422E-05,10.2465,0
0.684,2.1149E-05,10.26,0,0.684,-0.0001762417,10.26,0
0.6849,4.095522E-05,10.2735,0,0.6849,-0.0001067521,10.2735,0
0.6858,6.881819E-05,10.287,0,0.6858,-2.517739E-05,10.287,0
0.6867,6.51255E-05,10.3005,0,0.6867,-4.666209E-05,10.3005,0
0.6876,-8.090334E-05,10.314,0,0.6876,-4.196231E-05,10.314,0
0.6885,-0.0002088045,10.3275,0,0.6885,-2.450599E-05,10.3275,0
0.6894,-0.0001332723,10.341,0,0.6894,-9.198138E-05,10.341,0
0.6903,8.023193E-05,10.3545,0,0.6903,-0.00018262,10.3545,0
0.6912,9.030289E-05,10.368,0,0.6912,-0.0001178302,10.368,0
0.6921,1.577783E-05,10.3815,0,0.6921,-1.376364E-05,10.3815,0
0.693,1.544213E-05,10.395,0,0.693,-1.309224E-05,10.395,0
0.6939,1.947051E-05,10.4085,0,0.6939,4.800488E-05,10.4085,0
0.6948,-3.289845E-05,10.422,0,0.6948,0.0001205158,10.422,0
0.6957,5.606165E-05,10.4355,0,0.6957,8.96315E-05,10.4355,0
0.6966,8.560311E-05,10.449,0,0.6966,-4.934768E-05,10.449,0
0.6975,-5.035477E-06,10.4625,0,0.6975,-6.042573E-05,10.4625,0
0.6984,6.713969E-07,10.476,0,0.6984,-1.040665E-05,10.476,0
0.6993,1.947051E-05,10.4895,0,0.6993,-5.706874E-06,10.4895,0
0.7002,-6.74754E-05,10.503,0,0.7002,-8.157473E-05,10.503,0
0.7011,-0.0001557641,10.5165,0,0.7011,-6.848249E-05,10.5165,0
0.702,-0.0001151446,10.53,0,0.702,-8.728161E-06,10.53,0
0.7029,-7.083238E-05,10.5435,0,0.7029,-2.18204E-05,10.5435,0
0.7038,3.323415E-05,10.557,0,0.7038,-8.426032E-05,10.557,0
0.7047,7.653925E-05,10.5705,0,0.7047,5.203327E-05,10.5705,0
0.7056,-4.867628E-05,10.584,0,0.7056,0.0003534905,10.584,0
0.7065,-2.484169E-05,10.5975,0,0.7065,0.0003904173,10.5975,0
0.7074,4.196231E-05,10.611,0,0.7074,0.000190341,10.611,0
0.7083,-0.0001131304,10.6245,0,0.7083,0.0001339437,10.6245,0
0.7092,-0.0001185016,10.638,0,0.7092,5.706874E-05,10.638,0
0.7101,-6.210422E-05,10.6515,0,0.7101,-5.337606E-05,10.6515,0
0.711,-4.46479E-05,10.665,0,0.711,-4.934768E-05,10.665,0
0.7119,9.466698E-05,10.6785,0,0.7119,-0.0001131304,10.6785,0
0.7128,0.0001420005,10.692,0,0.7128,-0.0001930266,10.692,0
0.7137,0.0001527428,10.7055,0,0.7137,-0.0001544213,10.7055,0
0.7146,0.0001232013,10.719,0,0.7146,-9.030289E-05,10.719,0
0.7155,0.0001738918,10.7325,0,0.7155,2.18204E-05,10.7325,0
0.7164,0.0001856413,10.746,0,0.7164,8.560311E-05,10.746,0
0.7173,9.567407E-05,10.7595,0,0.7173,3.189136E-05,10.7595,0
0.7182,1.577783E-05,10.773,0,0.7182,-2.752728E-05,10.773,0
0.7191,2.349889E-06,10.7865,0,0.7191,-0.0001500572,10.7865,0
0.72,-1.007095E-05,10.8,0,0.72,-0.000200412,10.8,0
0.7209,-1.376364E-05,10.8135,0,0.7209,-0.0002145113,10.8135,0
0.7218,6.713969E-07,10.827,0,0.7218,-0.0002373388,10.827,0
0.7227,7.486076E-05,10.8405,0,0.7227,-0.0002547952,10.8405,0
0.7236,-1.544213E-05,10.854,0,0.7236,-0.0002279393,10.854,0
0.7245,-4.632639E-05,10.8675,0,0.7245,-0.0001044022,10.8675,0
0.7254,-1.040665E-05,10.881,0,0.7254,3.189136E-05,10.881,0
0.7263,-2.28275E-05,10.8945,0,0.7263,0.0001094377,10.8945,0
0.7272,-3.524834E-05,10.908,0,0.7272,0.0001305867,10.908,0
0.7281,3.692683E-06,10.9215,0,0.7281,0.0001312581,10.9215,0
0.729,-1.678492E-06,10.935,0,0.729,0.0001151446,10.935,0
0.7299,-5.270466E-05,10.9485,0,0.7299,6.243992E-05,10.9485,0
0.7308,-3.457694E-05,10.962,0,0.7308,3.961242E-05,10.962,0
0.7317,-6.478981E-05,10.9755,0,0.7317,6.948959E-05,10.9755,0
0.7326,-5.471885E-05,10.989,0,0.7326,8.358892E-05,10.989,0
0.7335,-6.64683E-05,11.0025,0,0.7335,2.887007E-05,11.0025,0
0.7344,-1.678492E-06,11.016,0,0.7344,-8.358892E-05,11.016,0
0.7353,3.826963E-05,11.0295,0,0.7353,-7.351797E-05,11.0295,0
0.7362,0.0002487526,11.043,0,0.7362,-0.0001420005,11.043,0
0.7371,0.000224918,11.0565,0,0.7371,-0.000185977,11.0565,0
0.738,2.450599E-05,11.07,0,0.738,-0.0001138018,11.07,0
0.7389,2.24918E-05,11.0835,0,0.7389,-0.0001346151,11.0835,0
0.7398,3.927672E-05,11.097,0,0.7398,-9.735256E-05,11.097,0
0.7407,-5.404745E-05,11.1105,0,0.7407,3.994812E-05,11.1105,0
0.7416,-9.332418E-05,11.124,0,0.7416,-5.975433E-05,11.124,0
0.7425,-2.24918E-05,11.1375,0,0.7425,-3.189136E-05,11.1375,0
0.7434,-5.505455E-05,11.151,0,0.7434,1.712062E-05,11.151,0
0.7443,-1.342794E-06,11.1645,0,0.7443,-7.183947E-05,11.1645,0
0.7452,-3.457694E-05,11.178,0,0.7452,2.417029E-05,11.178,0
0.7461,-0.0001218585,11.1915,0,0.7461,-7.922484E-05,11.1915,0
0.747,-0.0001671778,11.205,0,0.747,-0.0001997406,11.205,0
0.7479,-9.970245E-05,11.2185,0,0.7479,-8.392462E-06,11.2185,0
0.7488,-2.349889E-06,11.232,0,0.7488,0.0003944457,11.232,0
0.7497,0.0001198444,11.2455,0,0.7497,0.0005246967,11.2455,0
0.7506,0.0001178302,11.259,0,0.7506,0.0002544594,11.259,0
0.7515,6.814679E-05,11.2725,0,0.7515,0.000112459,11.2725,0
0.7524,0.0001185016,11.286,0,0.7524,0.0001201801,11.286,0
0.7533,0.0001292439,11.2995,0,0.7533,4.263371E-05,11.2995,0
0.7542,7.821774E-05,11.313,0,0.7542,-3.659113E-05,11.313,0
0.7551,-4.934768E-05,11.3265,0,0.7551,-0.0001346151,11.3265,0
0.756,-3.054856E-05,11.34,0,0.756,-0.0002541238,11.34,0
0.7569,4.733349E-05,11.3535,0,0.7569,-0.0001487144,11.3535,0
0.7578,9.097429E-05,11.367,0,0.7578,-5.908293E-05,11.367,0
0.7587,4.867628E-05,11.3805,0,0.7587,-6.478981E-05,11.3805,0
0.7596,-6.378271E-06,11.394,0,0.7596,2.551309E-05,11.394,0
0.7605,-3.692683E-05,11.4075,0,0.7605,0.0001107805,11.4075,0
0.7614,-9.869535E-05,11.421,0,0.7614,0.000133608,11.421,0
0.7623,-0.0001117876,11.4345,0,0.7623,2.920577E-05,11.4345,0
0.7632,-5.539025E-05,11.448,0,0.7632,-7.016098E-05,11.448,0
0.7641,-3.659113E-05,11.4615,0,0.7641,-5.136187E-05,11.4615,0
0.765,-6.344701E-05,11.475,0,0.765,-7.989624E-05,11.475,0
0.7659,-3.692683E-06,11.4885,0,0.7659,-1.644922E-05,11.4885,0
0.7668,-2.349889E-05,11.502,0,0.7668,-0.0001111162,11.502,0
0.7677,-5.673304E-05,11.5155,0,0.7677,-0.0003316701,11.5155,0
0.7686,-0.0001383078,11.529,0,0.7686,-0.0002339818,11.529,0
0.7695,-0.0001111162,11.5425,0,0.7695,-0.0001084306,11.5425,0
0.7704,-0.0001322652,11.556,0,0.7704,-4.162661E-05,11.556,0
0.7713,-0.0001373007,11.5695,0,0.7713,4.733349E-05,11.5695,0
0.7722,-0.0001654994,11.583,0,0.7722,0.0001433432,11.583,0
0.7731,-0.0002044404,11.5965,0,0.7731,0.0001305867,11.5965,0
0.774,-1.779202E-05,11.61,0,0.774,0.0001285725,11.61,0
0.7749,0.0001373007,11.6235,0,0.7749,9.433127E-05,11.6235,0
0.7758,0.0001138018,11.637,0,0.7758,3.323415E-05,11.637,0
0.7767,0.0001017166,11.6505,0,0.7767,-1.510643E-05,11.6505,0
0.7776,6.881819E-05,11.664,0,0.7776,-5.371176E-05,11.664,0
0.7785,-5.203327E-05,11.6775,0,0.7785,-2.21561E-05,11.6775,0
0.7794,6.54612E-05,11.691,0,0.7794,-5.001907E-05,11.691,0
0.7803,0.0001527428,11.7045,0,0.7803,-7.016098E-05,11.7045,0
0.7812,8.92958E-05,11.718,0,0.7812,-4.800488E-05,11.718,0
0.7821,-5.706874E-06,11.7315,0,0.7821,-6.78111E-05,11.7315,0
0.783,3.021286E-05,11.745,0,0.783,-4.36408E-05,11.745,0
0.7839,3.457694E-05,11.7585,0,0.7839,-2.920577E-05,11.7585,0
0.7848,3.826963E-05,11.772,0,0.7848,-0.0001171588,11.772,0
0.7857,2.047761E-05,11.7855,0,0.7857,-8.090334E-05,11.7855,0
0.7866,-0.000109102,11.799,0,0.7866,-0.0001329366,11.799,0
0.7875,-0.0001440146,11.8125,0,0.7875,-0.0001658351,11.8125,0
0.7884,-0.0001232013,11.826,0,0.7884,-0.0001470359,11.826,0
0.7893,-0.0001775845,11.8395,0,0.7893,-0.0001174945,11.8395,0
0.7902,-0.000186984,11.853,0,0.7902,-9.500267E-05,11.853,0
0.7911,-3.927672E-05,11.8665,0,0.7911,-0.0001245441,11.8665,0
0.792,1.409934E-05,11.88,0,0.792,3.189136E-05,11.88,0
0.7929,9.701686E-05,11.8935,0,0.7929,9.600977E-05,11.8935,0
0.7938,1.309224E-05,11.907,0,0.7938,9.332418E-05,11.907,0
0.7947,-0.0001443503,11.9205,0,0.7947,0.0001889983,11.9205,0
0.7956,-0.000148043,11.934,0,0.7956,0.0002229038,11.934,0
0.7965,-0.0001420005,11.9475,0,0.7965,2.584878E-05,11.9475,0
0.7974,-1.980621E-05,11.961,0,0.7974,3.692683E-05,11.961,0
0.7983,0.0001651637,11.9745,0,0.7983,3.323415E-05,11.9745,0
0.7992,0.0001678492,11.988,0,0.7992,-7.049668E-06,11.988,0
0.8001,0.0001017166,12.0015,0,0.8001,-0.0001003738,12.0015,0
0.801,0.0001104448,12.015,0,0.801,-0.0002406958,12.015,0
0.8019,1.712062E-05,12.0285,0,0.8019,-0.0003125353,12.0285,0
0.8028,-4.263371E-05,12.042,0,0.8028,-0.0002860151,12.042,0
0.8037,1.846342E-05,12.0555,0,0.8037,-0.0001829557,12.0555,0
0.8046,6.74754E-05,12.069,0,0.8046,3.356985E-05,12.069,0
0.8055,-1.443504E-05,12.0825,0,0.8055,0.0001950408,12.0825,0
0.8064,6.378271E-06,12.096,0,0.8064,0.0002789654,12.096,0
0.8073,-2.1149E-05,12.1095,0,0.8073,0.000327306,12.1095,0
0.8082,-5.673304E-05,12.123,0,0.8082,0.0001983978,12.123,0
0.8091,-7.821774E-05,12.1365,0,0.8091,5.874724E-05,12.1365,0
0.81,-0.0001349508,12.15,0,0.81,-0.0001037308,12.15,0
0.8109,-0.0001228656,12.1635,0,0.8109,-0.0002118257,12.1635,0
0.8118,-4.061952E-05,12.177,0,0.8118,-0.0002319677,12.177,0
0.8127,-1.980621E-05,12.1905,0,0.8127,-0.0002091402,12.1905,0
0.8136,7.620356E-05,12.204,0,0.8136,-3.659113E-05,12.204,0
0.8145,0.0001943694,12.2175,0,0.8145,0.0002178683,12.2175,0
0.8154,0.0001383078,12.231,0,0.8154,0.0002490883,12.231,0
0.8163,9.735256E-06,12.2445,0,0.8163,7.083238E-05,12.2445,0
0.8172,-4.934768E-05,12.258,0,0.8172,-6.948959E-05,12.258,0
0.8181,3.189136E-05,12.2715,0,0.8181,-0.0001819486,12.2715,0
0.819,-5.404745E-05,12.285,0,0.819,-0.0001507286,12.285,0
0.8199,-6.814679E-05,12.2985,0,0.8199,-7.956054E-05,12.2985,0
0.8208,-2.887007E-05,12.312,0,0.8208,-0.0001524071,12.312,0
0.8217,-3.927672E-05,12.3255,0,0.8217,-0.0001275654,12.3255,0
0.8226,-1.846342E-05,12.339,0,0.8226,1.712062E-05,12.339,0
0.8235,-1.913481E-05,12.3525,0,0.8235,0.0001386435,12.3525,0
0.8244,-8.661021E-05,12.366,0,0.8244,0.0001453574,12.366,0
0.8253,-0.0001044022,12.3795,0,0.8253,0.000207126,12.3795,0
0.8262,-3.054856E-05,12.393,0,0.8262,0.0003323415,12.393,0
0.8271,2.484169E-05,12.4065,0,0.8271,0.0001654994,12.4065,0
0.828,2.920577E-05,12.42,0,0.828,3.222705E-05,12.42,0
0.8289,1.544213E-05,12.4335,0,0.8289,9.063859E-06,12.4335,0
0.8298,-2.24918E-05,12.447,0,0.8298,-1.745632E-05,12.447,0
0.8307,-1.812772E-05,12.4605,0,0.8307,-5.304036E-05,12.4605,0
0.8316,1.577783E-05,12.474,0,0.8316,-0.0001346151,12.474,0
0.8325,-2.24918E-05,12.4875,0,0.8325,-0.0001228656,12.4875,0
0.8334,-2.920577E-05,12.501,0,0.8334,-0.0001409934,12.501,0
0.8343,-8.090334E-05,12.5145,0,0.8343,-0.0002296178,12.5145,0
0.8352,-0.0001742275,12.528,0,0.8352,-0.0002339818,12.528,0
0.8361,-0.000144686,12.5415,0,0.8361,-0.000281651,12.5415,0
0.837,-0.000140322,12.555,0,0.837,-0.0003135424,12.555,0
0.8379,-0.0001534142,12.5685,0,0.8379,-0.0003283131,12.5685,0
0.8388,1.007095E-06,12.582,0,0.8388,-0.0002840009,12.582,0
0.8397,5.471885E-05,12.5955,0,0.8397,-0.0001889983,12.5955,0
0.8406,0.0001389792,12.609,0,0.8406,0.0001497215,12.609,0
0.8415,0.0002299535,12.6225,0,0.8415,0.0003511406,12.6225,0
0.8424,0.000203769,12.636,0,0.8424,0.0003219348,12.636,0
0.8433,0.0002145113,12.6495,0,0.8433,0.0004260014,12.6495,0
0.8442,0.0001154803,12.663,0,0.8442,0.0002732586,12.663,0
0.8451,4.934768E-05,12.6765,0,0.8451,0.000112459,12.6765,0
0.846,-1.107805E-05,12.69,0,0.846,3.256275E-05,12.69,0
0.8469,3.189136E-05,12.7035,0,0.8469,3.524834E-05,12.7035,0
0.8478,-2.551309E-05,12.717,0,0.8478,8.157473E-05,12.717,0
0.8487,-0.0001587854,12.7305,0,0.8487,-8.392462E-06,12.7305,0
0.8496,-0.000115816,12.744,0,0.8496,-0.0001144732,12.744,0
0.8505,-1.107805E-05,12.7575,0,0.8505,-0.0001007095,12.7575,0
0.8514,-2.484169E-05,12.771,0,0.8514,-0.0001460288,12.771,0
0.8523,1.577783E-05,12.7845,0,0.8523,-0.0001651637,12.7845,0
0.8532,1.007095E-06,12.798,0,0.8532,-0.0001560998,12.798,0
0.8541,1.846342E-05,12.8115,0,0.8541,-6.915389E-05,12.8115,0
0.855,-4.095522E-05,12.825,0,0.855,6.948959E-05,12.825,0
0.8559,-7.183947E-05,12.8385,0,0.8559,3.961242E-05,12.8385,0
0.8568,-0.000105745,12.852,0,0.8568,3.457694E-05,12.852,0
0.8577,-9.701686E-05,12.8655,0,0.8577,-0.0001631495,12.8655,0
0.8586,-6.311131E-05,12.879,0,0.8586,-0.0003538262,12.879,0
0.8595001,-0.0001873197,12.8925,0,0.8595001,-0.000246067,12.8925,0
0.8604,-0.0002487526,12.906,0,0.8604,-0.0001644923,12.906,0
0.8613,-0.0001198444,12.9195,0,0.8613,-2.316319E-05,12.9195,0
0.8622,-2.517739E-05,12.933,0,0.8622,5.606165E-05,12.933,0
0.8631,-8.627451E-05,12.9465,0,0.8631,7.754635E-05,12.9465,0
0.864,-5.001907E-05,12.96,0,0.864,0.0001752346,12.96,0
0.8649,4.061952E-05,12.9735,0,0.8649,0.0001097734,12.9735,0
0.8658,9.903105E-05,12.987,0,0.8658,-5.438316E-05,12.987,0
0.8667,0.0001628138,13.0005,0,0.8667,-0.0002611734,13.0005,0
0.8676,0.0001896696,13.014,0,0.8676,-0.0002997787,13.014,0
0.8685,9.097429E-05,13.0275,0,0.8685,-0.0003259632,13.0275,0
0.8694,2.652018E-05,13.041,0,0.8694,-0.0001275654,13.041,0
0.8703,-1.007095E-05,13.0545,0,0.8703,0.0002514381,13.0545,0
0.8712,-1.846342E-05,13.068,0,0.8712,0.0004320439,13.068,0
0.8721,-3.390555E-05,13.0815,0,0.8721,0.0003917601,13.0815,0
0.873,-0.0001225299,13.095,0,0.873,0.000246067,13.095,0
0.8739,-0.0001722133,13.1085,0,0.8739,0.0001282368,13.1085,0
0.8748,-0.0001003738,13.122,0,0.8748,2.786297E-05,13.122,0
0.8757,-0.0001433432,13.1355,0,0.8757,-7.956054E-05,13.1355,0
0.8766,-0.0001221943,13.149,0,0.8766,-4.699779E-05,13.149,0
0.8775,3.457694E-05,13.1625,0,0.8775,-5.505455E-05,13.1625,0
0.8784,0.0001916838,13.176,0,0.8784,-0.0001349508,13.176,0
0.8793,0.0003890745,13.1895,0,0.8793,-0.0002051118,13.1895,0
0.8802,0.0003847105,13.203,0,0.8802,-2.316319E-05,13.203,0
0.8811,6.6804E-05,13.2165,0,0.8811,2.349889E-05,13.2165,0
0.882,5.304036E-05,13.23,0,0.882,-4.934768E-05,13.23,0
0.8829,0.0001097734,13.2435,0,0.8829,4.36408E-06,13.2435,0
0.8838,-6.378271E-06,13.257,0,0.8838,-1.812772E-05,13.257,0
0.8847,-1.376364E-05,13.2705,0,0.8847,-7.821774E-05,13.2705,0
0.8856,5.102617E-05,13.284,0,0.8856,-0.0001668421,13.284,0
0.8865,0,13.2975,0,0.8865,-7.351797E-05,13.2975,0
0.8874,6.61326E-05,13.311,0,0.8874,-6.71397E-05,13.311,0
0.8883,6.74754E-05,13.3245,0,0.8883,-6.009003E-05,13.3245,0
0.8892,-5.001907E-05,13.338,0,0.8892,-8.157473E-05,13.338,0
0.8901,-6.61326E-05,13.3515,0,0.8901,-8.358892E-05,13.3515,0
0.891,2.1149E-05,13.365,0,0.891,-0.0001205158,13.365,0
0.8919,6.277562E-05,13.3785,0,0.8919,-0.0001540856,13.3785,0
0.8928,8.72816E-05,13.392,0,0.8928,-0.0001426719,13.392,0
0.8937,5.471885E-05,13.4055,0,0.8937,4.229801E-05,13.4055,0
0.8946,-2.28275E-05,13.419,0,0.8946,0.0002306248,13.419,0
0.8955,-6.74754E-05,13.4325,0,0.8955,0.0002440528,13.4325,0
0.8964,2.349889E-05,13.446,0,0.8964,0.0001748989,13.446,0
0.8973,4.53193E-05,13.4595,0,0.8973,0.0001329366,13.4595,0
0.8982,5.706874E-06,13.473,0,0.8982,-1.947051E-05,13.473,0
0.8991,9.365987E-05,13.4865,0,0.8991,-0.0001550927,13.4865,0
0.9,0.0001258869,13.5,0,0.9,-0.0002786297,13.5,0
0.9009,0.0001389792,13.5135,0,0.9009,-0.0001910124,13.5135,0
0.9018,0.0001366293,13.527,0,0.9018,0.0001198444,13.527,0
0.9027,-1.409934E-05,13.5405,0,0.9027,0.000337377,13.5405,0
0.9036,-0.0001876554,13.554,0,0.9036,0.000249424,13.554,0
0.9045,-0.000148043,13.5675,0,0.9045,0.0001393149,13.5675,0
0.9054,-4.46479E-05,13.581,0,0.9054,-9.063859E-06,13.581,0
0.9063,4.36408E-06,13.5945,0,0.9063,-0.0001070878,13.5945,0
0.9072,-3.994812E-05,13.608,0,0.9072,-0.0001292439,13.608,0
0.9081,-0.0001171588,13.6215,0,0.9081,-0.0002490883,13.6215,0
0.909,-3.692683E-05,13.635,0,0.909,-0.000345098,13.635,0
0.9099,-2.450599E-05,13.6485,0,0.9099,-0.000407538,13.6485,0
0.9108,-0.000115816,13.662,0,0.9108,-0.0003467765,13.662,0
0.9117,-4.33051E-05,13.6755,0,0.9117,-0.000133608,13.6755,0
0.9126,-1.544213E-05,13.689,0,0.9126,0.0001312581,13.689,0
0.9135,-8.224613E-05,13.7025,0,0.9135,0.0004340581,13.7025,0
0.9144,-3.424125E-05,13.716,0,0.9144,0.0004246586,13.716,0
0.9153,-6.378271E-05,13.7295,0,0.9153,0.0001436789,13.7295,0
0.9162,-8.89601E-05,13.743,0,0.9162,5.270466E-05,13.743,0
0.9171,5.035477E-05,13.7565,0,0.9171,5.203327E-05,13.7565,0
0.918,1.107805E-05,13.77,0,0.918,-0.0002081331,13.77,0
0.9189,-9.701686E-05,13.7835,0,0.9189,-0.0003779965,13.7835,0
0.9198,-3.356985E-05,13.797,0,0.9198,-0.0002403601,13.797,0
0.9207,-0.0001366293,13.8105,0,0.9207,-7.956054E-05,13.8105,0
0.9216,-5.136187E-05,13.824,0,0.9216,3.591974E-05,13.824,0
0.9225,0.000119173,13.8375,0,0.9225,0.0002366674,13.8375,0
0.9234,2.853437E-05,13.851,0,0.9234,0.0001467002,13.851,0
0.9243,-8.593881E-05,13.8645,0,0.9243,-0.0001420005,13.8645,0
0.9252,-0.0001379721,13.878,0,0.9252,-0.0002245823,13.878,0
0.9261,-6.009003E-05,13.8915,0,0.9261,-0.0002954147,13.8915,0
0.927,-0.0001164874,13.905,0,0.927,-0.0003769894,13.905,0
0.9279,-6.61326E-05,13.9185,0,0.9279,-0.0001947051,13.9185,0
0.9288,3.189136E-05,13.932,0,0.9288,0.0001171588,13.932,0
0.9297,3.289845E-05,13.9455,0,0.9297,0.0001050736,13.9455,0
0.9306,-1.913481E-05,13.959,0,0.9306,0.0002252537,13.959,0
0.9315,3.021286E-05,13.9725,0,0.9315,0.0005146257,13.9725,0
0.9324,2.987716E-05,13.986,0,0.9324,0.000633463,13.986,0
0.9333,3.189136E-05,13.9995,0,0.9333,0.000428687,13.9995,0
0.9342,-5.706874E-06,14.013,0,0.9342,0.0002766156,14.013,0
0.9351,-5.606165E-05,14.0265,0,0.9351,0.0001279011,14.0265,0
0.936,-7.888914E-05,14.04,0,0.936,-3.591974E-05,14.04,0
0.9369,-7.821774E-05,14.0535,0,0.9369,-7.016098E-05,14.0535,0
0.9378,-8.358892E-05,14.067,0,0.9378,-3.726253E-05,14.067,0
0.9387,-0.0001393149,14.0805,0,0.9387,-5.471885E-05,14.0805,0
0.9396001,-6.076142E-05,14.094,0,0.9396001,-0.0001329366,14.094,0
0.9405,-4.699779E-06,14.1075,0,0.9405,-4.162661E-05,14.1075,0
0.9414001,-3.323415E-05,14.121,0,0.9414001,-5.706874E-05,14.121,0
0.9423,-7.989624E-05,14.1345,0,0.9423,-0.0001252155,14.1345,0
0.9432001,3.054856E-05,14.148,0,0.9432001,-6.51255E-05,14.148,0
0.9441,4.129091E-05,14.1615,0,0.9441,-0.0001661708,14.1615,0
0.9450001,0.0001376364,14.175,0,0.9450001,-0.000263859,14.175,0
0.9459,0.0001940337,14.1885,0,0.9459,-0.0002803082,14.1885,0
0.9468,0.0001500572,14.202,0,0.9468,-0.0002547952,14.202,0
0.9477,2.316319E-05,14.2155,0,0.9477,-0.0001460288,14.2155,0
0.9486,-1.577783E-05,14.229,0,0.9486,-0.0001319295,14.229,0
0.9495,6.143282E-05,14.2425,0,0.9495,-0.0001748989,14.2425,0
0.9504,0.0001010452,14.256,0,0.9504,-0.0001493858,14.256,0
0.9513,7.855344E-05,14.2695,0,0.9513,-4.46479E-05,14.2695,0
0.9522,0.0001309224,14.283,0,0.9522,-8.392462E-06,14.283,0
0.9531,0.0001326009,14.2965,0,0.9531,1.913481E-05,14.2965,0
0.954,5.606165E-05,14.31,0,0.954,9.097429E-05,14.31,0
0.9549,4.39765E-05,14.3235,0,0.9549,0.0001393149,14.3235,0
0.9558,3.189136E-05,14.337,0,0.9558,7.284657E-05,14.337,0
0.9567,-4.36408E-06,14.3505,0,0.9567,4.196231E-05,14.3505,0
0.9576,-5.471885E-05,14.364,0,0.9576,1.678492E-06,14.364,0
0.9585,-7.553216E-05,14.3775,0,0.9585,-3.860533E-05,14.3775,0
0.9594,-0.0001339437,14.391,0,0.9594,-2.21561E-05,14.391,0
0.9603,-0.0001631495,14.4045,0,0.9603,-8.358892E-05,14.4045,0
0.9612,-0.0002155184,14.418,0,0.9612,4.36408E-06,14.418,0
0.9621,-0.0002091402,14.4315,0,0.9621,-3.021286E-06,14.4315,0
0.963,1.510643E-05,14.445,0,0.963,-0.0001722133,14.445,0
0.9639,0.0002017548,14.4585,0,0.9639,-0.0001856413,14.4585,0
0.9648,0.0001144732,14.472,0,0.9648,-5.673304E-05,14.472,0
0.9657,0.000119173,14.4855,0,0.9657,0.0001000381,14.4855,0
0.9666,0.0001618067,14.499,0,0.9666,1.477073E-05,14.499,0
0.9675,-1.007095E-06,14.5125,0,0.9675,8.82887E-05,14.5125,0
0.9684,2.887007E-05,14.526,0,0.9684,0.0001168231,14.526,0
0.9693,6.243992E-05,14.5395,0,0.9693,5.001907E-05,14.5395,0
0.9702,1.007095E-06,14.553,0,0.9702,2.24918E-05,14.553,0
0.9711,3.524834E-05,14.5665,0,0.9711,-3.927672E-05,14.5665,0
0.972,2.719158E-05,14.58,0,0.972,-0.0001440146,14.58,0
0.9729,5.807584E-05,14.5935,0,0.9729,-0.000200412,14.5935,0
0.9738,-6.713969E-07,14.607,0,0.9738,-0.0002521096,14.607,0
0.9747,-3.659113E-05,14.6205,0,0.9747,-0.0002057832,14.6205,0
0.9756,7.049668E-06,14.634,0,0.9756,-0.0001477073,14.634,0
0.9765,9.399558E-06,14.6475,0,0.9765,9.332418E-05,14.6475,0
0.9774,2.047761E-05,14.661,0,0.9774,0.0002611734,14.661,0
0.9783,-8.258183E-05,14.6745,0,0.9783,6.411841E-05,14.6745,0
0.9792,4.632639E-05,14.688,0,0.9792,-2.584878E-05,14.688,0
0.9801,0.000158114,14.7015,0,0.9801,0.0001221943,14.7015,0
0.981,3.860533E-05,14.715,0,0.981,0.0003403983,14.715,0
0.9819,-8.392462E-06,14.7285,0,0.9819,0.0002997787,14.7285,0
0.9828,6.78111E-05,14.742,0,0.9828,0.0001044022,14.742,0
0.9837,7.351797E-05,14.7555,0,0.9837,-1.376364E-05,14.7555,0
0.9846,0.0001359579,14.769,0,0.9846,-0.0001279011,14.769,0
0.9855,6.210422E-05,14.7825,0,0.9855,-0.0002185397,14.7825,0
0.9864,-1.040665E-05,14.796,0,0.9864,-0.000115816,14.796,0
0.9873,2.517739E-05,14.8095,0,0.9873,-6.881819E-05,14.8095,0
0.9882,-1.913481E-05,14.823,0,0.9882,-8.090334E-05,14.823,0
0.9891,-0.0001017166,14.8365,0,0.9891,6.344701E-05,14.8365,0
0.99,-0.0001141375,14.85,0,0.99,5.270466E-05,14.85,0
0.9909,-0.000190341,14.8635,0,0.9909,0.0001383078,14.8635,0
0.9918,-0.0001983978,14.877,0,0.9918,0.0002319677,14.877,0
0.9927,-0.0001279011,14.8905,0,0.9927,0.0001473716,14.8905,0
0.9936,-3.793393E-05,14.904,0,0.9936,9.500267E-05,14.904,0
0.9945,7.049668E-05,14.9175,0,0.9945,8.82887E-05,14.9175,0
0.9954,0.0001822843,14.931,0,0.9954,-5.236896E-05,14.931,0
0.9963,0.0001121233,14.9445,0,0.9963,-4.263371E-05,14.9445,0
0.9972,-5.438316E-05,14.958,0,0.9972,-0.0002813153,14.958,0
0.9981,-0.0001174945,14.9715,0,0.9981,-0.0003088426,14.9715,0
0.999,-7.049668E-06,14.985,0,0.999,-0.0001597925,14.985,0
0.9999,2.383459E-05,14.9985,0,0.9999,-0.0001423362,14.9985,0
1.0008,7.653925E-05,15.012,0,1.0008,-8.191043E-05,15.012,0
1.0017,6.881819E-05,15.0255,0,1.0017,-5.102617E-05,15.0255,0
1.0026,-0.0001994049,15.039,0,1.0026,-4.632639E-05,15.039,0
1.0035,-0.0002608377,15.0525,0,1.0035,-0.0001013809,15.0525,0
1.0044,-0.0001950408,15.066,0,1.0044,-0.0002722515,15.066,0
1.0053,-0.0002772869,15.0795,0,1.0053,-0.0003555047,15.0795,0
1.0062,-0.0002158541,15.093,0,1.0062,-0.000291722,15.093,0
1.0071,-9.835965E-05,15.1065,0,1.0071,-0.0003172351,15.1065,0
1.008,-0.0001701991,15.12,0,1.008,-0.0001383078,15.12,0
1.0089,-0.0002517739,15.1335,0,1.0089,0.0003179065,15.1335,0
1.0098,-0.0001305867,15.147,0,1.0098,0.0003951171,15.147,0
1.0107,2.719158E-05,15.1605,0,1.0107,0.0001054093,15.1605,0
1.0116,-1.342794E-06,15.174,0,1.0116,-0.0001007095,15.174,0
1.0125,-3.994812E-05,15.1875,0,1.0125,-0.0002178683,15.1875,0
1.0134,-1.980621E-05,15.201,0,1.0134,-0.0002920577,15.201,0
1.0143,5.035477E-06,15.2145,0,1.0143,-6.881819E-05,15.2145,0
1.0152,-6.277562E-05,15.228,0,1.0152,0.0004390936,15.228,0
1.0161,-5.001907E-05,15.2415,0,1.0161,0.0005042191,15.2415,0
1.017,-3.323415E-05,15.255,0,1.017,0.0003192493,15.255,0
1.0179,4.095522E-05,15.2685,0,1.0179,0.0001722133,15.2685,0
1.0188,7.821774E-05,15.282,0,1.0188,0.0001735561,15.282,0
1.0197,0.0001332723,15.2955,0,1.0197,0.0001930266,15.2955,0
1.0206,7.653925E-05,15.309,0,1.0206,7.083238E-05,15.309,0
1.0215,0,15.3225,0,1.0215,-1.611353E-05,15.3225,0
1.0224,7.150377E-05,15.336,0,1.0224,-7.956054E-05,15.336,0
1.0233,0.0001416648,15.3495,0,1.0233,-0.0002208896,15.3495,0
1.0242,-5.337606E-05,15.363,0,1.0242,-0.000257145,15.363,0
1.0251,-0.0001312581,15.3765,0,1.0251,-0.0002809796,15.3765,0
1.026,-7.385367E-05,15.39,0,1.026,-0.0002833295,15.39,0
1.0269,-3.726253E-05,15.4035,0,1.0269,-3.659113E-05,15.4035,0
1.0278,0.0001701991,15.417,0,1.0278,0.0002279393,15.417,0
1.0287,0.0001745632,15.4305,0,1.0287,0.0003101854,15.4305,0
1.0296,1.577783E-05,15.444,0,1.0296,0.0001806058,15.444,0
1.0305,-4.162661E-05,15.4575,0,1.0305,1.309224E-05,15.4575,0
1.0314,-2.987716E-05,15.471,0,1.0314,-3.390555E-05,15.471,0
1.0323,-6.478981E-05,15.4845,0,1.0323,2.987716E-05,15.4845,0
1.0332,1.275654E-05,15.498,0,1.0332,0.0001242084,15.498,0
1.0341,5.270466E-05,15.5115,0,1.0341,1.443504E-05,15.5115,0
1.035,-7.486076E-05,15.525,0,1.035,-7.183947E-05,15.525,0
1.0359,2.1149E-05,15.5385,0,1.0359,-5.505455E-05,15.5385,0
1.0368,0.0001017166,15.552,0,1.0368,-0.0001319295,15.552,0
1.0377,6.042573E-06,15.5655,0,1.0377,-7.083238E-05,15.5655,0
1.0386,4.766919E-05,15.579,0,1.0386,-6.009003E-05,15.579,0
1.0395,6.61326E-05,15.5925,0,1.0395,-0.0001181659,15.5925,0
1.0404,-4.699779E-06,15.606,0,1.0404,-0.0001493858,15.606,0
1.0413,4.867628E-05,15.6195,0,1.0413,-0.0001433432,15.6195,0
1.0422,7.083238E-05,15.633,0,1.0422,-0.0001138018,15.633,0
1.0431,-5.069047E-05,15.6465,0,1.0431,-7.351797E-05,15.6465,0
1.044,-0.0001141375,15.66,0,1.044,-0.0001000381,15.66,0
1.0449,6.378271E-06,15.6735,0,1.0449,-0.0001832914,15.6735,0
1.0458,-2.517739E-05,15.687,0,1.0458,-0.0001715419,15.687,0
1.0467,-0.0001050736,15.7005,0,1.0467,-0.000148043,15.7005,0
1.0476,-4.129091E-05,15.714,0,1.0476,-0.0001574426,15.714,0
1.0485,-7.418937E-05,15.7275,0,1.0485,-2.450599E-05,15.7275,0
1.0494,-3.927672E-05,15.741,0,1.0494,0.0001312581,15.741,0
1.0503,-2.517739E-05,15.7545,0,1.0503,0.0002480812,15.7545,0
1.0512,-7.016098E-05,15.768,0,1.0512,0.0001138018,15.768,0
1.0521,-0.0001144732,15.7815,0,1.0521,-5.035477E-06,15.7815,0
1.053,-0.0001070878,15.795,0,1.053,-6.042573E-05,15.795,0
1.0539,-9.332418E-05,15.8085,0,1.0539,-0.0001309224,15.8085,0
1.0548,3.894102E-05,15.822,0,1.0548,-0.0002417029,15.822,0
1.0557,0.0001134661,15.8355,0,1.0557,-0.0002319677,15.8355,0
1.0566,0.0001994049,15.849,0,1.0566,-0.0001215228,15.849,0
1.0575,0.0001587854,15.8625,0,1.0575,-0.0001584497,15.8625,0
1.0584,-3.256275E-05,15.876,0,1.0584,-4.867628E-05,15.876,0
1.0593,-0.0001339437,15.8895,0,1.0593,5.069047E-05,15.8895,0
1.0602,-0.0001497215,15.903,0,1.0602,-5.975433E-05,15.903,0
1.0611,-9.735256E-05,15.9165,0,1.0611,-8.526741E-05,15.9165,0
1.062,-0.0001658351,15.93,0,1.062,-1.846342E-05,15.93,0
1.0629,-4.33051E-05,15.9435,0,1.0629,0.0001366293,15.9435,0
1.0638,0.0001436789,15.957,0,1.0638,-6.210422E-05,15.957,0
1.0647,0.0003806821,15.9705,0,1.0647,-0.0001362936,15.9705,0
1.0656,0.0004401007,15.984,0,1.0656,-0.0001426719,15.984,0
1.0665,0.0002688945,15.9975,0,1.0665,-0.0003017929,15.9975,0
1.0674,5.001907E-05,16.011,0,1.0674,-0.0001117876,16.011,0
1.0683,3.692683E-06,16.0245,0,1.0683,3.289845E-05,16.0245,0
1.0692,-2.652018E-05,16.038,0,1.0692,0.0001164874,16.038,0
1.0701,-8.627451E-05,16.0515,0,1.0701,0.0003816892,16.0515,0
1.071,-1.712062E-05,16.065,0,1.071,0.0005549096,16.065,0
1.0719,-1.510643E-05,16.0785,0,1.0719,0.0005475243,16.0785,0
1.0728,-0.0001265583,16.092,0,1.0728,0.0004139162,16.092,0
1.0737,-2.383459E-05,16.1055,0,1.0737,0.0001493858,16.1055,0
1.0746,8.493171E-05,16.119,0,1.0746,-1.007095E-06,16.119,0
1.0755,-0.000102388,16.1325,0,1.0755,-0.0001514,16.1325,0
1.0764,-0.0001211871,16.146,0,1.0764,-0.00033402,16.146,0
1.0773,-5.572595E-05,16.1595,0,1.0773,-0.0003900816,16.1595,0
1.0782,2.1149E-05,16.173,0,1.0782,-0.0002339818,16.173,0
1.0791,-2.987716E-05,16.1865,0,1.0791,-1.846342E-05,16.1865,0
1.08,7.116808E-05,16.2,0,1.08,0.0001258869,16.2,0
1.0809,4.599069E-05,16.2135,0,1.0809,0.0001339437,16.2135,0
1.0818,-1.712062E-05,16.227,0,1.0818,0.0001715419,16.227,0
1.0827,-0.0001406577,16.2405,0,1.0827,4.49836E-05,16.2405,0
1.0836,-0.0002769512,16.254,0,1.0836,-0.0001141375,16.254,0
1.0845,-0.0002202182,16.2675,0,1.0845,-0.0001550927,16.2675,0
1.0854,-1.208515E-05,16.281,0,1.0854,-0.0001117876,16.281,0
1.0863,7.049668E-05,16.2945,0,1.0863,-2.920577E-05,16.2945,0
1.0872,3.524834E-05,16.308,0,1.0872,-4.028382E-05,16.308,0
1.0881,-1.712062E-05,16.3215,0,1.0881,-8.056764E-05,16.3215,0
1.089,-0.0001040665,16.335,0,1.089,-5.572595E-05,16.335,0
1.0899,3.659113E-05,16.3485,0,1.0899,4.028382E-06,16.3485,0
1.0908,0.0001020523,16.362,0,1.0908,-6.411841E-05,16.362,0
1.0917,2.383459E-05,16.3755,0,1.0917,-7.754635E-05,16.3755,0
1.0926,-2.987716E-05,16.389,0,1.0926,-5.941863E-05,16.389,0
1.0935,2.349889E-06,16.4025,0,1.0935,-7.989624E-05,16.4025,0
1.0944,4.129091E-05,16.416,0,1.0944,-4.867628E-05,16.416,0
1.0953,9.735256E-06,16.4295,0,1.0953,-5.774014E-05,16.4295,0
1.0962,-6.243992E-05,16.443,0,1.0962,-5.001907E-05,16.443,0
1.0971,-2.853437E-05,16.4565,0,1.0971,-6.378271E-05,16.4565,0
1.098,3.021286E-06,16.47,0,1.098,-8.795301E-05,16.47,0
1.0989,-4.229801E-05,16.4835,0,1.0989,-0.0001185016,16.4835,0
1.0998,-6.277562E-05,16.497,0,1.0998,-0.000119173,16.497,0
1.1007,-2.24918E-05,16.5105,0,1.1007,-1.275654E-05,16.5105,0
1.1016,6.109713E-05,16.524,0,1.1016,0.0001735561,16.524,0
1.1025,-2.450599E-05,16.5375,0,1.1025,0.0001983978,16.5375,0
1.1034,6.713969E-06,16.551,0,1.1034,0.0001564355,16.551,0
1.1043,4.934768E-05,16.5645,0,1.1043,0.000164828,16.5645,0
1.1052,-9.600977E-05,16.578,0,1.1052,8.493171E-05,16.578,0
1.1061,-0.0001507286,16.5915,0,1.1061,2.719158E-05,16.5915,0
1.107,-0.0001107805,16.605,0,1.107,1.040665E-05,16.605,0
1.1079,-0.0001050736,16.6185,0,1.1079,9.063859E-06,16.6185,0
1.1088,-3.726253E-05,16.632,0,1.1088,-7.049668E-06,16.632,0
1.1097,3.726253E-05,16.6455,0,1.1097,-4.565499E-05,16.6455,0
1.1106,-1.174945E-05,16.659,0,1.1106,-7.989624E-05,16.659,0
1.1115,0.0001044022,16.6725,0,1.1115,-0.0001282368,16.6725,0
1.1124,0.0001715419,16.686,0,1.1124,-0.0002336461,16.686,0
1.1133,6.009003E-05,16.6995,0,1.1133,-0.0001822843,16.6995,0
1.1142,5.136187E-05,16.713,0,1.1142,-1.879912E-05,16.713,0
1.1151,0.0001560998,16.7265,0,1.1151,5.236896E-05,16.7265,0
1.116,8.123904E-05,16.74,0,1.116,0.0001624781,16.74,0
1.1169,2.047761E-05,16.7535,0,1.1169,0.0001460288,16.7535,0
1.1178,2.652018E-05,16.767,0,1.1178,-3.424125E-05,16.767,0
1.1187,4.36408E-06,16.7805,0,1.1187,-0.0002302892,16.7805,0
1.1196,-7.486076E-05,16.794,0,1.1196,-0.0002682231,16.794,0
1.1205,-4.599069E-05,16.8075,0,1.1205,-0.0002259251,16.8075,0
1.1214,-1.242084E-05,16.821,0,1.1214,-5.941863E-05,16.821,0
1.1223,-2.1149E-05,16.8345,0,1.1223,0.000263859,16.8345,0
1.1232,-7.284657E-05,16.848,0,1.1232,0.0003756466,16.848,0
1.1241,-0.0001198444,16.8615,0,1.1241,0.0002611734,16.8615,0
1.125,-8.526741E-05,16.875,0,1.125,0.0002655375,16.875,0
1.1259,7.821774E-05,16.8885,0,1.1259,1.275654E-05,16.8885,0
1.1268,7.620356E-05,16.902,0,1.1268,-5.673304E-05,16.902,0
1.1277,7.083238E-05,16.9155,0,1.1277,2.383459E-05,16.9155,0
1.1286,0.0001151446,16.929,0,1.1286,0.0001977264,16.929,0
1.1295,0.0002077974,16.9425,0,1.1295,0.0002611734,16.9425,0
1.1304,0.00021149,16.956,0,1.1304,5.471885E-05,16.956,0
1.1313,0.000161471,16.9695,0,1.1313,-7.486076E-05,16.9695,0
1.1322,9.231708E-05,16.983,0,1.1322,-1.007095E-05,16.983,0
1.1331,-9.164568E-05,16.9965,0,1.1331,-2.719158E-05,16.9965,0
1.134,-0.0001560998,17.01,0,1.134,-0.0001077592,17.01,0
1.1349,-0.0001399863,17.0235,0,1.1349,-0.0001107805,17.0235,0
1.1358,-0.0001322652,17.037,0,1.1358,-0.0002235752,17.037,0
1.1367,-0.000158114,17.0505,0,1.1367,-0.0004746777,17.0505,0
1.1376,-2.18204E-05,17.064,0,1.1376,-0.0005894866,17.064,0
1.1385,0.0002030976,17.0775,0,1.1385,-0.0006116426,17.0775,0
1.1394,0.0002245823,17.091,0,1.1394,-0.0006133211,17.091,0
1.1403,9.735256E-05,17.1045,0,1.1403,-0.0002833295,17.1045,0
1.1412,0.0001299153,17.118,0,1.1412,0.0004696422,17.118,0
1.1421,0.0001319295,17.1315,0,1.1421,0.0008281682,17.1315,0
1.143,-4.028382E-06,17.145,0,1.143,0.0006844892,17.145,0
1.1439,9.735256E-06,17.1585,0,1.1439,0.0003884031,17.1585,0
1.1448,0.000105745,17.172,0,1.1448,0.0001346151,17.172,0
1.1457,-0.0001138018,17.1855,0,1.1457,3.054856E-05,17.1855,0
1.1466,-0.0002051118,17.199,0,1.1466,2.685588E-06,17.199,0
1.1475,-9.970245E-05,17.2125,0,1.1475,-3.961242E-05,17.2125,0
1.1484,-0.0001151446,17.226,0,1.1484,-2.551309E-05,17.226,0
1.1493,-0.0001383078,17.2395,0,1.1493,-8.82887E-05,17.2395,0
1.1502,-9.298848E-05,17.253,0,1.1502,-0.0001426719,17.253,0
1.1511,-0.0001591211,17.2665,0,1.1511,-0.0001413291,17.2665,0
1.152,-0.0003085069,17.28,0,1.152,-0.0003387198,17.28,0
1.1529,-0.0003058213,17.2935,0,1.1529,-0.0003622186,17.2935,0
1.1538,-0.0002000763,17.307,0,1.1538,-0.0002346532,17.307,0
1.1547,-7.956054E-05,17.3205,0,1.1547,-6.411841E-05,17.3205,0
1.1556,4.934768E-05,17.334,0,1.1556,-9.063859E-06,17.334,0
1.1565,-5.001907E-05,17.3475,0,1.1565,-1.947051E-05,17.3475,0
1.1574,-0.0001275654,17.361,0,1.1574,-0.0002205539,17.361,0
1.1583,-0.0001238727,17.3745,0,1.1583,-0.0003118639,17.3745,0
1.1592,-0.0001010452,17.388,0,1.1592,-0.0002521096,17.388,0
1.1601,-9.735256E-05,17.4015,0,1.1601,-0.0001654994,17.4015,0
1.161,2.383459E-05,17.415,0,1.161,-8.392462E-05,17.415,0
1.1619,0.0002813153,17.4285,0,1.1619,0.0001033951,17.4285,0
1.1628,0.0004736705,17.442,0,1.1628,0.0002366674,17.442,0
1.1637,0.0001822843,17.4555,0,1.1637,0.0002504311,17.4555,0
1.1646,-3.692683E-06,17.469,0,1.1646,0.0001218585,17.469,0
1.1655,5.606165E-05,17.4825,0,1.1655,-2.450599E-05,17.4825,0
1.1664,6.411841E-05,17.496,0,1.1664,-8.96315E-05,17.496,0
1.1673,0.0001131304,17.5095,0,1.1673,-2.316319E-05,17.5095,0
1.1682,0.0001769131,17.523,0,1.1682,5.606165E-05,17.523,0
1.1691,0.0001151446,17.5365,0,1.1691,-2.014191E-06,17.5365,0
1.17,-4.129091E-05,17.55,0,1.17,-5.136187E-05,17.55,0
1.1709,-0.0001000381,17.5635,0,1.1709,-5.539025E-05,17.5635,0
1.1718,-7.855344E-05,17.577,0,1.1718,-9.970245E-05,17.577,0
1.1727,-5.841154E-05,17.5905,0,1.1727,-9.466698E-05,17.5905,0
1.1736,-0.0001507286,17.604,0,1.1736,-0.0001373007,17.604,0
1.1745,-0.0001211871,17.6175,0,1.1745,-0.0001373007,17.6175,0
1.1754,-0.0001765774,17.631,0,1.1754,-0.0002098116,17.631,0
1.1763,-0.0002155184,17.6445,0,1.1763,-0.000312871,17.6445,0
1.1772,-0.0002198825,17.658,0,1.1772,-0.0003071641,17.658,0
1.1781,-0.0001077592,17.6715,0,1.1781,-0.0002289464,17.6715,0
1.179,-1.846342E-05,17.685,0,1.179,-0.0003326772,17.685,0
1.1799,4.49836E-05,17.6985,0,1.1799,-0.0003155566,17.6985,0
1.1808,0.0001507286,17.712,0,1.1808,0.0001567712,17.712,0
1.1817,0.0003044785,17.7255,0,1.1817,0.0005475243,17.7255,0
1.1826,0.0003944457,17.739,0,1.1826,0.000604593,17.739,0
1.1835,0.0001218585,17.7525,0,1.1835,0.0005790799,17.7525,0
1.1844,4.53193E-05,17.766,0,1.1844,0.0005690089,17.766,0
1.1853,0.0001218585,17.7795,0,1.1853,0.0004703136,17.7795,0
1.1862,-1.242084E-05,17.793,0,1.1862,0.0002803082,17.793,0
1.1871,-0.0001037308,17.8065,0,1.1871,0.000112459,17.8065,0
1.188,-4.129091E-05,17.82,0,1.188,2.450599E-05,17.82,0
1.1889,-6.344701E-05,17.8335,0,1.1889,1.980621E-05,17.8335,0
1.1898,-7.586786E-05,17.847,0,1.1898,1.980621E-05,17.847,0
1.1907,-0.0001003738,17.8605,0,1.1907,-1.846342E-05,17.8605,0
1.1916,-0.000144686,17.874,0,1.1916,-6.143282E-05,17.874,0
1.1925,-0.000105745,17.8875,0,1.1925,-8.291753E-05,17.8875,0
1.1934,-6.478981E-05,17.901,0,1.1934,-0.0001188373,17.901,0
1.1943,-0.0001329366,17.9145,0,1.1943,-9.298848E-05,17.9145,0
1.1952,-9.030289E-05,17.928,0,1.1952,-6.915389E-05,17.928,0
1.1961,-7.049668E-06,17.9415,0,1.1961,-8.89601E-05,17.9415,0
1.197,1.980621E-05,17.955,0,1.197,-8.728161E-06,17.955,0
1.1979,0.0001467002,17.9685,0,1.1979,4.733349E-05,17.9685,0
1.1988,9.500267E-05,17.982,0,1.1988,1.779202E-05,17.982,0
1.1997,5.001907E-05,17.9955,0,1.1997,-1.040665E-05,17.9955,0
1.2006,8.526741E-05,18.009,0,1.2006,-0.000112459,18.009,0
1.2015,4.46479E-05,18.0225,0,1.2015,-0.000361883,18.0225,0
1.2024,1.007095E-06,18.036,0,1.2024,-0.0005092546,18.036,0
1.2033,1.443504E-05,18.0495,0,1.2033,-0.0004303654,18.0495,0
1.2042,3.726253E-05,18.063,0,1.2042,-0.000369604,18.063,0
1.2051,-4.129091E-05,18.0765,0,1.2051,-0.0001483787,18.0765,0
1.206,-1.107805E-05,18.09,0,1.206,0.0002131685,18.09,0
1.2069,6.143282E-05,18.1035,0,1.2069,0.0004333867,18.1035,0
1.2078,-1.779202E-05,18.117,0,1.2078,0.0002521096,18.117,0
1.2087,-8.392462E-06,18.1305,0,1.2087,0.0001426719,18.1305,0
1.2096,4.39765E-05,18.144,0,1.2096,9.970245E-05,18.144,0
1.2105,-4.733349E-05,18.1575,0,1.2105,9.500267E-05,18.1575,0
1.2114,-1.309224E-05,18.171,0,1.2114,4.599069E-05,18.171,0
1.2123,1.443504E-05,18.1845,0,1.2123,6.713969E-06,18.1845,0
1.2132,-4.599069E-05,18.198,0,1.2132,9.399558E-06,18.198,0
1.2141,-4.43122E-05,18.2115,0,1.2141,-6.277562E-05,18.2115,0
1.215,-5.136187E-05,18.225,0,1.215,-7.452507E-05,18.225,0
1.2159,-3.121996E-05,18.2385,0,1.2159,-0.0001195087,18.2385,0
1.2168,1.007095E-06,18.252,0,1.2168,-0.000200412,18.252,0
1.2177,2.383459E-05,18.2655,0,1.2177,-0.0002020905,18.2655,0
1.2186,3.054856E-05,18.279,0,1.2186,-0.000218204,18.279,0
1.2195,-4.53193E-05,18.2925,0,1.2195,-0.0003192493,18.2925,0
1.2204,-3.793393E-05,18.306,0,1.2204,-0.000291722,18.306,0
1.2213,-3.860533E-05,18.3195,0,1.2213,1.342794E-06,18.3195,0
1.2222,4.33051E-05,18.333,0,1.2222,1.141375E-05,18.333,0
1.2231,0.0002188754,18.3465,0,1.2231,-0.0002088045,18.3465,0
1.224,0.0001305867,18.36,0,1.224,-0.0002524453,18.36,0
1.2249,2.652018E-05,18.3735,0,1.2249,-0.0003038071,18.3735,0
1.2258,6.076142E-05,18.387,0,1.2258,-0.0002259251,18.387,0
1.2267,6.009003E-05,18.4005,0,1.2267,0.0002453956,18.4005,0
1.2276,4.39765E-05,18.414,0,1.2276,0.0005545739,18.414,0
1.2285,3.189136E-05,18.4275,0,1.2285,0.0004394293,18.4275,0
1.2294,-1.376364E-05,18.441,0,1.2294,0.0003400626,18.441,0
1.2303,7.821774E-05,18.4545,0,1.2303,0.0003890745,18.4545,0
1.2312,0.000158114,18.468,0,1.2312,0.0003591974,18.468,0
1.2321,0.0001836271,18.4815,0,1.2321,0.0001873197,18.4815,0
1.233,0.000105745,18.495,0,1.233,-3.356985E-07,18.495,0
1.2339,-0.0001178302,18.5085,0,1.2339,-0.0001339437,18.5085,0
1.2348,-0.0003158923,18.522,0,1.2348,-4.028382E-05,18.522,0
1.2357,-0.0003790036,18.5355,0,1.2357,1.376364E-05,18.5355,0
1.2366,-0.0003870603,18.549,0,1.2366,8.392462E-05,18.549,0
1.2375,-0.0002581521,18.5625,0,1.2375,0.0002262608,18.5625,0
1.2384,0.0002333104,18.576,0,1.2384,0.0001107805,18.576,0
1.2393,0.0006811322,18.5895,0,1.2393,-2.719158E-05,18.5895,0
1.2402,0.0004045167,18.603,0,1.2402,-6.277562E-05,18.603,0
1.2411,-1.107805E-05,18.6165,0,1.2411,-8.157473E-05,18.6165,0
1.242,-9.500267E-05,18.63,0,1.242,-0.0001265583,18.63,0
1.2429,-0.000126894,18.6435,0,1.2429,-0.0001443503,18.6435,0
1.2438,-0.0001376364,18.657,0,1.2438,-0.0001802701,18.657,0
1.2447,-0.0001785916,18.6705,0,1.2447,-0.0001564355,18.6705,0
1.2456,-0.0001433432,18.684,0,1.2456,-0.0001453574,18.684,0
1.2465,-0.000109102,18.6975,0,1.2465,-0.0001926909,18.6975,0
1.2474,-0.0001315938,18.711,0,1.2474,-0.0002608377,18.711,0
1.2483,-0.0001722133,18.7245,0,1.2483,-0.0002010834,18.7245,0
1.2492,-0.000119173,18.738,0,1.2492,-0.0001806058,18.738,0
1.2501,-0.0001728847,18.7515,0,1.2501,-0.0002487526,18.7515,0
1.251,-0.0002967575,18.765,0,1.251,-0.0002084688,18.765,0
1.2519,-0.0001983978,18.7785,0,1.2519,-0.0001050736,18.7785,0
1.2528,-0.000158114,18.792,0,1.2528,-0.0001554284,18.792,0
1.2537,-0.0002437171,18.8055,0,1.2537,-0.0003749752,18.8055,0
1.2546,-0.0002329748,18.819,0,1.2546,-0.000148043,18.819,0
1.2555,-0.0001708705,18.8325,0,1.2555,0.0001460288,18.8325,0
1.2564,-0.0001389792,18.846,0,1.2564,0.000239353,18.846,0
1.2573,-3.793393E-05,18.8595,0,1.2573,0.0001661708,18.8595,0
1.2582,2.517739E-05,18.873,0,1.2582,0.0001863127,18.873,0
1.2591,-9.063859E-06,18.8865,0,1.2591,0.0001594568,18.8865,0
1.26,7.888914E-05,18.9,0,1.26,7.083238E-05,18.9,0
1.2609,0.0001000381,18.9135,0,1.2609,-2.24918E-05,18.9135,0
1.2618,-7.888914E-05,18.927,0,1.2618,-0.0001332723,18.927,0
1.2627,-9.265278E-05,18.9405,0,1.2627,-0.00018262,18.9405,0
1.2636,6.54612E-05,18.954,0,1.2636,-0.0001735561,18.954,0
1.2645,-5.941863E-05,18.9675,0,1.2645,-7.016098E-05,18.9675,0
1.2654,-4.934768E-05,18.981,0,1.2654,1.779202E-05,18.981,0
1.2663,0.0002514381,18.9945,0,1.2663,3.524834E-05,18.9945,0
1.2672,0.0004051881,19.008,0,1.2672,0.0002124971,19.008,0
1.2681,0.0002521096,19.0215,0,1.2681,0.0001339437,19.0215,0
1.269,0.0001080949,19.035,0,1.269,-9.634547E-05,19.035,0
1.2699,8.224613E-05,19.0485,0,1.2699,-0.0001037308,19.0485,0
1.2708,5.236896E-05,19.062,0,1.2708,-0.0002188754,19.062,0
1.2717,9.634547E-05,19.0755,0,1.2717,-0.000355169,19.0755,0
1.2726,0.0001537499,19.089,0,1.2726,-0.0002806439,19.089,0
1.2735,0.0001097734,19.1025,0,1.2735,-0.0001836271,19.1025,0
1.2744,1.779202E-05,19.116,0,1.2744,-0.0001198444,19.116,0
1.2753,-3.356985E-07,19.1295,0,1.2753,8.023193E-05,19.1295,0
1.2762,1.510643E-05,19.143,0,1.2762,0.0002735943,19.143,0
1.2771,8.459602E-05,19.1565,0,1.2771,0.0005582666,19.1565,0
1.278,4.36408E-06,19.17,0,1.278,0.0005817655,19.17,0
1.2789,-5.639734E-05,19.1835,0,1.2789,0.0005334249,19.1835,0
1.2798,-3.054856E-05,19.197,0,1.2798,0.000288365,19.197,0
1.2807,-4.733349E-05,19.2105,0,1.2807,0.0001715419,19.2105,0
1.2816,-3.826963E-05,19.224,0,1.2816,0.0001205158,19.224,0
1.2825,3.692683E-05,19.2375,0,1.2825,7.284657E-05,19.2375,0
1.2834,7.284657E-05,19.251,0,1.2834,2.383459E-05,19.251,0
1.2843,4.934768E-05,19.2645,0,1.2843,-3.524834E-05,19.2645,0
1.2852,-4.196231E-05,19.278,0,1.2852,-1.040665E-05,19.278,0
1.2861,-0.0001211871,19.2915,0,1.2861,-6.042573E-05,19.2915,0
1.287,2.1149E-05,19.305,0,1.287,-0.0001013809,19.305,0
1.2879,8.426032E-05,19.3185,0,1.2879,-0.0001393149,19.3185,0
1.2888,-1.879912E-05,19.332,0,1.2888,-0.0001467002,19.332,0
1.2897,-1.174945E-05,19.3455,0,1.2897,-9.332418E-05,19.3455,0
1.2906,7.217517E-05,19.359,0,1.2906,-7.217517E-05,19.359,0
1.2915,2.1149E-05,19.3725,0,1.2915,-7.687495E-05,19.3725,0
1.2924,1.913481E-05,19.386,0,1.2924,-0.0001413291,19.386,0
1.2933,8.459602E-05,19.3995,0,1.2933,-0.0003011215,19.3995,0
1.2942,1.678492E-05,19.413,0,1.2942,-0.0002876936,19.413,0
1.2951,-4.095522E-05,19.4265,0,1.2951,-0.0001574426,19.4265,0
1.296,3.826963E-05,19.44,0,1.296,-0.0001131304,19.44,0
1.2969,3.054856E-05,19.4535,0,1.2969,-0.0001040665,19.4535,0
1.2978,2.719158E-05,19.467,0,1.2978,-0.0001745632,19.467,0
1.2987,1.577783E-05,19.4805,0,1.2987,-0.000186984,19.4805,0
1.2996,-6.009003E-05,19.494,0,1.2996,-0.0002329748,19.494,0
1.3005,-4.53193E-05,19.5075,0,1.3005,-0.0003568475,19.5075,0
1.3014,1.678492E-06,19.521,0,1.3014,-0.0003602045,19.521,0
1.3023,-7.956054E-05,19.5345,0,1.3023,-0.0001144732,19.5345,0
1.3032,-4.934768E-05,19.548,0,1.3032,0.000185977,19.548,0
1.3041,3.021286E-05,19.5615,0,1.3041,0.0005005265,19.5615,0
1.305,5.337606E-05,19.575,0,1.305,0.0006421912,19.575,0
1.3059,0.0001265583,19.5885,0,1.3059,0.0004682994,19.5885,0
1.3068,0.000109102,19.602,0,1.3068,0.0001715419,19.602,0
1.3077,-1.040665E-05,19.6155,0,1.3077,0.0001131304,19.6155,0
1.3086,-4.934768E-05,19.629,0,1.3086,0.0001822843,19.629,0
1.3095,-4.33051E-05,19.6425,0,1.3095,0.0001201801,19.6425,0
1.3104,-2.383459E-05,19.656,0,1.3104,9.701686E-05,19.656,0
1.3113,-8.123904E-05,19.6695,0,1.3113,-5.069047E-05,19.6695,0
1.3122,-0.0001550927,19.683,0,1.3122,-0.000267216,19.683,0
1.3131,-0.000154757,19.6965,0,1.3131,-0.0003497978,19.6965,0
1.314,-0.0001010452,19.71,0,1.314,-0.0003541619,19.71,0
1.3149,3.021286E-05,19.7235,0,1.3149,-0.0002400244,19.7235,0
1.3158,5.438316E-05,19.737,0,1.3158,-4.263371E-05,19.737,0
1.3167,0.0001315938,19.7505,0,1.3167,0.0001205158,19.7505,0
1.3176,0.0001463645,19.764,0,1.3176,-3.457694E-05,19.764,0
1.3185,0.0001003738,19.7775,0,1.3185,-7.855344E-05,19.7775,0
1.3194,0.000115816,19.791,0,1.3194,9.735256E-06,19.791,0
1.3203,-1.342794E-06,19.8045,0,1.3203,-1.611353E-05,19.8045,0
1.3212,-9.265278E-05,19.818,0,1.3212,-3.961242E-05,19.818,0
1.3221,-4.968337E-05,19.8315,0,1.3221,-0.0001201801,19.8315,0
1.323,-1.913481E-05,19.845,0,1.323,-0.0001221943,19.845,0
1.3239,6.009003E-05,19.8585,0,1.3239,4.028382E-06,19.8585,0
1.3248,8.493171E-05,19.872,0,1.3248,8.392462E-06,19.872,0
1.3257,-0.0001010452,19.8855,0,1.3257,-0.0001211871,19.8855,0
1.3266,-0.0003155566,19.899,0,1.3266,-9.970245E-05,19.899,0
1.3275,-0.0002853437,19.9125,0,1.3275,-0.0001131304,19.9125,0
1.3284,-3.088426E-05,19.926,0,1.3284,-2.853437E-05,19.926,0
1.3293,-0.0001765774,19.9395,0,1.3293,-0.0001601282,19.9395,0
1.3302,-8.69459E-05,19.953,0,1.3302,-0.0003165637,19.953,0
1.3311,0.0003172351,19.9665,0,1.3311,-0.0003175708,19.9665,0
1.332,0.0003494621,19.98,0,1.332,-0.0003165637,19.98,0
1.3329,0.0001420005,19.9935,0,1.3329,-0.0002326391,19.9935,0
1.3338,-3.021286E-06,20.007,0,1.3338,0.0002212253,20.007,0
1.3347,-0.0001722133,20.0205,0,1.3347,0.0007476005,20.0205,0
1.3356,-0.0001362936,20.034,0,1.3356,0.0006173495,20.034,0
1.3365,2.786297E-05,20.0475,0,1.3365,0.0003232776,20.0475,0
1.3374,5.001907E-05,20.061,0,1.3374,0.0002057832,20.061,0
1.3383,0.000154757,20.0745,0,1.3383,0.0001352865,20.0745,0
1.3392,0.0001299153,20.088,0,1.3392,8.090334E-05,20.088,0
1.3401,4.095522E-05,20.1015,0,1.3401,0.0001366293,20.1015,0
1.341,-6.6804E-05,20.115,0,1.341,0.0002084688,20.115,0
1.3419,-0.0001332723,20.1285,0,1.3419,3.189136E-05,20.1285,0
1.3428,-0.0002208896,20.142,0,1.3428,-2.081331E-05,20.142,0
1.3437,-0.0002286107,20.1555,0,1.3437,1.510643E-05,20.1555,0
1.3446,-0.000197055,20.169,0,1.3446,4.46479E-05,20.169,0
1.3455,-0.0002447242,20.1825,0,1.3455,-9.097429E-05,20.1825,0
1.3464,-0.0001977264,20.196,0,1.3464,-0.000126894,20.196,0
1.3473,-0.0001275654,20.2095,0,1.3473,-0.0001218585,20.2095,0
1.3482,-0.0001013809,20.223,0,1.3482,-0.000172549,20.223,0
1.3491,-2.450599E-05,20.2365,0,1.3491,-8.224613E-05,20.2365,0
1.35,-3.994812E-05,20.25,0,1.35,-0.0001185016,20.25,0
1.3509,-5.941863E-05,20.2635,0,1.3509,-0.0002171969,20.2635,0
1.3518,-3.189136E-05,20.277,0,1.3518,-0.0002272679,20.277,0
1.3527,-0.0001574426,20.2905,0,1.3527,-0.0001571069,20.2905,0
1.3536,-0.0001994049,20.304,0,1.3536,-0.0001117876,20.304,0
1.3545,-0.0001315938,20.3175,0,1.3545,-0.0001044022,20.3175,0
1.3554,-0.0001104448,20.331,0,1.3554,-6.109713E-05,20.331,0
1.3563,-9.835965E-05,20.3445,0,1.3563,-3.021286E-05,20.3445,0
1.3572,2.887007E-05,20.358,0,1.3572,-0.0001010452,20.358,0
1.3581,0.0001111162,20.3715,0,1.3581,-4.095522E-05,20.3715,0
1.359,0.0001695277,20.385,0,1.359,2.685588E-06,20.385,0
1.3599,0.0001997406,20.3985,0,1.3599,-0.000105745,20.3985,0
1.3608,0.0001346151,20.412,0,1.3608,-0.0001326009,20.412,0
1.3617,7.721065E-05,20.4255,0,1.3617,-0.0001289082,20.4255,0
1.3626,7.318227E-05,20.439,0,1.3626,-0.0001668421,20.439,0
1.3635,8.224613E-05,20.4525,0,1.3635,-0.0001883268,20.4525,0
1.3644,9.735256E-05,20.466,0,1.3644,-2.517739E-05,20.466,0
1.3653,5.102617E-05,20.4795,0,1.3653,-0.0001050736,20.4795,0
1.3662,-4.36408E-05,20.493,0,1.3662,-0.0002034333,20.493,0
1.3671,1.712062E-05,20.5065,0,1.3671,-6.74754E-05,20.5065,0
1.368,0.0001215228,20.52,0,1.368,0.0001114519,20.52,0
1.3689,0.0001467002,20.5335,0,1.3689,0.0001507286,20.5335,0
1.3698,6.948959E-05,20.547,0,1.3698,0.0002776226,20.547,0
1.3707,5.740444E-05,20.5605,0,1.3707,0.0003746395,20.5605,0
1.3716,9.500267E-05,20.574,0,1.3716,0.000249424,20.574,0
1.3725,3.994812E-05,20.5875,0,1.3725,0.0002051118,20.5875,0
1.3734,-5.807584E-05,20.601,0,1.3734,-2.316319E-05,20.601,0
1.3743,-7.318227E-05,20.6145,0,1.3743,-0.0001795987,20.6145,0
1.3752,-1.409934E-05,20.628,0,1.3752,-0.0001866484,20.628,0
1.3761,-7.016098E-05,20.6415,0,1.3761,-0.0001373007,20.6415,0
1.377,-4.095522E-05,20.655,0,1.377,-7.150377E-05,20.655,0
1.3779,-3.793393E-05,20.6685,0,1.3779,-5.706874E-06,20.6685,0
1.3788,-7.687495E-05,20.682,0,1.3788,-0.0001376364,20.682,0
1.3797,-9.298848E-05,20.6955,0,1.3797,-0.0003538262,20.6955,0
1.3806,-1.275654E-05,20.709,0,1.3806,-0.0002299535,20.709,0
1.3815,7.721065E-05,20.7225,0,1.3815,5.035477E-06,20.7225,0
1.3824,0.000164828,20.736,0,1.3824,0.0001916838,20.736,0
1.3833,2.853437E-05,20.7495,0,1.3833,0.0001769131,20.7495,0
1.3842,4.061952E-05,20.763,0,1.3842,8.493171E-05,20.763,0
1.3851,0.000190341,20.7765,0,1.3851,0.0001117876,20.7765,0
1.386,0.0001708705,20.79,0,1.386,0.0002158541,20.79,0
1.3869,0.00021149,20.8035,0,1.3869,0.0002020905,20.8035,0
1.3878,0.0001661708,20.817,0,1.3878,0.0002319677,20.817,0
1.3887,0.0001379721,20.8305,0,1.3887,0.0002208896,20.8305,0
1.3896,-5.572595E-05,20.844,0,1.3896,0.0002339818,20.844,0
1.3905,-0.0001953765,20.8575,0,1.3905,4.196231E-05,20.8575,0
1.3914,-0.0001651637,20.871,0,1.3914,-0.0001557641,20.871,0
1.3923,-5.539025E-05,20.8845,0,1.3923,-0.0002974289,20.8845,0
1.3932,-0.0002786297,20.898,0,1.3932,-0.000767071,20.898,0
1.3941,-0.0003175708,20.9115,0,1.3941,-0.0008855726,20.9115,0
1.395,-2.450599E-05,20.925,0,1.395,-0.0007398794,20.925,0
1.3959,0.000154757,20.9385,0,1.3959,-0.000207126,20.9385,0
1.3968,0.0002655375,20.952,0,1.3968,0.0005810941,20.952,0
1.3977,0.0001997406,20.9655,0,1.3977,0.000767071,20.9655,0
1.3986,0.0001070878,20.979,0,1.3986,0.0006361486,20.979,0
1.3995,-5.975433E-05,20.9925,0,1.3995,0.0004629282,20.9925,0
1.4004,-6.311131E-05,21.006,0,1.4004,0.0002500954,21.006,0
1.4013,2.014191E-05,21.0195,0,1.4013,0.0001144732,21.0195,0
1.4022,-3.323415E-05,21.033,0,1.4022,6.411841E-05,21.033,0
1.4031,-9.265278E-05,21.0465,0,1.4031,-4.766919E-05,21.0465,0
1.404,-3.390555E-05,21.06,0,1.404,-9.768826E-05,21.06,0
1.4049,-7.318227E-05,21.0735,0,1.4049,-0.0001017166,21.0735,0
1.4058,-2.786297E-05,21.087,0,1.4058,-0.0001443503,21.087,0
1.4067,-2.987716E-05,21.1005,0,1.4067,-0.0001440146,21.1005,0
1.4076,-0.0001060807,21.114,0,1.4076,-0.0001597925,21.114,0
1.4085,-8.795301E-05,21.1275,0,1.4085,-0.0002131685,21.1275,0
1.4094,-1.510643E-05,21.141,0,1.4094,-0.0002323034,21.141,0
1.4103,-8.761731E-05,21.1545,0,1.4103,-0.0001601282,21.1545,0
1.4112,-8.560311E-05,21.168,0,1.4112,-0.0001493858,21.168,0
1.4121,-4.968337E-05,21.1815,0,1.4121,-0.0001594568,21.1815,0
1.413,-7.217517E-05,21.195,0,1.413,-8.426032E-05,21.195,0
1.4139,-0.0001077592,21.2085,0,1.4139,-6.6804E-05,21.2085,0
1.4148,-8.224613E-05,21.222,0,1.4148,-9.970245E-05,21.222,0
1.4157,-4.229801E-05,21.2355,0,1.4157,-8.392462E-05,21.2355,0
1.4166,-3.793393E-05,21.249,0,1.4166,-8.426032E-05,21.249,0
1.4175,8.526741E-05,21.2625,0,1.4175,-9.198138E-05,21.2625,0
1.4184,8.191043E-05,21.276,0,1.4184,-0.0001064164,21.276,0
1.4193,6.311131E-05,21.2895,0,1.4193,-0.0001453574,21.2895,0
1.4202,3.457694E-05,21.303,0,1.4202,-6.143282E-05,21.303,0
1.4211,-7.418937E-05,21.3165,0,1.4211,-6.74754E-05,21.3165,0
1.422,-0.0001574426,21.33,0,1.422,-7.183947E-05,21.33,0
1.4229,-0.0001383078,21.3435,0,1.4229,-8.123904E-05,21.3435,0
1.4238,-0.0001242084,21.357,0,1.4238,-2.316319E-05,21.357,0
1.4247,-0.0001064164,21.3705,0,1.4247,2.987716E-05,21.3705,0
1.4256,-8.96315E-05,21.384,0,1.4256,2.1149E-05,21.384,0
1.4265,-8.291753E-05,21.3975,0,1.4265,6.848249E-05,21.3975,0
1.4274,7.888914E-05,21.411,0,1.4274,7.620356E-05,21.411,0
1.4283,0.0001524071,21.4245,0,1.4283,4.33051E-05,21.4245,0
1.4292,7.553216E-05,21.438,0,1.4292,6.277562E-05,21.438,0
1.4301,7.083238E-05,21.4515,0,1.4301,5.404745E-05,21.4515,0
1.431,8.191043E-05,21.465,0,1.431,1.745632E-05,21.465,0
1.4319,6.78111E-05,21.4785,0,1.4319,-1.342794E-05,21.4785,0
1.4328,9.231708E-05,21.492,0,1.4328,-4.49836E-05,21.492,0
1.4337,3.189136E-05,21.5055,0,1.4337,3.994812E-05,21.5055,0
1.4346,2.551309E-05,21.519,0,1.4346,1.980621E-05,21.519,0
1.4355,1.678492E-06,21.5325,0,1.4355,-9.903105E-05,21.5325,0
1.4364,-1.141375E-05,21.546,0,1.4364,-9.970245E-05,21.546,0
1.4373,-7.620356E-05,21.5595,0,1.4373,-8.72816E-05,21.5595,0
1.4382,-2.316319E-05,21.573,0,1.4382,-7.821774E-05,21.573,0
1.4391,7.016098E-05,21.5865,0,1.4391,-7.418937E-05,21.5865,0
1.44,-6.78111E-05,21.6,0,1.44,3.021286E-06,21.6,0
1.4409,-9.500267E-05,21.6135,0,1.4409,1.309224E-05,21.6135,0
1.4418,-9.399558E-06,21.627,0,1.4418,8.023193E-05,21.627,0
1.4427,-1.947051E-05,21.6405,0,1.4427,0.0001554284,21.6405,0
1.4436,-5.203327E-05,21.654,0,1.4436,9.768826E-05,21.654,0
1.4445,2.652018E-05,21.6675,0,1.4445,3.591974E-05,21.6675,0
1.4454,3.256275E-05,21.681,0,1.4454,6.51255E-05,21.681,0
1.4463,7.251087E-05,21.6945,0,1.4463,0.0001634852,21.6945,0
1.4472,6.277562E-05,21.708,0,1.4472,0.0001141375,21.708,0
1.4481,7.553216E-05,21.7215,0,1.4481,5.807584E-05,21.7215,0
1.449,4.666209E-05,21.735,0,1.449,8.157473E-05,21.735,0
1.4499,8.258183E-05,21.7485,0,1.4499,7.385367E-05,21.7485,0
1.4508,6.948959E-05,21.762,0,1.4508,0.0001164874,21.762,0
1.4517,5.169757E-05,21.7755,0,1.4517,0.0001185016,21.7755,0
1.4526,0.0001030594,21.789,0,1.4526,0.0001232013,21.789,0
1.4535,2.652018E-05,21.8025,0,1.4535,0.0001054093,21.8025,0
1.4544,-4.599069E-05,21.816,0,1.4544,-2.954147E-05,21.816,0
1.4553,-7.721065E-06,21.8295,0,1.4553,-9.130999E-05,21.8295,0
1.4562,1.242084E-05,21.843,0,1.4562,-0.000148043,21.843,0
1.4571,-4.39765E-05,21.8565,0,1.4571,-0.0002218967,21.8565,0
1.458,-1.242084E-05,21.87,0,1.458,-0.0002947433,21.87,0
1.4589,-7.721065E-06,21.8835,0,1.4589,-0.0003202563,21.8835,0
1.4598,1.443504E-05,21.897,0,1.4598,-0.0003182421,21.897,0
1.4607,-1.678492E-06,21.9105,0,1.4607,-0.0001339437,21.9105,0
1.4616,9.063859E-06,21.924,0,1.4616,0.0001782559,21.924,0
1.4625,1.242084E-05,21.9375,0,1.4625,0.0002306248,21.9375,0
1.4634,1.242084E-05,21.951,0,1.4634,0.0001863127,21.951,0
1.4643,-5.035477E-06,21.9645,0,1.4643,0.0001386435,21.9645,0
1.4652,1.980621E-05,21.978,0,1.4652,0.0001208515,21.978,0
1.4661,1.745632E-05,21.9915,0,1.4661,0.0001658351,21.9915,0
1.467,-4.46479E-05,22.005,0,1.467,0.0001537499,22.005,0
1.4679,4.599069E-05,22.0185,0,1.4679,3.894102E-05,22.0185,0
1.4688,4.968337E-05,22.032,0,1.4688,-4.53193E-05,22.032,0
1.4697,2.954147E-05,22.0455,0,1.4697,-3.424125E-05,22.0455,0
1.4706,9.735256E-06,22.059,0,1.4706,-8.627451E-05,22.059,0
1.4715,-4.196231E-05,22.0725,0,1.4715,-0.0001352865,22.0725,0
1.4724,-5.337606E-05,22.086,0,1.4724,-0.0001510643,22.086,0
1.4733,-1.879912E-05,22.0995,0,1.4733,-0.0001537499,22.0995,0
1.4742,-9.701686E-05,22.113,0,1.4742,-0.0001440146,22.113,0
1.4751,-0.0002306248,22.1265,0,1.4751,-0.0001272297,22.1265,0
1.476,-0.0001594568,22.14,0,1.476,-0.0001117876,22.14,0
1.4769,-9.567407E-05,22.1535,0,1.4769,-0.0001188373,22.1535,0
1.4778,-9.433127E-05,22.167,0,1.4778,-5.740444E-05,22.167,0
1.4787,9.298848E-05,22.1805,0,1.4787,-1.980621E-05,22.1805,0
1.4796,0.0002655375,22.194,0,1.4796,-1.846342E-05,22.194,0
1.4805,0.0002467384,22.2075,0,1.4805,3.088426E-05,22.2075,0
1.4814,0.0002534524,22.221,0,1.4814,3.692683E-06,22.221,0
1.4823,0.0002373388,22.2345,0,1.4823,-3.189136E-05,22.2345,0
1.4832,7.318227E-05,22.248,0,1.4832,-2.786297E-05,22.248,0
1.4841,-3.524834E-05,22.2615,0,1.4841,-2.1149E-05,22.2615,0
1.485,-3.289845E-05,22.275,0,1.485,-3.390555E-05,22.275,0
1.4859,-4.599069E-05,22.2885,0,1.4859,-4.49836E-05,22.2885,0
1.4868,-6.009003E-05,22.302,0,1.4868,-4.968337E-05,22.302,0
1.4877,-5.169757E-05,22.3155,0,1.4877,-2.786297E-05,22.3155,0
1.4886,-3.256275E-05,22.329,0,1.4886,6.378271E-06,22.329,0
1.4895,-5.102617E-05,22.3425,0,1.4895,4.699779E-06,22.3425,0
1.4904,-5.001907E-05,22.356,0,1.4904,1.779202E-05,22.356,0
1.4913,-0.0001289082,22.3695,0,1.4913,2.584878E-05,22.3695,0
1.4922,-0.000148043,22.383,0,1.4922,-5.371176E-06,22.383,0
1.4931,-8.291753E-05,22.3965,0,1.4931,-4.33051E-05,22.3965,0
1.494,-0.0001319295,22.41,0,1.494,-2.954147E-05,22.41,0
1.4949,-0.0001007095,22.4235,0,1.4949,-5.069047E-05,22.4235,0
1.4958,-8.86244E-05,22.437,0,1.4958,-7.788205E-05,22.437,0
1.4967,-0.0001752346,22.4505,0,1.4967,-3.994812E-05,22.4505,0
1.4976,-0.0001879911,22.464,0,1.4976,-4.36408E-06,22.464,0
1.4985,-0.0001252155,22.4775,0,1.4985,-1.309224E-05,22.4775,0
1.4994,-7.721065E-05,22.491,0,1.4994,-2.047761E-05,22.491,0
1.5003,-3.558404E-05,22.5045,0,1.5003,-3.390555E-05,22.5045,0
1.5012,-5.236896E-05,22.518,0,1.5012,-1.443504E-05,22.518,0
1.5021,-1.242084E-05,22.5315,0,1.5021,2.1149E-05,22.5315,0
1.503,3.994812E-05,22.545,0,1.503,-2.719158E-05,22.545,0
1.5039,3.524834E-05,22.5585,0,1.5039,-5.807584E-05,22.5585,0
1.5048,2.987716E-05,22.572,0,1.5048,-1.644922E-05,22.572,0
1.5057,0.0001228656,22.5855,0,1.5057,2.349889E-06,22.5855,0
1.5066,0.0001493858,22.599,0,1.5066,-1.342794E-05,22.599,0
1.5075,7.586786E-05,22.6125,0,1.5075,1.947051E-05,22.6125,0
1.5084,9.567407E-05,22.626,0,1.5084,1.779202E-05,22.626,0
1.5093,9.164568E-05,22.6395,0,1.5093,-2.24918E-05,22.6395,0
1.5102,-3.894102E-05,22.653,0,1.5102,-3.121996E-05,22.653,0
1.5111,-7.855344E-05,22.6665,0,1.5111,-3.424125E-05,22.6665,0
1.512,-4.46479E-05,22.68,0,1.512,-4.129091E-05,22.68,0
1.5129,-4.934768E-05,22.6935,0,1.5129,-4.901198E-05,22.6935,0
1.5138,-2.1149E-05,22.707,0,1.5138,-5.001907E-05,22.707,0
1.5147,-6.411841E-05,22.7205,0,1.5147,-2.920577E-05,22.7205,0
1.5156,-6.64683E-05,22.734,0,1.5156,-6.076142E-05,22.734,0
1.5165,-6.210422E-05,22.7475,0,1.5165,-0.0001000381,22.7475,0
1.5174,2.316319E-05,22.761,0,1.5174,-8.82887E-05,22.761,0
1.5183,-1.275654E-05,22.7745,0,1.5183,-3.927672E-05,22.7745,0
1.5192,-2.719158E-05,22.788,0,1.5192,-5.136187E-05,22.788,0
1.5201,3.826963E-05,22.8015,0,1.5201,-5.069047E-05,22.8015,0
1.521,-2.887007E-05,22.815,0,1.521,5.337606E-05,22.815,0
1.5219,-3.021286E-05,22.8285,0,1.5219,0.0001218585,22.8285,0
1.5228,6.277562E-05,22.842,0,1.5228,0.0001292439,22.842,0
1.5237,4.733349E-05,22.8555,0,1.5237,0.0001044022,22.8555,0
1.5246,-1.275654E-05,22.869,0,1.5246,6.411841E-05,22.869,0
1.5255,5.069047E-05,22.8825,0,1.5255,4.565499E-05,22.8825,0
1.5264,4.934768E-05,22.896,0,1.5264,3.424125E-05,22.896,0
1.5273,5.539025E-05,22.9095,0,1.5273,-1.074235E-05,22.9095,0
1.5282,3.189136E-05,22.923,0,1.5282,1.342794E-06,22.923,0
1.5291,7.721065E-06,22.9365,0,1.5291,2.584878E-05,22.9365,0
1.53,2.081331E-05,22.95,0,1.53,-7.721065E-06,22.95,0
1.5309,-1.242084E-05,22.9635,0,1.5309,-3.793393E-05,22.9635,0
1.5318,-4.46479E-05,22.977,0,1.5318,-1.007095E-06,22.977,0
1.5327,-3.256275E-05,22.9905,0,1.5327,-6.713969E-06,22.9905,0
1.5336,1.007095E-05,23.004,0,1.5336,-7.653925E-05,23.004,0
1.5345,-2.987716E-05,23.0175,0,1.5345,-4.263371E-05,23.0175,0
1.5354,-7.217517E-05,23.031,0,1.5354,-4.43122E-05,23.031,0
1.5363,-2.853437E-05,23.0445,0,1.5363,-0.000109102,23.0445,0
1.5372,4.36408E-05,23.058,0,1.5372,-0.0001144732,23.058,0
1.5381,-2.752728E-05,23.0715,0,1.5381,-0.0001010452,23.0715,0
1.539,-3.524834E-05,23.085,0,1.539,-0.0001070878,23.085,0
1.5399,1.141375E-05,23.0985,0,1.5399,-5.572595E-05,23.0985,0
1.5408,2.081331E-05,23.112,0,1.5408,-3.659113E-05,23.112,0
1.5417,-2.920577E-05,23.1255,0,1.5417,-2.24918E-05,23.1255,0
1.5426,-5.673304E-05,23.139,0,1.5426,-3.659113E-05,23.139,0
1.5435,2.987716E-05,23.1525,0,1.5435,-5.606165E-05,23.1525,0
1.5444,1.779202E-05,23.166,0,1.5444,-6.78111E-05,23.166,0
1.5453,-4.53193E-05,23.1795,0,1.5453,-3.054856E-05,23.1795,0
1.5462,9.063859E-06,23.193,0,1.5462,-1.107805E-05,23.193,0
1.5471,5.874724E-05,23.2065,0,1.5471,2.014191E-05,23.2065,0
1.548,-3.860533E-05,23.22,0,1.548,9.433127E-05,23.22,0
1.5489,1.040665E-05,23.2335,0,1.5489,0.0001339437,23.2335,0
1.5498,2.920577E-05,23.247,0,1.5498,0.000112459,23.247,0
1.5507,-3.894102E-05,23.2605,0,1.5507,7.486076E-05,23.2605,0
1.5516,-3.524834E-05,23.274,0,1.5516,5.270466E-05,23.274,0
1.5525,-9.735256E-06,23.2875,0,1.5525,5.203327E-05,23.2875,0
1.5534,9.735256E-06,23.301,0,1.5534,4.263371E-05,23.301,0
1.5543,3.524834E-05,23.3145,0,1.5543,-1.342794E-06,23.3145,0
1.5552,2.652018E-05,23.328,0,1.5552,-1.678492E-05,23.328,0
1.5561,-1.376364E-05,23.3415,0,1.5561,-2.047761E-05,23.3415,0
1.557,-2.987716E-05,23.355,0,1.557,-2.18204E-05,23.355,0
1.5579,5.035477E-06,23.3685,0,1.5579,-2.349889E-05,23.3685,0
1.5588,-2.316319E-05,23.382,0,1.5588,1.913481E-05,23.382,0
1.5597,-5.572595E-05,23.3955,0,1.5597,8.728161E-06,23.3955,0
1.5606,-1.342794E-06,23.409,0,1.5606,-6.411841E-05,23.409,0
1.5615,-5.069047E-05,23.4225,0,1.5615,-6.243992E-05,23.4225,0
1.5624,-4.028382E-06,23.436,0,1.5624,-3.021286E-05,23.436,0
1.5633,6.311131E-05,23.4495,0,1.5633,-6.478981E-05,23.4495,0
1.5642,8.426032E-05,23.463,0,1.5642,-6.009003E-05,23.463,0
1.5651,5.471885E-05,23.4765,0,1.5651,-5.505455E-05,23.4765,0
1.566,8.157473E-05,23.49,0,1.566,-4.733349E-05,23.49,0
1.5669,6.243992E-05,23.5035,0,1.5669,-5.505455E-05,23.5035,0
1.5678,2.316319E-05,23.517,0,1.5678,-9.835965E-05,23.517,0
1.5687,-8.291753E-05,23.5305,0,1.5687,-9.164568E-05,23.5305,0
1.5696,-0.0001292439,23.544,0,1.5696,-8.526741E-05,23.544,0
1.5705,-0.0001326009,23.5575,0,1.5705,-8.392462E-05,23.5575,0
1.5714,-7.754635E-05,23.571,0,1.5714,-7.855344E-05,23.571,0
1.5723,-0.0001524071,23.5845,0,1.5723,-3.457694E-05,23.5845,0
1.5732,-0.000164828,23.598,0,1.5732,-9.735256E-06,23.598,0
1.5741,-7.150377E-05,23.6115,0,1.5741,-2.853437E-05,23.6115,0
1.575,-9.164568E-05,23.625,0,1.575,-6.378271E-06,23.625,0
1.5759,-9.970245E-05,23.6385,0,1.5759,-2.349889E-06,23.6385,0
1.5768,-6.61326E-05,23.652,0,1.5768,-2.853437E-05,23.652,0
1.5777,-3.793393E-05,23.6655,0,1.5777,8.392462E-06,23.6655,0
1.5786,-5.035477E-06,23.679,0,1.5786,3.189136E-05,23.679,0
1.5795,-2.383459E-05,23.6925,0,1.5795,7.721065E-06,23.6925,0
1.5804,-1.544213E-05,23.706,0,1.5804,-1.007095E-06,23.706,0
1.5813,6.61326E-05,23.7195,0,1.5813,-6.378271E-06,23.7195,0
1.5822,7.284657E-05,23.733,0,1.5822,2.920577E-05,23.733,0
1.5831,0.0001822843,23.7465,0,1.5831,3.457694E-05,23.7465,0
1.584,0.0002641947,23.76,0,1.584,2.014191E-06,23.76,0
1.5849,0.0002544594,23.7735,0,1.5849,3.356985E-07,23.7735,0
1.5858,0.0001467002,23.787,0,1.5858,9.063859E-06,23.787,0
1.5867,0.0001050736,23.8005,0,1.5867,-3.054856E-05,23.8005,0
1.5876,5.337606E-05,23.814,0,1.5876,-7.418937E-05,23.814,0
1.5885,-0.0001013809,23.8275,0,1.5885,-3.524834E-05,23.8275,0
1.5894,-0.0001507286,23.841,0,1.5894,-4.49836E-05,23.841,0
1.5903,-3.524834E-05,23.8545,0,1.5903,-7.888914E-05,23.8545,0
1.5912,-6.915389E-05,23.868,0,1.5912,-7.687495E-05,23.868,0
1.5921,-0.0001040665,23.8815,0,1.5921,-4.49836E-05,23.8815,0
1.593,-7.049668E-05,23.895,0,1.593,-3.961242E-05,23.895,0
1.5939,-6.6804E-05,23.9085,0,1.5939,-3.256275E-05,23.9085,0
1.5948,-2.383459E-05,23.922,0,1.5948,-5.270466E-05,23.922,0
1.5957,-2.383459E-05,23.9355,0,1.5957,-6.378271E-05,23.9355,0
1.5966,-8.72816E-05,23.949,0,1.5966,-4.800488E-05,23.949,0
1.5975,-4.867628E-05,23.9625,0,1.5975,-8.291753E-05,23.9625,0
1.5984,4.129091E-05,23.976,0,1.5984,-8.593881E-05,23.976,0
1.5993,1.779202E-05,23.9895,0,1.5993,-2.887007E-05,23.9895,0
1.6002,0.0001245441,24.003,0,1.6002,-7.721065E-06,24.003,0
1.6011,0.0002343175,24.0165,0,1.6011,-6.378271E-06,24.0165,0
1.602,0.0001245441,24.03,0,1.602,2.484169E-05,24.03,0
1.6029,5.471885E-05,24.0435,0,1.6029,2.786297E-05,24.0435,0
1.6038,-4.800488E-05,24.057,0,1.6038,3.356985E-06,24.057,0
1.6047,-0.000172549,24.0705,0,1.6047,-3.021286E-06,24.0705,0
1.6056,-0.0002870222,24.084,0,1.6056,-2.18204E-05,24.084,0
1.6065,-0.0002876936,24.0975,0,1.6065,-7.083238E-05,24.0975,0
1.6074,-0.0002390173,24.111,0,1.6074,-9.701686E-05,24.111,0
1.6083,-0.000189334,24.1245,0,1.6083,-0.000119173,24.1245,0
1.6092,-0.000161471,24.138,0,1.6092,-9.164568E-05,24.138,0
1.6101,-0.0001070878,24.1515,0,1.6101,-3.927672E-05,24.1515,0
1.611,-4.934768E-05,24.165,0,1.611,1.846342E-05,24.165,0
1.6119,-4.666209E-05,24.1785,0,1.6119,4.229801E-05,24.1785,0
1.6128,-5.807584E-05,24.192,0,1.6128,4.263371E-05,24.192,0
1.6137,2.24918E-05,24.2055,0,1.6137,4.129091E-05,24.2055,0
1.6146,5.975433E-05,24.219,0,1.6146,5.035477E-05,24.219,0
1.6155,3.457694E-05,24.2325,0,1.6155,0.0001097734,24.2325,0
1.6164,0.0001195087,24.246,0,1.6164,8.72816E-05,24.246,0
1.6173,0.0001305867,24.2595,0,1.6173,3.591974E-05,24.2595,0
1.6182,8.82887E-05,24.273,0,1.6182,3.860533E-05,24.273,0
1.6191,8.426032E-05,24.2865,0,1.6191,5.740444E-05,24.2865,0
1.62,8.157473E-05,24.3,0,1.62,4.766919E-05,24.3,0
1.6209,5.337606E-05,24.3135,0,1.6209,4.800488E-05,24.3135,0
1.6218,9.634547E-05,24.327,0,1.6218,7.721065E-06,24.327,0
1.6227,4.39765E-05,24.3405,0,1.6227,4.36408E-06,24.3405,0
1.6236,1.644922E-05,24.354,0,1.6236,3.692683E-06,24.354,0
1.6245,5.069047E-05,24.3675,0,1.6245,-1.107805E-05,24.3675,0
1.6254,8.157473E-05,24.381,0,1.6254,-2.719158E-05,24.381,0
1.6263,-2.047761E-05,24.3945,0,1.6263,1.879912E-05,24.3945,0
1.6272,-1.007095E-06,24.408,0,1.6272,1.342794E-05,24.408,0
1.6281,9.500267E-05,24.4215,0,1.6281,-8.392462E-06,24.4215,0
1.629,5.606165E-05,24.435,0,1.629,5.706874E-05,24.435,0
1.6299,8.023193E-05,24.4485,0,1.6299,7.217517E-05,24.4485,0
1.6308,0.0001621424,24.462,0,1.6308,2.920577E-05,24.462,0
1.6317,0.0001483787,24.4755,0,1.6317,1.879912E-05,24.4755,0
1.6326,5.874724E-05,24.489,0,1.6326,2.349889E-05,24.489,0
1.6335,0.0001232013,24.5025,0,1.6335,2.1149E-05,24.5025,0
1.6344,8.89601E-05,24.516,0,1.6344,-8.728161E-06,24.516,0
1.6353,6.74754E-05,24.5295,0,1.6353,-5.203327E-05,24.5295,0
1.6362,3.659113E-05,24.543,0,1.6362,1.678492E-06,24.543,0
1.6371,-1.980621E-05,24.5565,0,1.6371,4.095522E-05,24.5565,0
1.638,-1.980621E-05,24.57,0,1.638,2.584878E-05,24.57,0
1.6389,-2.719158E-05,24.5835,0,1.6389,3.692683E-06,24.5835,0
1.6398,-4.599069E-05,24.597,0,1.6398,3.994812E-05,24.597,0
1.6407,-6.411841E-05,24.6105,0,1.6407,2.618448E-05,24.6105,0
1.6416,-6.61326E-05,24.624,0,1.6416,-2.954147E-05,24.624,0
1.6425,-5.941863E-05,24.6375,0,1.6425,-1.544213E-05,24.6375,0
1.6434,-7.150377E-05,24.651,0,1.6434,-4.666209E-05,24.651,0
1.6443,-1.275654E-05,24.6645,0,1.6443,-7.821774E-05,24.6645,0
1.6452,3.692683E-06,24.678,0,1.6452,-9.500267E-05,24.678,0
1.6461,-6.143282E-05,24.6915,0,1.6461,-7.486076E-05,24.6915,0
1.647,-5.069047E-05,24.705,0,1.647,-0.000102388,24.705,0
1.6479,-2.450599E-05,24.7185,0,1.6479,-0.000133608,24.7185,0
1.6488,1.577783E-05,24.732,0,1.6488,-0.0001326009,24.732,0
1.6497,-6.61326E-05,24.7455,0,1.6497,-9.164568E-05,24.7455,0
1.6506,-0.0001007095,24.759,0,1.6506,-7.687495E-05,24.759,0
1.6515,-2.21561E-05,24.7725,0,1.6515,-7.553216E-05,24.7725,0
1.6524,-5.203327E-05,24.786,0,1.6524,-7.318227E-05,24.786,0
1.6533,-7.418937E-05,24.7995,0,1.6533,-7.150377E-05,24.7995,0
1.6542,-3.356985E-07,24.813,0,1.6542,-8.627451E-05,24.813,0
1.6551,-1.376364E-05,24.8265,0,1.6551,-0.0001017166,24.8265,0
1.656,-0.0001074235,24.84,0,1.656,-5.572595E-05,24.84,0
1.6569,-1.712062E-05,24.8535,0,1.6569,-4.33051E-05,24.8535,0
1.6578,2.920577E-05,24.867,0,1.6578,-1.376364E-05,24.867,0
1.6587,4.162661E-05,24.8805,0,1.6587,-1.208515E-05,24.8805,0
1.6596,2.752728E-05,24.894,0,1.6596,-1.644922E-05,24.894,0
1.6605,5.539025E-05,24.9075,0,1.6605,-2.853437E-05,24.9075,0
1.6614,-5.035477E-06,24.921,0,1.6614,-5.673304E-05,24.921,0
1.6623,-3.692683E-06,24.9345,0,1.6623,-8.090334E-05,24.9345,0
1.6632,-6.344701E-05,24.948,0,1.6632,-6.848249E-05,24.948,0
1.6641,-0.0001060807,24.9615,0,1.6641,-4.46479E-05,24.9615,0
1.665,-5.941863E-05,24.975,0,1.665,-5.270466E-05,24.975,0
1.6659,-3.726253E-05,24.9885,0,1.6659,-6.210422E-05,24.9885,0
1.6668,-0.0001020523,25.002,0,1.6668,-9.735256E-06,25.002,0
1.6677,-4.733349E-05,25.0155,0,1.6677,-4.33051E-05,25.0155,0
1.6686,2.383459E-05,25.029,0,1.6686,-9.298848E-05,25.029,0
1.6695,-9.063859E-05,25.0425,0,1.6695,-4.934768E-05,25.0425,0
1.6704,-5.035477E-05,25.056,0,1.6704,-5.337606E-05,25.056,0
1.6713,-3.021286E-06,25.0695,0,1.6713,-8.392462E-05,25.0695,0
1.6722,-4.666209E-05,25.083,0,1.6722,-3.826963E-05,25.083,0
1.6731,-7.888914E-05,25.0965,0,1.6731,-1.745632E-05,25.0965,0
1.674,-8.090334E-05,25.11,0,1.674,-2.719158E-05,25.11,0
1.6749,-4.599069E-05,25.1235,0,1.6749,-3.994812E-05,25.1235,0
1.6758,-1.409934E-05,25.137,0,1.6758,-2.584878E-05,25.137,0
1.6767,-1.242084E-05,25.1505,0,1.6767,4.699779E-06,25.1505,0
1.6776,5.035477E-06,25.164,0,1.6776,1.309224E-05,25.164,0
1.6785,2.349889E-06,25.1775,0,1.6785,-1.174945E-05,25.1775,0
1.6794,7.821774E-05,25.191,0,1.6794,-3.054856E-05,25.191,0
1.6803,7.486076E-05,25.2045,0,1.6803,7.049668E-06,25.2045,0
1.6812,3.894102E-05,25.218,0,1.6812,-1.174945E-05,25.218,0
1.6821,6.948959E-05,25.2315,0,1.6821,-7.821774E-05,25.2315,0
1.683,-1.779202E-05,25.245,0,1.683,-4.263371E-05,25.245,0
1.6839,2.484169E-05,25.2585,0,1.6839,-2.819867E-05,25.2585,0
1.6848,7.284657E-05,25.272,0,1.6848,-4.599069E-05,25.272,0
1.6857,4.229801E-05,25.2855,0,1.6857,3.591974E-05,25.2855,0
1.6866,3.289845E-05,25.299,0,1.6866,0.0001524071,25.299,0
1.6875,3.189136E-05,25.3125,0,1.6875,0.0001822843,25.3125,0
1.6884,6.411841E-05,25.326,0,1.6884,0.0001017166,25.326,0
1.6893,0.0001040665,25.3395,0,1.6893,2.450599E-05,25.3395,0
1.6902,8.392462E-06,25.353,0,1.6902,3.793393E-05,25.353,0
1.6911,4.36408E-06,25.3665,0,1.6911,3.256275E-05,25.3665,0
1.692,5.807584E-05,25.38,0,1.692,9.399558E-06,25.38,0
1.6929,2.853437E-05,25.3935,0,1.6929,4.028382E-06,25.3935,0
1.6938,-4.766919E-05,25.407,0,1.6938,2.28275E-05,25.407,0
1.6947,-1.577783E-05,25.4205,0,1.6947,-4.061952E-05,25.4205,0
1.6956,1.947051E-05,25.434,0,1.6956,-8.023193E-05,25.434,0
1.6965,-4.49836E-05,25.4475,0,1.6965,-3.121996E-05,25.4475,0
1.6974,-3.591974E-05,25.461,0,1.6974,-2.920577E-05,25.461,0
1.6983,6.076142E-05,25.4745,0,1.6983,-4.867628E-05,25.4745,0
1.6992,-1.007095E-06,25.488,0,1.6992,-2.819867E-05,25.488,0
1.7001,-1.342794E-05,25.5015,0,1.7001,-6.713969E-07,25.5015,0
1.701,2.652018E-05,25.515,0,1.701,2.349889E-06,25.515,0
1.7019,5.001907E-05,25.5285,0,1.7019,7.721065E-06,25.5285,0
1.7028,0.0001027237,25.542,0,1.7028,1.208515E-05,25.542,0
1.7037,7.217517E-05,25.5555,0,1.7037,5.169757E-05,25.5555,0
1.7046,-3.457694E-05,25.569,0,1.7046,4.43122E-05,25.569,0
1.7055,-3.524834E-05,25.5825,0,1.7055,1.242084E-05,25.5825,0
1.7064,-1.107805E-05,25.596,0,1.7064,-2.1149E-05,25.596,0
1.7073,-0.0001104448,25.6095,0,1.7073,6.378271E-06,25.6095,0
1.7082,-8.358892E-05,25.623,0,1.7082,-1.678492E-06,25.623,0
1.7091,-5.102617E-05,25.6365,0,1.7091,-5.774014E-05,25.6365,0
1.71,-0.0001127947,25.65,0,1.71,-1.577783E-05,25.65,0
1.7109,-6.74754E-05,25.6635,0,1.7109,-2.18204E-05,25.6635,0
1.7118,-2.24918E-05,25.677,0,1.7118,-5.136187E-05,25.677,0
1.7127,-9.030289E-05,25.6905,0,1.7127,-3.726253E-05,25.6905,0
1.7136,-0.0001238727,25.704,0,1.7136,-1.309224E-05,25.704,0
1.7145,-7.284657E-05,25.7175,0,1.7145,-1.309224E-05,25.7175,0
1.7154,-6.713969E-07,25.731,0,1.7154,-1.913481E-05,25.731,0
1.7163,-7.049668E-06,25.7445,0,1.7163,-4.53193E-05,25.7445,0
1.7172,1.174945E-05,25.758,0,1.7172,-3.457694E-05,25.758,0
1.7181,3.323415E-05,25.7715,0,1.7181,-8.392462E-06,25.7715,0
1.719,-1.342794E-06,25.785,0,1.719,-5.001907E-05,25.785,0
1.7199,-1.007095E-06,25.7985,0,1.7199,-6.61326E-05,25.7985,0
1.7208,-2.18204E-05,25.812,0,1.7208,-2.853437E-05,25.812,0
1.7217,3.692683E-06,25.8255,0,1.7217,-3.054856E-05,25.8255,0
1.7226,4.36408E-06,25.839,0,1.7226,-7.049668E-05,25.839,0
1.7235,-6.51255E-05,25.8525,0,1.7235,-2.450599E-05,25.8525,0
1.7244,2.349889E-06,25.866,0,1.7244,-1.477073E-05,25.866,0
1.7253,8.392462E-06,25.8795,0,1.7253,-3.390555E-05,25.8795,0
1.7262,2.685588E-05,25.893,0,1.7262,-1.712062E-05,25.893,0
1.7271,-1.812772E-05,25.9065,0,1.7271,-1.007095E-06,25.9065,0
1.728,-1.577783E-05,25.92,0,1.728,1.040665E-05,25.92,0
1.7289,-1.007095E-06,25.9335,0,1.7289,1.040665E-05,25.9335,0
1.7298,3.591974E-05,25.947,0,1.7298,2.28275E-05,25.947,0
1.7307,-4.263371E-05,25.9605,0,1.7307,5.740444E-05,25.9605,0
1.7316,-6.143282E-05,25.974,0,1.7316,6.042573E-05,25.974,0
1.7325,-1.913481E-05,25.9875,0,1.7325,3.826963E-05,25.9875,0
1.7334,1.107805E-05,26.001,0,1.7334,4.867628E-05,26.001,0
1.7343,-0.0001050736,26.0145,0,1.7343,6.478981E-05,26.0145,0
1.7352,-8.191043E-05,26.028,0,1.7352,2.21561E-05,26.028,0
1.7361,-2.014191E-05,26.0415,0,1.7361,-2.652018E-05,26.0415,0
1.737,-0.0001201801,26.055,0,1.737,-5.371176E-06,26.055,0
1.7379,-0.0001329366,26.0685,0,1.7379,-1.913481E-05,26.0685,0
1.7388,-2.987716E-05,26.082,0,1.7388,-5.572595E-05,26.082,0
1.7397,-5.706874E-06,26.0955,0,1.7397,-4.263371E-05,26.0955,0
1.7406,-7.653925E-05,26.109,0,1.7406,-5.807584E-05,26.109,0
1.7415,-6.009003E-05,26.1225,0,1.7415,-9.198138E-05,26.1225,0
1.7424,-9.533837E-05,26.136,0,1.7424,-0.0001064164,26.136,0
1.7433,-5.136187E-05,26.1495,0,1.7433,-0.0001138018,26.1495,0
1.7442,-6.042573E-05,26.163,0,1.7442,-8.82887E-05,26.163,0
1.7451,-8.291753E-05,26.1765,0,1.7451,-6.948959E-05,26.1765,0
1.746,-5.001907E-05,26.19,0,1.746,-7.855344E-05,26.19,0
1.7469,-2.18204E-05,26.2035,0,1.7469,-8.493171E-05,26.2035,0
1.7478,-3.659113E-05,26.217,0,1.7478,-6.176852E-05,26.217,0
1.7487,9.399558E-06,26.2305,0,1.7487,-8.627451E-05,26.2305,0
1.7496,9.768826E-05,26.244,0,1.7496,-0.0001138018,26.244,0
1.7505,8.560311E-05,26.2575,0,1.7505,-6.210422E-05,26.2575,0
1.7514,7.922484E-05,26.271,0,1.7514,-5.539025E-05,26.271,0
1.7523,0.0001185016,26.2845,0,1.7523,-0.0001040665,26.2845,0
1.7532,9.768826E-05,26.298,0,1.7532,-9.433127E-05,26.298,0
1.7541,1.376364E-05,26.3115,0,1.7541,-4.901198E-05,26.3115,0
1.755,7.016098E-05,26.325,0,1.755,-5.169757E-05,26.325,0
1.7559,0.0001178302,26.3385,0,1.7559,-3.793393E-05,26.3385,0
1.7568,0.0001362936,26.352,0,1.7568,-3.021286E-05,26.352,0
1.7577,6.64683E-05,26.3655,0,1.7577,-1.107805E-05,26.3655,0
1.7586,3.457694E-05,26.379,0,1.7586,-7.385367E-06,26.379,0
1.7595,9.097429E-05,26.3925,0,1.7595,-5.941863E-05,26.3925,0
1.7604,2.819867E-05,26.406,0,1.7604,-7.721065E-05,26.406,0
1.7613,-2.450599E-05,26.4195,0,1.7613,-3.961242E-05,26.4195,0
1.7622,-4.028382E-06,26.433,0,1.7622,-5.337606E-05,26.433,0
1.7631,-1.577783E-05,26.4465,0,1.7631,-3.860533E-05,26.4465,0
1.764,-8.090334E-05,26.46,0,1.764,9.231708E-05,26.46,0
1.7649,-3.793393E-05,26.4735,0,1.7649,0.0001386435,26.4735,0
1.7658,9.063859E-06,26.487,0,1.7658,8.92958E-05,26.487,0
1.7667,2.24918E-05,26.5005,0,1.7667,5.740444E-05,26.5005,0
1.7676,-4.666209E-05,26.514,0,1.7676,7.922484E-05,26.514,0
1.7685,-1.644922E-05,26.5275,0,1.7685,6.64683E-05,26.5275,0
1.7694,-2.551309E-05,26.541,0,1.7694,3.927672E-05,26.541,0
1.7703,1.443504E-05,26.5545,0,1.7703,1.712062E-05,26.5545,0
1.7712,-9.735256E-06,26.568,0,1.7712,3.356985E-05,26.568,0
1.7721,-4.33051E-05,26.5815,0,1.7721,4.33051E-05,26.5815,0
1.773,2.24918E-05,26.595,0,1.773,3.994812E-05,26.595,0
1.7739,4.263371E-05,26.6085,0,1.7739,4.061952E-05,26.6085,0
1.7748,-1.779202E-05,26.622,0,1.7748,6.143282E-05,26.622,0
1.7757,4.699779E-06,26.6355,0,1.7757,3.726253E-05,26.6355,0
1.7766,7.284657E-05,26.649,0,1.7766,-3.054856E-05,26.649,0
1.7775,-1.242084E-05,26.6625,0,1.7775,-1.644922E-05,26.6625,0
1.7784,-5.136187E-05,26.676,0,1.7784,-4.229801E-05,26.676,0
1.7793,3.021286E-06,26.6895,0,1.7793,-6.948959E-05,26.6895,0
1.7802,3.189136E-05,26.703,0,1.7802,-1.510643E-05,26.703,0
1.7811,-8.157473E-05,26.7165,0,1.7811,1.376364E-05,26.7165,0
1.782,-4.565499E-05,26.73,0,1.782,5.035477E-06,26.73,0
1.7829,-2.719158E-05,26.7435,0,1.7829,-1.510643E-05,26.7435,0
1.7838,3.323415E-05,26.757,0,1.7838,-1.074235E-05,26.757,0
1.7847,5.035477E-05,26.7705,0,1.7847,3.021286E-05,26.7705,0
1.7856,-1.208515E-05,26.784,0,1.7856,-2.014191E-06,26.784,0
1.7865,1.409934E-05,26.7975,0,1.7865,-1.376364E-05,26.7975,0
1.7874,6.74754E-05,26.811,0,1.7874,-9.063859E-06,26.811,0
1.7883,4.129091E-05,26.8245,0,1.7883,1.510643E-05,26.8245,0
1.7892,1.040665E-05,26.838,0,1.7892,-1.510643E-05,26.838,0
1.7901,4.632639E-05,26.8515,0,1.7901,-5.001907E-05,26.8515,0
1.791,-1.376364E-05,26.865,0,1.791,-2.920577E-05,26.865,0
1.7919,-2.18204E-05,26.8785,0,1.7919,-3.155566E-05,26.8785,0
1.7928,0,26.892,0,1.7928,-8.72816E-05,26.892,0
1.7937,8.392462E-06,26.9055,0,1.7937,-5.740444E-05,26.9055,0
1.7946,-6.61326E-05,26.919,0,1.7946,-5.740444E-05,26.919,0
1.7955,-5.807584E-05,26.9325,0,1.7955,-8.056764E-05,26.9325,0
1.7964,-1.275654E-05,26.946,0,1.7964,-6.948959E-05,26.946,0
1.7973,1.644922E-05,26.9595,0,1.7973,-7.116808E-05,26.9595,0
1.7982,-3.927672E-05,26.973,0,1.7982,-2.652018E-05,26.973,0
1.7991,-2.484169E-05,26.9865,0,1.7991,-1.174945E-05,26.9865,0
1.8,-1.678492E-06,27,0,1.8,-4.061952E-05,27,0
1.8009,-1.074235E-05,27.0135,0,1.8009,-4.666209E-05,27.0135,0
1.8018,-7.150377E-05,27.027,0,1.8018,-4.36408E-06,27.027,0
1.8027,-2.584878E-05,27.0405,0,1.8027,-2.383459E-05,27.0405,0
1.8036,8.89601E-05,27.054,0,1.8036,-5.673304E-05,27.054,0
1.8045,-1.846342E-05,27.0675,0,1.8045,-3.927672E-05,27.0675,0
1.8054,-6.64683E-05,27.081,0,1.8054,-3.256275E-05,27.081,0
1.8063,-7.721065E-06,27.0945,0,1.8063,-5.572595E-05,27.0945,0
1.8072,1.477073E-05,27.108,0,1.8072,-3.021286E-05,27.108,0
1.8081,-2.28275E-05,27.1215,0,1.8081,-5.035477E-06,27.1215,0
1.809,-1.947051E-05,27.135,0,1.809,9.399558E-06,27.135,0
1.8099,3.189136E-05,27.1485,0,1.8099,1.309224E-05,27.1485,0
1.8108,0.0001393149,27.162,0,1.8108,6.042573E-06,27.162,0
1.8117,0.0001168231,27.1755,0,1.8117,2.618448E-05,27.1755,0
1.8126,2.752728E-05,27.189,0,1.8126,3.054856E-05,27.189,0
1.8135,9.433127E-05,27.2025,0,1.8135,1.477073E-05,27.2025,0
1.8144,0.000105745,27.216,0,1.8144,-1.611353E-05,27.216,0
1.8153,1.107805E-05,27.2295,0,1.8153,-1.678492E-06,27.2295,0
1.8162,-5.001907E-05,27.243,0,1.8162,7.049668E-06,27.243,0
1.8171,3.558404E-05,27.2565,0,1.8171,-7.049668E-06,27.2565,0
1.818,-2.417029E-05,27.27,0,1.818,3.256275E-05,27.27,0
1.8189,-1.443504E-05,27.2835,0,1.8189,2.484169E-05,27.2835,0
1.8198,4.867628E-05,27.297,0,1.8198,-3.021286E-06,27.297,0
1.8207,-6.478981E-05,27.3105,0,1.8207,1.846342E-05,27.3105,0
