X[s],"Trigno IM sensor 3: EMG 3 (IM)",X[s],"Trigno IM sensor 3: Mag 3.Z (IM)",X[s],"Trigno IM sensor 4: EMG 4 (IM)",X[s],"Trigno IM sensor 4: Mag 4.Z (IM)"
0.000000,-3.356985E-07,0.000000,119,0.000000,0,0.000000,0
0.0009,1.309224E-05,0.0135,119,0.0009,0,0.0135,0
0.0018,-6.042573E-06,0.027,120,0.0018,0,0.027,0
0.0027,-1.107805E-05,0.0405,119,0.0027,0,0.0405,0
0.0036,5.035477E-06,0.054,119,0.0036,0,0.054,0
0.0045,-8.728161E-06,0.0675,118,0.0045,0,0.0675,0
0.0054,-2.786297E-05,0.081,118,0.0054,0,0.081,1
0.0063,7.385367E-06,0.0945,119,0.0063,0,0.0945,0
0.0072,2.652018E-05,0.108,118,0.0072,0,0.108,-1
0.0081,1.242084E-05,0.1215,119,0.0081,0,0.1215,0
0.009000001,1.443504E-05,0.135,118,0.009000001,0,0.135,0
0.0099,3.189136E-05,0.1485,118,0.0099,0,0.1485,1
0.0108,3.155566E-05,0.162,119,0.0108,0,0.162,-1
0.0117,9.399558E-06,0.1755,119,0.0117,0,0.1755,0
0.0126,1.577783E-05,0.189,118,0.0126,0,0.189,0
0.0135,1.577783E-05,0.2025,119,0.0135,0,0.2025,0
0.0144,-1.242084E-05,0.216,119,0.0144,0,0.216,-1
0.0153,-3.021286E-06,0.2295,119,0.0153,0,0.2295,0
0.0162,1.040665E-05,0.243,119,0.0162,0,0.243,-1
0.0171,-6.042573E-05,0.2565,118,0.0171,0,0.2565,3
0.018,-4.666209E-05,0.27,119,0.018,0,0.27,0
0.0189,-2.18204E-05,0.2835,118,0.0189,0,0.2835,0
0.0198,-2.28275E-05,0.297,118,0.0198,0,0.297,2
0.0207,0,0.3105,118,0.0207,0,0.3105,0
0.0216,-5.706874E-06,0.324,118,0.0216,0,0.324,0
0.0225,-2.081331E-05,0.3375,117,0.0225,0,0.3375,1
0.0234,-4.36408E-06,0.351,118,0.0234,0,0.351,0
0.0243,-2.014191E-05,0.3645,118,0.0243,0,0.3645,0
0.0252,3.054856E-05,0.378,117,0.0252,0,0.378,0
0.0261,1.208515E-05,0.3915,117,0.0261,0,0.3915,0
0.027,-3.356985E-07,0.405,118,0.027,0,0.405,1
0.0279,3.021286E-06,0.4185,118,0.0279,0,0.4185,-2
0.0288,-2.349889E-06,0.432,118,0.0288,0,0.432,0
0.0297,9.735256E-06,0.4455,119,0.0297,0,0.4455,-1
0.0306,1.309224E-05,0.459,119,0.0306,0,0.459,0
0.0315,-1.242084E-05,0.4725,118,0.0315,0,0.4725,0
0.0324,-1.107805E-05,0.486,118,0.0324,0,0.486,1
0.0333,-1.544213E-05,0.4995,118,0.0333,0,0.4995,-1
0.0342,-2.584878E-05,0.513,119,0.0342,0,0.513,-1
0.0351,-7.385367E-06,0.5265,118,0.0351,0,0.5265,0
0.036,-8.728161E-06,0.54,118,0.036,0,0.54,0
0.0369,-7.721065E-06,0.5535,118,0.0369,0,0.5535,-5
0.0378,-1.309224E-05,0.567,119,0.0378,0,0.567,0
0.0387,1.980621E-05,0.5805,119,0.0387,0,0.5805,2
0.0396,-1.745632E-05,0.594,118,0.0396,0,0.594,-1
0.0405,-2.618448E-05,0.6075,118,0.0405,0,0.6075,0
0.0414,-2.920577E-05,0.621,118,0.0414,0,0.621,2
0.0423,-6.378271E-06,0.6345,118,0.0423,0,0.6345,0
0.0432,-2.18204E-05,0.648,118,0.0432,0,0.648,0
0.0441,-2.719158E-05,0.6615,118,0.0441,0,0.6615,-1
0.045,-2.719158E-05,0.675,118,0.045,0,0.675,0
0.0459,-2.987716E-05,0.6885,118,0.0459,0,0.6885,0
0.0468,-2.786297E-05,0.702,119,0.0468,0,0.702,0
0.0477,1.678492E-06,0.7155,119,0.0477,0,0.7155,1
0.0486,-3.692683E-06,0.729,118,0.0486,0,0.729,0
0.0495,-3.256275E-05,0.7425,118,0.0495,0,0.7425,0
0.0504,-2.652018E-05,0.756,117,0.0504,0,0.756,0
0.0513,-3.726253E-05,0.7695,117,0.0513,0,0.7695,-1
0.0522,-6.814679E-05,0.783,117,0.0522,0,0.783,-1
0.0531,-2.752728E-05,0.7965,118,0.0531,0,0.7965,0
0.054,-4.699779E-06,0.81,118,0.054,0,0.81,0
0.0549,2.987716E-05,0.8235,117,0.0549,0,0.8235,0
0.0558,2.954147E-05,0.837,119,0.0558,0,0.837,-1
0.0567,2.383459E-05,0.8505,120,0.0567,0,0.8505,-1
0.0576,3.424125E-05,0.864,119,0.0576,0,0.864,0
0.0585,1.846342E-05,0.8775,119,0.0585,0,0.8775,-2
0.0594,1.040665E-05,0.891,119,0.0594,0,0.891,0
0.0603,-6.378271E-06,0.9045,120,0.0603,0,0.9045,1
0.0612,-2.18204E-05,0.918,120,0.0612,0,0.918,-1
0.0621,1.007095E-05,0.9315,118,0.0621,0,0.9315,0
0.063,7.385367E-06,0.945,119,0.063,0,0.945,-2
0.0639,-3.356985E-07,0.9585,118,0.0639,0,0.9585,2
0.0648,3.692683E-06,0.972,120,0.0648,0,0.972,-4
0.0657,-1.577783E-05,0.9855,119,0.0657,0,0.9855,-2
0.0666,-3.256275E-05,0.999,119,0.0666,0,0.999,-1
0.0675,-2.081331E-05,1.0125,119,0.0675,8.056763E-06,1.0125,-3
0.0684,-8.392462E-06,1.026,119,0.0684,1.409934E-05,1.026,0
0.0693,-1.678492E-05,1.0395,119,0.0693,3.088426E-05,1.0395,0
0.0702,-3.356985E-07,1.053,120,0.0702,1.577783E-05,1.053,0
0.0711,1.812772E-05,1.0665,117,0.0711,-1.242084E-05,1.0665,-1
0.072,-1.242084E-05,1.08,119,0.072,-8.392462E-06,1.08,0
0.0729,1.007095E-06,1.0935,119,0.0729,3.356985E-06,1.0935,-1
0.07380001,2.24918E-05,1.107,119,0.07380001,-1.544213E-05,1.107,0
0.07470001,-1.242084E-05,1.1205,118,0.07470001,-2.21561E-05,1.1205,0
0.0756,0,1.134,119,0.0756,-2.24918E-05,1.134,0
0.0765,2.349889E-06,1.1475,118,0.0765,-1.376364E-05,1.1475,-1
0.0774,3.356985E-05,1.161,117,0.0774,-3.256275E-05,1.161,-1
0.0783,2.047761E-05,1.1745,118,0.0783,-4.39765E-05,1.1745,0
0.0792,2.652018E-05,1.188,120,0.0792,-1.443504E-05,1.188,1
0.0801,-3.692683E-06,1.2015,118,0.0801,-2.316319E-05,1.2015,-3
0.081,-1.477073E-05,1.215,119,0.081,-4.49836E-05,1.215,0
0.0819,-1.443504E-05,1.2285,119,0.0819,-5.807584E-05,1.2285,-1
0.0828,1.007095E-06,1.242,119,0.0828,-3.692683E-05,1.242,-1
0.0837,-1.242084E-05,1.2555,120,0.0837,-3.994812E-05,1.2555,-1
0.0846,-7.418937E-05,1.269,120,0.0846,-2.652018E-05,1.269,-1
0.0855,-5.404745E-05,1.2825,120,0.0855,-2.987716E-05,1.2825,1
0.0864,-3.256275E-05,1.296,121,0.0864,-2.484169E-05,1.296,-1
0.0873,-5.471885E-05,1.3095,122,0.0873,-2.853437E-05,1.3095,-2
0.0882,-3.189136E-05,1.323,122,0.0882,-1.812772E-05,1.323,0
0.0891,-1.309224E-05,1.3365,121,0.0891,-3.121996E-05,1.3365,0
0.09,1.342794E-06,1.35,121,0.09,-5.706874E-06,1.35,-1
0.0909,3.692683E-05,1.3635,122,0.0909,6.378271E-06,1.3635,1
0.0918,3.021286E-06,1.377,121,0.0918,-3.524834E-05,1.377,2
0.0927,2.450599E-05,1.3905,121,0.0927,-1.611353E-05,1.3905,-1
0.0936,5.706874E-06,1.404,120,0.0936,-2.450599E-05,1.404,-1
0.09450001,3.356985E-07,1.4175,121,0.09450001,-1.712062E-05,1.4175,1
0.09540001,5.035477E-06,1.431,122,0.09540001,-2.28275E-05,1.431,1
0.09630001,1.611353E-05,1.4445,121,0.09630001,-4.129091E-05,1.4445,0
0.0972,1.879912E-05,1.458,122,0.0972,-6.042573E-06,1.458,2
0.0981,-3.692683E-06,1.4715,123,0.0981,-1.913481E-05,1.4715,-1
0.099,-9.735256E-06,1.485,122,0.099,-4.095522E-05,1.485,4
0.0999,-7.049668E-06,1.4985,122,0.0999,-6.076142E-05,1.4985,0
0.1008,-4.36408E-05,1.512,122,0.1008,-6.713969E-07,1.512,-1
0.1017,-2.920577E-05,1.5255,122,0.1017,-1.846342E-05,1.5255,-1
0.1026,3.356985E-07,1.539,122,0.1026,-6.210422E-05,1.539,0
0.1035,-7.385367E-06,1.5525,122,0.1035,1.409934E-05,1.5525,-1
0.1044,-4.766919E-05,1.566,123,0.1044,2.316319E-05,1.566,1
0.1053,-6.881819E-05,1.5795,122,0.1053,-1.846342E-05,1.5795,2
0.1062,-2.719158E-05,1.593,121,0.1062,5.035477E-06,1.593,2
0.1071,-4.33051E-05,1.6065,123,0.1071,2.584878E-05,1.6065,0
0.108,-2.719158E-05,1.62,122,0.108,5.035477E-06,1.62,0
0.1089,7.721065E-06,1.6335,121,0.1089,-1.174945E-05,1.6335,0
0.1098,6.378271E-06,1.647,122,0.1098,-4.196231E-05,1.647,0
0.1107,2.316319E-05,1.6605,123,0.1107,-5.035477E-06,1.6605,1
0.1116,5.001907E-05,1.674,122,0.1116,-1.779202E-05,1.674,2
0.1125,2.383459E-05,1.6875,123,0.1125,-3.356985E-05,1.6875,1
0.1134,1.007095E-06,1.701,122,0.1134,-5.404745E-05,1.701,0
0.1143,-4.028382E-06,1.7145,121,0.1143,-2.349889E-06,1.7145,3
0.1152,-1.174945E-05,1.728,122,0.1152,-7.721065E-06,1.728,0
0.1161,-7.385367E-06,1.7415,122,0.1161,-6.009003E-05,1.7415,1
0.117,-1.812772E-05,1.755,121,0.117,0,1.755,1
0.1179,-3.323415E-05,1.7685,122,0.1179,1.745632E-05,1.7685,0
0.1188,-4.33051E-05,1.782,122,0.1188,-2.383459E-05,1.782,1
0.1197,-1.007095E-06,1.7955,121,0.1197,-1.275654E-05,1.7955,0
0.1206,-8.392462E-06,1.809,122,0.1206,2.484169E-05,1.809,0
0.1215,1.510643E-05,1.8225,123,0.1215,-9.063859E-06,1.8225,1
0.1224,7.586786E-05,1.836,122,0.1224,-1.376364E-05,1.836,1
0.1233,6.042573E-05,1.8495,123,0.1233,-5.270466E-05,1.8495,1
0.1242,-1.376364E-05,1.863,122,0.1242,-1.309224E-05,1.863,1
0.1251,-7.016098E-05,1.8765,122,0.1251,-1.342794E-05,1.8765,0
0.126,-3.994812E-05,1.89,122,0.126,-5.270466E-05,1.89,0
0.1269,-2.987716E-05,1.9035,122,0.1269,-5.807584E-05,1.9035,0
0.1278,-2.349889E-05,1.917,123,0.1278,8.056763E-06,1.917,0
0.1287,-7.385367E-06,1.9305,122,0.1287,-8.392462E-06,1.9305,0
0.1296,1.309224E-05,1.944,122,0.1296,-6.076142E-05,1.944,-2
0.1305,-2.081331E-05,1.9575,122,0.1305,-3.692683E-06,1.9575,0
0.1314,-5.035477E-06,1.971,121,0.1314,-4.36408E-06,1.971,0
0.1323,-6.713969E-07,1.9845,123,0.1323,-4.632639E-05,1.9845,-1
0.1332,-7.049668E-06,1.998,124,0.1332,-2.349889E-05,1.998,0
0.1341,-1.443504E-05,2.0115,123,0.1341,1.242084E-05,2.0115,0
0.135,5.035477E-06,2.025,122,0.135,-4.028382E-06,2.025,0
0.1359,-6.042573E-06,2.0385,122,0.1359,-1.644922E-05,2.0385,0
0.1368,-1.342794E-06,2.052,121,0.1368,-4.33051E-05,2.052,0
0.1377,2.719158E-05,2.0655,121,0.1377,-2.047761E-05,2.0655,1
0.1386,3.726253E-05,2.079,123,0.1386,-3.356985E-06,2.079,-1
0.1395,1.678492E-05,2.0925,122,0.1395,-1.812772E-05,2.0925,1
0.1404,3.692683E-06,2.106,122,0.1404,-4.49836E-05,2.106,-1
0.1413,-5.035477E-06,2.1195,121,0.1413,3.692683E-06,2.1195,0
0.1422,2.014191E-06,2.133,123,0.1422,-7.721065E-06,2.133,0
0.1431,2.1149E-05,2.1465,121,0.1431,-5.807584E-05,2.1465,0
0.144,2.652018E-05,2.16,121,0.144,8.056763E-06,2.16,-1
0.1449,-1.812772E-05,2.1735,121,0.1449,2.014191E-06,2.1735,-1
0.1458,-4.061952E-05,2.187,121,0.1458,-4.867628E-05,2.187,0
0.1467,-7.049668E-06,2.2005,122,0.1467,-2.752728E-05,2.2005,-3
0.1476,-2.584878E-05,2.214,123,0.1476,-1.007095E-06,2.214,0
0.1485,-3.726253E-05,2.2275,122,0.1485,-1.678492E-06,2.2275,0
0.1494,-2.316319E-05,2.241,123,0.1494,-2.786297E-05,2.241,-1
0.1503,-1.376364E-05,2.2545,122,0.1503,-5.539025E-05,2.2545,0
0.1512,-5.706874E-06,2.268,122,0.1512,1.678492E-06,2.268,-5
0.1521,1.779202E-05,2.2815,122,0.1521,-4.36408E-06,2.2815,1
0.153,1.678492E-06,2.295,121,0.153,-3.256275E-05,2.295,-1
0.1539,1.644922E-05,2.3085,120,0.1539,-4.33051E-05,2.3085,-2
0.1548,4.36408E-06,2.322,122,0.1548,3.021286E-06,2.322,0
0.1557,1.510643E-05,2.3355,121,0.1557,-1.376364E-05,2.3355,0
0.1566,1.376364E-05,2.349,121,0.1566,-5.874724E-05,2.349,0
0.1575,3.692683E-06,2.3625,122,0.1575,6.713969E-07,2.3625,1
0.1584,-4.36408E-06,2.376,121,0.1584,8.728161E-06,2.376,-2
0.1593,-8.392462E-06,2.3895,122,0.1593,-5.941863E-05,2.3895,-1
0.1602,1.007095E-06,2.403,122,0.1602,-2.316319E-05,2.403,-1
0.1611,-1.376364E-05,2.4165,122,0.1611,-8.392462E-06,2.4165,0
0.162,-2.551309E-05,2.43,122,0.162,-1.980621E-05,2.43,0
0.1629,-2.18204E-05,2.4435,122,0.1629,-2.618448E-05,2.4435,-1
0.1638,-3.021286E-06,2.457,121,0.1638,-4.800488E-05,2.457,0
0.1647,-9.063859E-06,2.4705,120,0.1647,-1.510643E-05,2.4705,0
0.1656,-6.814679E-05,2.484,122,0.1656,1.007095E-05,2.484,0
0.1665,-7.989624E-05,2.4975,122,0.1665,-1.879912E-05,2.4975,0
0.1674,-2.584878E-05,2.511,122,0.1674,-3.558404E-05,2.511,0
0.1683,-3.659113E-05,2.5245,121,0.1683,2.316319E-05,2.5245,-3
0.1692,-4.666209E-05,2.538,122,0.1692,-1.443504E-05,2.538,0
0.1701,-2.383459E-05,2.5515,122,0.1701,-6.344701E-05,2.5515,-3
0.171,-2.047761E-05,2.565,122,0.171,1.007095E-05,2.565,1
0.1719,1.107805E-05,2.5785,120,0.1719,3.189136E-05,2.5785,1
0.1728,5.841154E-05,2.592,122,0.1728,-3.121996E-05,2.592,0
0.1737,3.155566E-05,2.6055,121,0.1737,-1.107805E-05,2.6055,0
0.1746,-3.692683E-06,2.619,121,0.1746,2.652018E-05,2.619,-1
0.1755,-1.678492E-06,2.6325,121,0.1755,-1.678492E-06,2.6325,0
0.1764,-1.477073E-05,2.646,121,0.1764,-2.450599E-05,2.646,0
0.1773,-2.047761E-05,2.6595,122,0.1773,-4.36408E-05,2.6595,-1
0.1782,-1.040665E-05,2.673,122,0.1782,1.678492E-06,2.673,2
0.1791,-6.713969E-06,2.6865,122,0.1791,-6.713969E-06,2.6865,0
0.18,-1.510643E-05,2.7,122,0.18,-4.46479E-05,2.7,0
0.1809,1.309224E-05,2.7135,122,0.1809,-6.478981E-05,2.7135,-1
0.1818,1.443504E-05,2.727,123,0.1818,-6.378271E-06,2.727,-1
0.1827,-1.678492E-06,2.7405,123,0.1827,-6.713969E-06,2.7405,1
0.1836,7.721065E-06,2.754,123,0.1836,-5.740444E-05,2.754,0
0.1845,-3.356985E-06,2.7675,122,0.1845,5.035477E-06,2.7675,0
0.1854,-9.399558E-06,2.781,122,0.1854,4.36408E-06,2.781,0
0.1863,-2.21561E-05,2.7945,122,0.1863,-5.304036E-05,2.7945,0
0.1872,-6.478981E-05,2.808,122,0.1872,-3.356985E-07,2.808,0
0.1881,-6.6804E-05,2.8215,122,0.1881,2.28275E-05,2.8215,2
0.189,-5.304036E-05,2.835,121,0.189,-1.342794E-06,2.835,2
0.1899,-2.920577E-05,2.8485,123,0.1899,3.021286E-06,2.8485,0
0.1908,-2.014191E-06,2.862,122,0.1908,-2.652018E-05,2.862,-1
0.1917,-2.014191E-06,2.8755,121,0.1917,-1.242084E-05,2.8755,2
0.1926,1.376364E-05,2.889,122,0.1926,-3.021286E-06,2.889,1
0.1935,9.735256E-06,2.9025,121,0.1935,-3.826963E-05,2.9025,-2
0.1944,-1.174945E-05,2.916,124,0.1944,-5.941863E-05,2.916,0
0.1953,-6.378271E-06,2.9295,121,0.1953,6.042573E-06,2.9295,0
0.1962,1.812772E-05,2.943,121,0.1962,2.685588E-06,2.943,0
0.1971,1.208515E-05,2.9565,120,0.1971,-7.486076E-05,2.9565,0
0.198,-5.706874E-06,2.97,121,0.198,-2.047761E-05,2.97,0
0.1989,3.558404E-05,2.9835,122,0.1989,2.652018E-05,2.9835,-2
0.1998,-4.36408E-06,2.997,120,0.1998,-3.457694E-05,2.997,0
0.2007,-2.349889E-06,3.0105,122,0.2007,-2.920577E-05,3.0105,1
0.2016,-1.275654E-05,3.024,121,0.2016,3.692683E-06,3.024,-3
0.2025,-1.409934E-05,3.0375,0,0.2025,-4.699779E-06,3.0375,0
0.2034,-2.316319E-05,3.051,0,0.2034,-1.947051E-05,3.051,0
0.2043,-2.383459E-05,3.0645,0,0.2043,-3.793393E-05,3.0645,0
0.2052,9.063859E-06,3.078,0,0.2052,-1.879912E-05,3.078,0
0.2061,3.356985E-07,3.0915,0,0.2061,1.007095E-06,3.0915,0
0.207,-2.014191E-06,3.105,0,0.207,-2.685588E-05,3.105,0
0.2079,5.203327E-05,3.1185,0,0.2079,-6.445411E-05,3.1185,0
0.2088,2.987716E-05,3.132,0,0.2088,-1.510643E-05,3.132,0
0.2097,1.846342E-05,3.1455,0,0.2097,-2.18204E-05,3.1455,0
0.2106,4.46479E-05,3.159,0,0.2106,-6.74754E-05,3.159,0
0.2115,1.544213E-05,3.1725,0,0.2115,-5.706874E-06,3.1725,0
0.2124,-8.728161E-06,3.186,0,0.2124,-2.1149E-05,3.186,0
0.2133,2.584878E-05,3.1995,0,0.2133,-4.129091E-05,3.1995,0
0.2142,2.316319E-05,3.213,0,0.2142,-1.107805E-05,3.213,0
0.2151,-2.24918E-05,3.2265,0,0.2151,1.141375E-05,3.2265,0
0.216,-1.544213E-05,3.24,0,0.216,-1.678492E-06,3.24,0
0.2169,-4.028382E-06,3.2535,0,0.2169,-1.913481E-05,3.2535,0
0.2178,-1.477073E-05,3.267,0,0.2178,-5.203327E-05,3.267,0
0.2187,-1.678492E-06,3.2805,0,0.2187,-3.927672E-05,3.2805,0
0.2196,-4.53193E-05,3.294,0,0.2196,-1.443504E-05,3.294,0
0.2205,-5.941863E-05,3.3075,0,0.2205,-2.18204E-05,3.3075,0
0.2214,-2.584878E-05,3.321,0,0.2214,-4.632639E-05,3.321,0
0.2223,-1.712062E-05,3.3345,0,0.2223,7.385367E-06,3.3345,0
0.2232,-1.544213E-05,3.348,0,0.2232,6.713969E-06,3.348,0
0.2241,-3.021286E-06,3.3615,0,0.2241,-6.076142E-05,3.3615,0
0.225,-2.786297E-05,3.375,0,0.225,0,3.375,0
0.2259,-3.692683E-06,3.3885,0,0.2259,1.544213E-05,3.3885,0
0.2268,-6.378271E-06,3.402,0,0.2268,-2.987716E-05,3.402,0
0.2277,2.18204E-05,3.4155,0,0.2277,5.035477E-06,3.4155,0
0.2286,1.174945E-05,3.429,0,0.2286,2.920577E-05,3.429,0
0.2295,-6.378271E-06,3.4425,0,0.2295,-3.021286E-06,3.4425,0
0.2304,-1.577783E-05,3.456,0,0.2304,-1.510643E-05,3.456,0
0.2313,9.735256E-06,3.4695,0,0.2313,-4.196231E-05,3.4695,0
0.2322,-7.721065E-06,3.483,0,0.2322,-1.309224E-05,3.483,0
0.2331,-3.927672E-05,3.4965,0,0.2331,-2.18204E-05,3.4965,0
0.234,-2.584878E-05,3.51,0,0.234,-3.558404E-05,3.51,0
0.2349,-2.450599E-05,3.5235,0,0.2349,-4.599069E-05,3.5235,0
0.2358,-3.021286E-05,3.537,0,0.2358,-9.063859E-06,3.537,0
0.2367,-3.323415E-05,3.5505,0,0.2367,-2.719158E-05,3.5505,0
0.2376,3.021286E-06,3.564,0,0.2376,-7.351797E-05,3.564,0
0.2385,-3.356985E-06,3.5775,0,0.2385,-3.692683E-06,3.5775,0
0.2394,-2.014191E-06,3.591,0,0.2394,1.510643E-05,3.591,0
0.2403,-1.846342E-05,3.6045,0,0.2403,-2.819867E-05,3.6045,0
0.2412,-2.047761E-05,3.618,0,0.2412,-7.049668E-06,3.618,0
0.2421,-9.735256E-06,3.6315,0,0.2421,1.678492E-05,3.6315,0
0.243,6.378271E-06,3.645,0,0.243,3.692683E-06,3.645,0
0.2439,-1.644922E-05,3.6585,0,0.2439,-2.349889E-06,3.6585,0
0.2448,-1.947051E-05,3.672,0,0.2448,-2.719158E-05,3.672,0
0.2457,1.409934E-05,3.6855,0,0.2457,-1.309224E-05,3.6855,0
0.2466,1.242084E-05,3.699,0,0.2466,2.349889E-06,3.699,0
0.2475,-1.376364E-05,3.7125,0,0.2475,-2.719158E-05,3.7125,0
0.2484,1.309224E-05,3.726,0,0.2484,-5.539025E-05,3.726,0
0.2493,-3.356985E-07,3.7395,0,0.2493,1.040665E-05,3.7395,0
0.2502,-2.047761E-05,3.753,0,0.2502,2.349889E-06,3.753,0
0.2511,4.36408E-06,3.7665,0,0.2511,-6.54612E-05,3.7665,0
0.252,5.035477E-06,3.78,0,0.252,4.028382E-06,3.78,0
0.2529,-3.860533E-05,3.7935,0,0.2529,3.692683E-06,3.7935,0
0.2538,-4.934768E-05,3.807,0,0.2538,-5.001907E-05,3.807,0
0.2547,-1.812772E-05,3.8205,0,0.2547,-3.424125E-05,3.8205,0
0.2556,-3.961242E-05,3.834,0,0.2556,-7.721065E-06,3.834,0
0.2565,4.53193E-05,3.8475,0,0.2565,-9.063859E-06,3.8475,0
0.2574,4.599069E-05,3.861,0,0.2574,-2.316319E-05,3.861,0
0.2583,3.021286E-06,3.8745,0,0.2583,-5.438316E-05,3.8745,0
0.2592,1.577783E-05,3.888,0,0.2592,-8.392462E-06,3.888,0
0.2601,3.860533E-05,3.9015,0,0.2601,-1.745632E-05,3.9015,0
0.261,1.510643E-05,3.915,0,0.261,-5.673304E-05,3.915,0
0.2619,-5.706874E-06,3.9285,0,0.2619,-6.210422E-05,3.9285,0
0.2628,-1.107805E-05,3.942,0,0.2628,-1.074235E-05,3.942,0
0.2637,-2.014191E-06,3.9555,0,0.2637,-2.047761E-05,3.9555,0
0.2646,2.584878E-05,3.969,0,0.2646,-7.721065E-05,3.969,0
0.2655,3.155566E-05,3.9825,0,0.2655,-2.24918E-05,3.9825,0
0.2664,-4.028382E-06,3.996,0,0.2664,1.208515E-05,3.996,0
0.2673,-1.678492E-05,4.0095,0,0.2673,-3.524834E-05,4.0095,0
0.2682,-1.141375E-05,4.023,0,0.2682,2.349889E-06,4.023,0
0.2691,-1.779202E-05,4.0365,0,0.2691,2.517739E-05,4.0365,0
0.27,-3.256275E-05,4.05,0,0.27,3.692683E-06,4.05,0
0.2709,-1.980621E-05,4.0635,0,0.2709,8.392462E-06,4.0635,0
0.2718,-4.36408E-06,4.077,0,0.2718,-2.24918E-05,4.077,0
0.2727,-3.692683E-06,4.0905,0,0.2727,-1.510643E-05,4.0905,0
0.2736,-2.920577E-05,4.104,0,0.2736,-3.021286E-06,4.104,0
0.2745,-2.786297E-05,4.1175,0,0.2745,-3.323415E-05,4.1175,0
0.2754,-1.376364E-05,4.131,0,0.2754,-5.606165E-05,4.131,0
0.2763,-2.853437E-05,4.1445,0,0.2763,-3.021286E-06,4.1445,0
0.2772,-1.779202E-05,4.158,0,0.2772,-2.719158E-05,4.158,0
0.2781,-3.021286E-06,4.1715,0,0.2781,-5.841154E-05,4.1715,0
0.279,-2.954147E-05,4.185,0,0.279,3.692683E-06,4.185,0
0.2799,-3.793393E-05,4.1985,0,0.2799,5.035477E-06,4.1985,0
0.2808,-1.309224E-05,4.212,0,0.2808,-4.867628E-05,4.212,0
0.2817,2.316319E-05,4.2255,0,0.2817,-1.913481E-05,4.2255,0
0.2826,-1.074235E-05,4.239,0,0.2826,4.36408E-06,4.239,0
0.2835,-1.342794E-05,4.2525,0,0.2835,-1.678492E-05,4.2525,0
0.2844,-9.063859E-06,4.266,0,0.2844,-1.779202E-05,4.266,0
0.2853,-5.035477E-06,4.2795,0,0.2853,-4.36408E-05,4.2795,0
0.2862,-1.107805E-05,4.293,0,0.2862,-6.713969E-07,4.293,0
0.2871,-5.404745E-05,4.3065,0,0.2871,6.378271E-06,4.3065,0
0.288,-6.478981E-05,4.32,0,0.288,-1.947051E-05,4.32,0
0.2889,-1.913481E-05,4.3335,0,0.2889,-3.457694E-05,4.3335,0
0.2898,-1.107805E-05,4.347,0,0.2898,8.392462E-06,4.347,0
0.2907,-3.860533E-05,4.3605,0,0.2907,-3.021286E-06,4.3605,0
0.2916,-6.378271E-06,4.374,0,0.2916,-4.733349E-05,4.374,0
0.2925,2.450599E-05,4.3875,0,0.2925,1.443504E-05,4.3875,0
0.2934,6.344701E-05,4.401,0,0.2934,-7.385367E-06,4.401,0
0.2943,3.424125E-05,4.4145,0,0.2943,-5.975433E-05,4.4145,0
0.2952,-1.980621E-05,4.428,0,0.2952,-1.846342E-05,4.428,0
0.2961,-1.376364E-05,4.4415,0,0.2961,2.014191E-06,4.4415,0
0.297,6.713969E-07,4.455,0,0.297,-1.007095E-06,4.455,0
0.2979,-1.007095E-06,4.4685,0,0.2979,6.713969E-07,4.4685,0
0.2988,2.1149E-05,4.482,0,0.2988,-2.786297E-05,4.482,0
0.2997,7.385367E-06,4.4955,0,0.2997,0,4.4955,0
0.3006,6.378271E-06,4.509,0,0.3006,-1.007095E-06,4.509,0
0.3015,9.063859E-06,4.5225,0,0.3015,-4.934768E-05,4.5225,0
0.3024,8.392462E-06,4.536,0,0.3024,-6.71397E-05,4.536,0
0.3033,-3.356985E-06,4.5495,0,0.3033,-3.692683E-06,4.5495,0
0.3042,-7.049668E-06,4.563,0,0.3042,-8.392462E-06,4.563,0
0.3051,-8.392462E-06,4.5765,0,0.3051,-8.090334E-05,4.5765,0
0.306,-1.443504E-05,4.59,0,0.306,-1.309224E-05,4.59,0
0.3069,7.721065E-06,4.6035,0,0.3069,1.577783E-05,4.6035,0
0.3078,1.342794E-06,4.617,0,0.3078,-3.692683E-05,4.617,0
0.3087,6.378271E-06,4.6305,0,0.3087,-1.443504E-05,4.6305,0
0.3096,1.107805E-05,4.644,0,0.3096,1.678492E-05,4.644,0
0.3105,-2.014191E-06,4.6575,0,0.3105,8.056763E-06,4.6575,0
0.3114,-4.028382E-06,4.671,0,0.3114,-6.713969E-07,4.671,0
0.3123,-1.678492E-06,4.6845,0,0.3123,-2.316319E-05,4.6845,0
0.3132,-1.678492E-06,4.698,0,0.3132,-3.692683E-06,4.698,0
0.3141,-1.242084E-05,4.7115,0,0.3141,-1.510643E-05,4.7115,0
0.315,-1.007095E-06,4.725,0,0.315,-4.800488E-05,4.725,0
0.3159,8.728161E-06,4.7385,0,0.3159,-5.673304E-05,4.7385,0
0.3168,-3.356985E-05,4.752,0,0.3168,-5.706874E-06,4.752,0
0.3177,-2.1149E-05,4.7655,0,0.3177,-2.349889E-05,4.7655,0
0.3186,1.007095E-06,4.779,0,0.3186,-6.344701E-05,4.779,0
0.3195,-2.450599E-05,4.7925,0,0.3195,-7.385367E-06,4.7925,0
0.3204,-8.056763E-06,4.806,0,0.3204,3.356985E-07,4.806,0
0.3213,1.611353E-05,4.8195,0,0.3213,-3.155566E-05,4.8195,0
0.3222,-5.035477E-05,4.833,0,0.3222,-3.927672E-05,4.833,0
0.3231,-6.277562E-05,4.8465,0,0.3231,1.342794E-06,4.8465,0
0.324,-3.390555E-05,4.86,0,0.324,-2.014191E-05,4.86,0
0.3249,-2.987716E-05,4.8735,0,0.3249,-3.793393E-05,4.8735,0
0.3258,-4.061952E-05,4.887,0,0.3258,-6.009003E-05,4.887,0
0.3267,-9.063859E-06,4.9005,0,0.3267,-1.376364E-05,4.9005,0
0.3276,2.719158E-05,4.914,0,0.3276,-1.007095E-06,4.914,0
0.3285,-2.349889E-06,4.9275,0,0.3285,-4.33051E-05,4.9275,0
0.3294,1.745632E-05,4.941,0,0.3294,-4.867628E-05,4.941,0
0.3303,-6.713969E-07,4.9545,0,0.3303,-1.007095E-06,4.9545,0
0.3312,-3.356985E-07,4.968,0,0.3312,0,4.968,0
0.3321,1.040665E-05,4.9815,0,0.3321,-4.666209E-05,4.9815,0
0.333,-8.392462E-06,4.995,0,0.333,4.699779E-06,4.995,0
0.3339,-2.316319E-05,5.0085,0,0.3339,3.256275E-05,5.0085,0
0.3348,-2.21561E-05,5.022,0,0.3348,-2.316319E-05,5.022,0
0.3357,-4.162661E-05,5.0355,0,0.3357,6.042573E-06,5.0355,0
0.3366,-4.36408E-06,5.049,0,0.3366,2.1149E-05,5.049,0
0.3375,-5.371176E-06,5.0625,0,0.3375,-8.392462E-06,5.0625,0
0.3384,-1.980621E-05,5.076,0,0.3384,-1.779202E-05,5.076,0
0.3393,-1.443504E-05,5.0895,0,0.3393,-5.404745E-05,5.0895,0
0.3402,-3.356985E-07,5.103,0,0.3402,-7.049668E-06,5.103,0
0.3411,-3.021286E-06,5.1165,0,0.3411,-1.443504E-05,5.1165,0
0.342,-1.007095E-05,5.13,0,0.342,-5.438316E-05,5.13,0
0.3429,-1.174945E-05,5.1435,0,0.3429,-5.337606E-05,5.1435,0
0.3438,-1.678492E-06,5.157,0,0.3438,8.392462E-06,5.157,0
0.3447,1.678492E-06,5.1705,0,0.3447,-7.049668E-06,5.1705,0
0.3456,2.652018E-05,5.184,0,0.3456,-5.807584E-05,5.184,0
0.3465,-1.678492E-06,5.1975,0,0.3465,4.36408E-06,5.1975,0
0.3474,3.457694E-05,5.211,0,0.3474,2.1149E-05,5.211,0
0.3483,3.659113E-05,5.2245,0,0.3483,-2.18204E-05,5.2245,0
0.3492,-1.678492E-05,5.238,0,0.3492,-2.920577E-05,5.238,0
0.3501,-1.846342E-05,5.2515,0,0.3501,-3.692683E-06,5.2515,0
0.351,-1.409934E-05,5.265,0,0.351,-9.063859E-06,5.265,0
0.3519,-2.484169E-05,5.2785,0,0.3519,-1.141375E-05,5.2785,0
0.3528,-5.371176E-06,5.292,0,0.3528,-4.46479E-05,5.292,0
0.3537,1.242084E-05,5.3055,0,0.3537,-1.208515E-05,5.3055,0
0.3546,1.208515E-05,5.319,0,0.3546,-1.309224E-05,5.319,0
0.3555,1.712062E-05,5.3325,0,0.3555,-4.733349E-05,5.3325,0
0.3564,4.867628E-05,5.346,0,0.3564,-4.53193E-05,5.346,0
0.3573,3.692683E-06,5.3595,0,0.3573,2.18204E-05,5.3595,0
0.3582,1.040665E-05,5.373,0,0.3582,-9.063859E-06,5.373,0
0.3591,2.652018E-05,5.3865,0,0.3591,-5.841154E-05,5.3865,0
0.36,3.021286E-06,5.4,0,0.36,2.047761E-05,5.4,0
0.3609,-3.692683E-05,5.4135,0,0.3609,2.853437E-05,5.4135,0
0.3618,-4.49836E-05,5.427,0,0.3618,-5.001907E-05,5.427,0
0.3627,-4.766919E-05,5.4405,0,0.3627,-3.524834E-05,5.4405,0
0.3636,-4.867628E-05,5.454,0,0.3636,1.040665E-05,5.454,0
0.3645,-2.014191E-05,5.4675,0,0.3645,3.356985E-07,5.4675,0
0.3654,-2.316319E-05,5.481,0,0.3654,-2.081331E-05,5.481,0
0.3663,-1.779202E-05,5.4945,0,0.3663,-4.733349E-05,5.4945,0
0.3672,2.349889E-06,5.508,0,0.3672,-1.107805E-05,5.508,0
0.3681,1.242084E-05,5.5215,0,0.3681,-1.309224E-05,5.5215,0
0.369,-3.256275E-05,5.535,0,0.369,-5.539025E-05,5.535,0
0.3699,-3.726253E-05,5.5485,0,0.3699,-5.069047E-05,5.5485,0
0.3708,-2.24918E-05,5.562,0,0.3708,4.699779E-06,5.562,0
0.3717,-1.544213E-05,5.5755,0,0.3717,-2.014191E-06,5.5755,0
0.3726,-1.644922E-05,5.589,0,0.3726,-6.61326E-05,5.589,0
0.3735,5.371176E-06,5.6025,0,0.3735,-1.678492E-05,5.6025,0
0.3744,3.054856E-05,5.616,0,0.3744,2.24918E-05,5.616,0
0.3753,2.24918E-05,5.6295,0,0.3753,-3.256275E-05,5.6295,0
0.3762,6.57969E-05,5.643,0,0.3762,-2.853437E-05,5.643,0
0.3771,3.356985E-06,5.6565,0,0.3771,1.342794E-05,5.6565,0
0.378,-1.678492E-05,5.67,0,0.378,3.356985E-07,5.67,0
0.3789,-1.007095E-05,5.6835,0,0.3789,-7.721065E-06,5.6835,0
0.3798,3.356985E-06,5.697,0,0.3798,-4.666209E-05,5.697,0
0.3807,3.356985E-07,5.7105,0,0.3807,-1.107805E-05,5.7105,0
0.3816,-6.478981E-05,5.724,0,0.3816,3.558404E-05,5.724,0
0.3825,-5.069047E-05,5.7375,0,0.3825,-1.007095E-05,5.7375,0
0.3834,-2.786297E-05,5.751,0,0.3834,-4.061952E-05,5.751,0
0.3843,-2.24918E-05,5.7645,0,0.3843,2.1149E-05,5.7645,0
0.3852,-3.692683E-06,5.778,0,0.3852,-1.007095E-05,5.778,0
0.3861,-3.356985E-06,5.7915,0,0.3861,-5.841154E-05,5.7915,0
0.387,-6.378271E-06,5.805,0,0.387,-5.035477E-06,5.805,0
0.3879,3.323415E-05,5.8185,0,0.3879,1.007095E-06,5.8185,0
0.3888,1.510643E-05,5.832,0,0.3888,-7.150377E-05,5.832,0
0.3897,-4.934768E-05,5.8455,0,0.3897,-4.39765E-05,5.8455,0
0.3906,-3.121996E-05,5.859,0,0.3906,-5.706874E-06,5.859,0
0.3915,6.713969E-07,5.8725,0,0.3915,-2.887007E-05,5.8725,0
0.3924,-9.399558E-06,5.886,0,0.3924,-2.752728E-05,5.886,0
0.3933,-3.021286E-06,5.8995,0,0.3933,-5.572595E-05,5.8995,0
0.3942,3.457694E-05,5.913,0,0.3942,-1.510643E-05,5.913,0
0.3951,2.28275E-05,5.9265,0,0.3951,6.042573E-06,5.9265,0
0.396,7.721065E-06,5.94,0,0.396,-2.21561E-05,5.94,0
0.3969,7.721065E-06,5.9535,0,0.3969,-5.102617E-05,5.9535,0
0.3978,7.721065E-06,5.967,0,0.3978,1.275654E-05,5.967,0
0.3987,-1.040665E-05,5.9805,0,0.3987,-6.378271E-06,5.9805,0
0.3996,6.713969E-07,5.994,0,0.3996,-6.6804E-05,5.994,0
0.4005,-4.699779E-06,6.0075,0,0.4005,-1.678492E-06,6.0075,0
0.4014,1.678492E-06,6.021,0,0.4014,2.584878E-05,6.021,0
0.4023,-1.678492E-06,6.0345,0,0.4023,-2.853437E-05,6.0345,0
0.4032,-5.706874E-06,6.048,0,0.4032,-2.853437E-05,6.048,0
0.4041,-2.316319E-05,6.0615,0,0.4041,1.007095E-06,6.0615,0
0.405,-1.947051E-05,6.075,0,0.405,-1.107805E-05,6.075,0
0.4059,-1.309224E-05,6.0885,0,0.4059,-1.913481E-05,6.0885,0
0.4068,-1.712062E-05,6.102,0,0.4068,-4.867628E-05,6.102,0
0.4077,-1.208515E-05,6.1155,0,0.4077,-5.035477E-06,6.1155,0
0.4086,-2.349889E-06,6.129,0,0.4086,2.1149E-05,6.129,0
0.4095,-3.994812E-05,6.1425,0,0.4095,-1.644922E-05,6.1425,0
0.4104,-3.692683E-05,6.156,0,0.4104,-3.860533E-05,6.156,0
0.4113,-4.36408E-06,6.1695,0,0.4113,7.049668E-06,6.1695,0
0.4122,-3.121996E-05,6.183,0,0.4122,3.021286E-06,6.183,0
0.4131,1.678492E-06,6.1965,0,0.4131,-5.639734E-05,6.1965,0
0.414,1.309224E-05,6.21,0,0.414,-3.021286E-06,6.21,0
0.4149,1.107805E-05,6.2235,0,0.4149,1.779202E-05,6.2235,0
0.4158,1.242084E-05,6.237,0,0.4158,-5.304036E-05,6.237,0
0.4167,-3.021286E-05,6.2505,0,0.4167,-3.826963E-05,6.2505,0
0.4176,-4.867628E-05,6.264,0,0.4176,5.706874E-06,6.264,0
0.4185,-6.948959E-05,6.2775,0,0.4185,-1.947051E-05,6.2775,0
0.4194,-2.21561E-05,6.291,0,0.4194,-2.719158E-05,6.291,0
0.4203,1.376364E-05,6.3045,0,0.4203,-5.069047E-05,6.3045,0
0.4212,3.692683E-06,6.318,0,0.4212,-3.356985E-05,6.318,0
0.4221,-1.510643E-05,6.3315,0,0.4221,-5.035477E-06,6.3315,0
0.423,-6.378271E-06,6.345,0,0.423,-3.793393E-05,6.345,0
0.4239,-1.678492E-06,6.3585,0,0.4239,-4.43122E-05,6.3585,0
0.4248,-2.18204E-05,6.372,0,0.4248,1.174945E-05,6.372,0
0.4257,-1.980621E-05,6.3855,0,0.4257,-1.040665E-05,6.3855,0
0.4266,-1.644922E-05,6.399,0,0.4266,-5.941863E-05,6.399,0
0.4275,6.042573E-06,6.4125,0,0.4275,-1.376364E-05,6.4125,0
0.4284,2.21561E-05,6.426,0,0.4284,-8.056763E-06,6.426,0
0.4293,2.383459E-05,6.4395,0,0.4293,-4.867628E-05,6.4395,0
0.4302,5.035477E-06,6.453,0,0.4302,-4.33051E-05,6.453,0
0.4311,-6.713969E-06,6.4665,0,0.4311,-7.049668E-06,6.4665,0
0.432,3.289845E-05,6.48,0,0.432,-1.745632E-05,6.48,0
0.4329,1.174945E-05,6.4935,0,0.4329,-2.450599E-05,6.4935,0
0.4338,-1.510643E-05,6.507,0,0.4338,-4.968337E-05,6.507,0
0.4347,3.692683E-06,6.5205,0,0.4347,-3.021286E-06,6.5205,0
0.4356,2.618448E-05,6.534,0,0.4356,2.551309E-05,6.534,0
0.4365,1.980621E-05,6.5475,0,0.4365,-2.349889E-05,6.5475,0
0.4374,1.779202E-05,6.561,0,0.4374,-4.196231E-05,6.561,0
0.4383,-4.699779E-06,6.5745,0,0.4383,1.980621E-05,6.5745,0
0.4392,3.692683E-06,6.588,0,0.4392,9.735256E-06,6.588,0
0.4401,-3.356985E-07,6.6015,0,0.4401,-5.236896E-05,6.6015,0
0.441,1.007095E-05,6.615,0,0.441,7.721065E-06,6.615,0
0.4419,-2.047761E-05,6.6285,0,0.4419,2.819867E-05,6.6285,0
0.4428,-5.539025E-05,6.642,0,0.4428,-2.21561E-05,6.642,0
0.4437,-3.558404E-05,6.6555,0,0.4437,1.846342E-05,6.6555,0
0.4446,-4.129091E-05,6.669,0,0.4446,1.007095E-05,6.669,0
0.4455,-4.33051E-05,6.6825,0,0.4455,-1.376364E-05,6.6825,0
0.4464,-1.309224E-05,6.696,0,0.4464,-1.779202E-05,6.696,0
0.4473,-3.356985E-06,6.7095,0,0.4473,-3.793393E-05,6.7095,0
0.4482,9.063859E-06,6.723,0,0.4482,-1.376364E-05,6.723,0
0.4491,5.035477E-06,6.7365,0,0.4491,-3.692683E-06,6.7365,0
0.45,-2.652018E-05,6.75,0,0.45,-2.987716E-05,6.75,0
0.4509,-2.383459E-05,6.7635,0,0.4509,-3.189136E-05,6.7635,0
0.4518,-2.618448E-05,6.777,0,0.4518,6.378271E-06,6.777,0
0.4527,-2.316319E-05,6.7905,0,0.4527,-1.040665E-05,6.7905,0
0.4536,6.713969E-07,6.804,0,0.4536,-6.277562E-05,6.804,0
0.4545,-7.049668E-06,6.8175,0,0.4545,-1.510643E-05,6.8175,0
0.4554,2.786297E-05,6.831,0,0.4554,-1.007095E-05,6.831,0
0.4563,3.591974E-05,6.8445,0,0.4563,-6.277562E-05,6.8445,0
0.4572,1.309224E-05,6.858,0,0.4572,-2.887007E-05,6.858,0
0.4581,1.678492E-05,6.8715,0,0.4581,5.035477E-06,6.8715,0
0.459,8.392462E-06,6.885,0,0.459,-9.399558E-06,6.885,0
0.4599,-1.107805E-05,6.8985,0,0.4599,-1.577783E-05,6.8985,0
0.4608,7.049668E-06,6.912,0,0.4608,-5.841154E-05,6.912,0
0.4617,-1.174945E-05,6.9255,0,0.4617,-2.719158E-05,6.9255,0
0.4626,-6.51255E-05,6.939,0,0.4626,-1.107805E-05,6.939,0
0.4635,-5.304036E-05,6.9525,0,0.4635,-5.941863E-05,6.9525,0
0.4644,-1.409934E-05,6.966,0,0.4644,-6.54612E-05,6.966,0
0.4653,-3.121996E-05,6.9795,0,0.4653,9.063859E-06,6.9795,0
0.4662,-1.443504E-05,6.993,0,0.4662,-2.349889E-06,6.993,0
0.4671,2.081331E-05,7.0065,0,0.4671,-5.471885E-05,7.0065,0
0.468,-1.141375E-05,7.02,0,0.468,2.18204E-05,7.02,0
0.4689,-3.356985E-07,7.0335,0,0.4689,2.047761E-05,7.0335,0
0.4698,8.392462E-06,7.047,0,0.4698,-3.088426E-05,7.047,0
0.4707,-2.1149E-05,7.0605,0,0.4707,-3.323415E-05,7.0605,0
0.4716,-3.121996E-05,7.074,0,0.4716,-8.392462E-06,7.074,0
0.4725,-1.040665E-05,7.0875,0,0.4725,-4.129091E-05,7.0875,0
0.4734,-1.644922E-05,7.101,0,0.4734,-3.088426E-05,7.101,0
0.4743,2.349889E-06,7.1145,0,0.4743,-4.095522E-05,7.1145,0
0.4752,2.21561E-05,7.128,0,0.4752,-1.678492E-05,7.128,0
0.4761,1.242084E-05,7.1415,0,0.4761,2.685588E-06,7.1415,0
0.477,-1.275654E-05,7.155,0,0.477,-3.625543E-05,7.155,0
0.4779,1.376364E-05,7.1685,0,0.4779,-3.927672E-05,7.1685,0
0.4788,3.021286E-06,7.182,0,0.4788,8.056763E-06,7.182,0
0.4797,-7.049668E-06,7.1955,0,0.4797,5.706874E-06,7.1955,0
0.4806,-2.685588E-06,7.209,0,0.4806,-4.599069E-05,7.209,0
0.4815,1.812772E-05,7.2225,0,0.4815,2.081331E-05,7.2225,0
0.4824,2.1149E-05,7.236,0,0.4824,3.054856E-05,7.236,0
0.4833,4.36408E-06,7.2495,0,0.4833,-3.323415E-05,7.2495,0
0.4842,9.063859E-06,7.263,0,0.4842,2.014191E-06,7.263,0
0.4851,-3.524834E-05,7.2765,0,0.4851,-6.713969E-07,7.2765,0
0.486,-2.383459E-05,7.29,0,0.486,-2.752728E-05,7.29,0
0.4869,-3.021286E-06,7.3035,0,0.4869,-1.678492E-05,7.3035,0
0.4878,6.713969E-07,7.317,0,0.4878,-3.793393E-05,7.317,0
0.4887,-1.141375E-05,7.3305,0,0.4887,-1.812772E-05,7.3305,0
0.4896,-2.047761E-05,7.344,0,0.4896,-1.040665E-05,7.344,0
0.4905,-3.390555E-05,7.3575,0,0.4905,-4.632639E-05,7.3575,0
0.4914,-2.618448E-05,7.371,0,0.4914,-6.378271E-05,7.371,0
0.4923,-2.316319E-05,7.3845,0,0.4923,6.042573E-06,7.3845,0
0.4932,-1.007095E-06,7.398,0,0.4932,-7.721065E-06,7.398,0
0.4941,5.706874E-06,7.4115,0,0.4941,-5.505455E-05,7.4115,0
0.495,3.021286E-06,7.425,0,0.495,1.242084E-05,7.425,0
0.4959,4.36408E-05,7.4385,0,0.4959,3.726253E-05,7.4385,0
0.4968,9.063859E-06,7.452,0,0.4968,-4.263371E-05,7.452,0
0.4977,-3.692683E-06,7.4655,0,0.4977,-2.719158E-05,7.4655,0
0.4986,-2.618448E-05,7.479,0,0.4986,2.1149E-05,7.479,0
0.4995,-2.719158E-05,7.4925,0,0.4995,-1.107805E-05,7.4925,0
0.5004,-4.229801E-05,7.506,0,0.5004,-5.706874E-06,7.506,0
0.5013,-2.584878E-05,7.5195,0,0.5013,-3.558404E-05,7.5195,0
0.5022,-1.007095E-06,7.533,0,0.5022,-2.685588E-05,7.533,0
0.5031,1.107805E-05,7.5465,0,0.5031,5.035477E-06,7.5465,0
0.504,3.793393E-05,7.56,0,0.504,-3.256275E-05,7.56,0
0.5049,8.82887E-05,7.5735,0,0.5049,-6.54612E-05,7.5735,0
0.5058,4.43122E-05,7.587,0,0.5058,2.349889E-06,7.587,0
0.5067,9.399558E-06,7.6005,0,0.5067,1.040665E-05,7.6005,0
0.5076,2.853437E-05,7.614,0,0.5076,-2.920577E-05,7.614,0
0.5085,2.349889E-06,7.6275,0,0.5085,1.309224E-05,7.6275,0
0.5094,-1.812772E-05,7.641,0,0.5094,0,7.641,0
0.5103,-3.256275E-05,7.6545,0,0.5103,-5.807584E-05,7.6545,0
0.5112,-4.061952E-05,7.668,0,0.5112,-4.800488E-05,7.668,0
0.5121,-4.867628E-05,7.6815,0,0.5121,1.040665E-05,7.6815,0
0.513,-6.009003E-05,7.695,0,0.513,6.042573E-06,7.695,0
0.5139,-3.759823E-05,7.7085,0,0.5139,-2.853437E-05,7.7085,0
0.5148,-3.524834E-05,7.722,0,0.5148,-4.565499E-05,7.722,0
0.5157,4.36408E-06,7.7355,0,0.5157,1.242084E-05,7.7355,0
0.5166,1.846342E-05,7.749,0,0.5166,-1.007095E-05,7.749,0
0.5175,-1.644922E-05,7.7625,0,0.5175,-5.505455E-05,7.7625,0
0.5184,1.040665E-05,7.776,0,0.5184,-6.109713E-05,7.776,0
0.5193,1.846342E-05,7.7895,0,0.5193,-9.063859E-06,7.7895,0
0.5202,-1.174945E-05,7.803,0,0.5202,-9.735256E-06,7.803,0
0.5211,0,7.8165,0,0.5211,-6.74754E-05,7.8165,0
0.522,-4.699779E-06,7.83,0,0.522,-1.342794E-06,7.83,0
0.5229,-2.18204E-05,7.8435,0,0.5229,2.316319E-05,7.8435,0
0.5238,-5.337606E-05,7.857,0,0.5238,-5.673304E-05,7.857,0
0.5247,-4.33051E-05,7.8705,0,0.5247,-1.712062E-05,7.8705,0
0.5256,-3.927672E-05,7.884,0,0.5256,2.18204E-05,7.884,0
0.5265,-4.095522E-05,7.8975,0,0.5265,-6.378271E-06,7.8975,0
0.5274,-2.383459E-05,7.911,0,0.5274,0,7.911,0
0.5283,3.692683E-06,7.9245,0,0.5283,-3.591974E-05,7.9245,0
0.5292,-3.021286E-06,7.938,0,0.5292,-1.644922E-05,7.938,0
0.5301,-1.007095E-06,7.9515,0,0.5301,-1.980621E-05,7.9515,0
0.531,-1.342794E-06,7.965,0,0.531,-6.277562E-05,7.965,0
0.5319,-7.049668E-06,7.9785,0,0.5319,-5.539025E-05,7.9785,0
0.5328,-4.028382E-06,7.992,0,0.5328,1.678492E-06,7.992,0
0.5337,1.040665E-05,8.0055,0,0.5337,-4.36408E-06,8.0055,0
0.5346,2.1149E-05,8.019,0,0.5346,-4.599069E-05,8.019,0
0.5355,-2.18204E-05,8.0325,0,0.5355,-3.021286E-06,8.0325,0
0.5364,2.752728E-05,8.046,0,0.5364,2.719158E-05,8.046,0
0.5373,4.061952E-05,8.0595,0,0.5373,-1.980621E-05,8.0595,0
0.5382,-4.095522E-05,8.073,0,0.5382,-4.36408E-05,8.073,0
0.5391,-3.390555E-05,8.0865,0,0.5391,-9.399558E-06,8.0865,0
0.54,-1.913481E-05,8.1,0,0.54,-1.074235E-05,8.1,0
0.5409,-1.745632E-05,8.1135,0,0.5409,-2.551309E-05,8.1135,0
0.5418,-9.735256E-06,8.127,0,0.5418,-4.666209E-05,8.127,0
0.5427,2.316319E-05,8.1405,0,0.5427,-1.678492E-06,8.1405,0
0.5436,5.035477E-06,8.154,0,0.5436,1.107805E-05,8.154,0
0.5445,-1.107805E-05,8.1675,0,0.5445,-2.417029E-05,8.1675,0
0.5454,1.443504E-05,8.181,0,0.5454,-4.49836E-05,8.181,0
0.5463,7.385367E-06,8.1945,0,0.5463,9.063859E-06,8.1945,0
0.5472,-2.652018E-05,8.208,0,0.5472,-1.208515E-05,8.208,0
0.5481,-4.36408E-06,8.2215,0,0.5481,-7.754635E-05,8.2215,0
0.549,-2.652018E-05,8.235,0,0.549,-1.510643E-05,8.235,0
0.5499,-1.510643E-05,8.2485,0,0.5499,7.049668E-06,8.2485,0
0.5508,2.517739E-05,8.262,0,0.5508,-5.471885E-05,8.262,0
0.5517,1.007095E-06,8.2755,0,0.5517,-5.371176E-06,8.2755,0
0.5526,-1.309224E-05,8.289,0,0.5526,7.049668E-06,8.289,0
0.5535,4.36408E-06,8.3025,0,0.5535,-7.721065E-06,8.3025,0
0.5544,1.174945E-05,8.316,0,0.5544,-9.735256E-06,8.316,0
0.5553,8.728161E-06,8.3295,0,0.5553,-3.121996E-05,8.3295,0
0.5562,7.721065E-06,8.343,0,0.5562,-1.544213E-05,8.343,0
0.5571,2.652018E-05,8.3565,0,0.5571,-2.484169E-05,8.3565,0
0.558,3.726253E-05,8.37,0,0.558,-5.673304E-05,8.37,0
0.5589,1.980621E-05,8.3835,0,0.5589,-4.632639E-05,8.3835,0
0.5598,5.035477E-06,8.397,0,0.5598,3.356985E-07,8.397,0
0.5607,-8.392462E-06,8.4105,0,0.5607,-8.056763E-06,8.4105,0
0.5616,-1.007095E-06,8.424,0,0.5616,-4.33051E-05,8.424,0
0.5625,-6.713969E-07,8.4375,0,0.5625,-3.021286E-06,8.4375,0
0.5634,-1.409934E-05,8.451,0,0.5634,2.417029E-05,8.451,0
0.5643,-1.376364E-05,8.4645,0,0.5643,-1.644922E-05,8.4645,0
0.5652,-1.678492E-05,8.478,0,0.5652,-1.879912E-05,8.478,0
0.5661,-2.383459E-05,8.4915,0,0.5661,-3.021286E-06,8.4915,0
0.567,-3.558404E-05,8.505,0,0.567,-1.712062E-05,8.505,0
0.5679,-9.735256E-06,8.5185,0,0.5679,2.349889E-06,8.5185,0
0.5688,0,8.532,0,0.5688,-2.887007E-05,8.532,0
0.5697,-1.913481E-05,8.5455,0,0.5697,1.779202E-05,8.5455,0
0.5706,-7.284657E-05,8.559,0,0.5706,4.666209E-05,8.559,0
0.5715,-5.606165E-05,8.5725,0,0.5715,-1.376364E-05,8.5725,0
0.5724,-7.385367E-06,8.586,0,0.5724,-3.994812E-05,8.586,0
0.5733,-3.860533E-05,8.5995,0,0.5733,1.242084E-05,8.5995,0
0.5742,-3.625543E-05,8.613,0,0.5742,-1.577783E-05,8.613,0
0.5751,-3.021286E-06,8.6265,0,0.5751,-7.351797E-05,8.6265,0
0.576,-3.256275E-05,8.64,0,0.576,-3.356985E-06,8.64,0
0.5769,-1.242084E-05,8.6535,0,0.5769,-2.14847E-05,8.6535,0
0.5778,-7.721065E-06,8.667,0,0.5778,-7.620356E-05,8.667,0
0.5787,1.544213E-05,8.6805,0,0.5787,-2.987716E-05,8.6805,0
0.5796,7.049668E-06,8.694,0,0.5796,1.879912E-05,8.694,0
0.5805,-1.678492E-06,8.7075,0,0.5805,-8.728161E-06,8.7075,0
0.5814,-7.721065E-06,8.721,0,0.5814,-1.510643E-05,8.721,0
0.5823,2.349889E-06,8.7345,0,0.5823,-2.316319E-05,8.7345,0
0.5832,1.342794E-06,8.748,0,0.5832,-6.713969E-07,8.748,0
0.5841,2.584878E-05,8.7615,0,0.5841,-6.713969E-07,8.7615,0
0.585,-2.752728E-05,8.775,0,0.585,-4.968337E-05,8.775,0
0.5859,-2.28275E-05,8.7885,0,0.5859,-7.351797E-05,8.7885,0
0.5868,3.356985E-06,8.802,0,0.5868,-5.706874E-06,8.802,0
0.5877,-1.712062E-05,8.8155,0,0.5877,-5.706874E-06,8.8155,0
0.5886,-1.477073E-05,8.829,0,0.5886,-6.61326E-05,8.829,0
0.5895,0,8.8425,0,0.5895,-8.728161E-06,8.8425,0
0.5904,-1.007095E-06,8.856,0,0.5904,2.18204E-05,8.856,0
0.5913,1.242084E-05,8.8695,0,0.5913,-2.28275E-05,8.8695,0
0.5922,2.987716E-05,8.883,0,0.5922,-2.316319E-05,8.883,0
0.5931,-8.392462E-06,8.8965,0,0.5931,4.699779E-06,8.8965,0
0.594,-1.947051E-05,8.91,0,0.594,-1.678492E-06,8.91,0
0.5949,-1.376364E-05,8.9235,0,0.5949,-8.056763E-06,8.9235,0
0.5958,9.735256E-06,8.937,0,0.5958,-3.591974E-05,8.937,0
0.5967,1.242084E-05,8.9505,0,0.5967,-4.36408E-06,8.9505,0
0.5976,-2.987716E-05,8.964,0,0.5976,-7.721065E-06,8.964,0
0.5985,-8.392462E-06,8.9775,0,0.5985,-3.659113E-05,8.9775,0
0.5994,-5.706874E-06,8.991,0,0.5994,-4.632639E-05,8.991,0
0.6003,-1.342794E-05,9.0045,0,0.6003,7.049668E-06,9.0045,0
0.6012,-1.342794E-06,9.018,0,0.6012,-2.786297E-05,9.018,0
0.6021,-2.316319E-05,9.0315,0,0.6021,-8.258183E-05,9.0315,0
0.603,-5.706874E-06,9.045,0,0.603,6.713969E-07,9.045,0
0.6039,2.383459E-05,9.0585,0,0.6039,3.189136E-05,9.0585,0
0.6048,-2.18204E-05,9.072001,0,0.6048,-4.129091E-05,9.072001,0
0.6057,-1.611353E-05,9.0855,0,0.6057,-2.752728E-05,9.0855,0
0.6066,-1.409934E-05,9.099,0,0.6066,4.699779E-06,9.099,0
0.6075,-4.095522E-05,9.1125,0,0.6075,-2.14847E-05,9.1125,0
0.6084,-4.867628E-05,9.126,0,0.6084,-5.001907E-05,9.126,0
0.6093,-1.242084E-05,9.1395,0,0.6093,-7.620356E-05,9.1395,0
0.6102,3.491264E-05,9.153,0,0.6102,-3.692683E-06,9.153,0
0.6111,4.39765E-05,9.1665,0,0.6111,3.726253E-05,9.1665,0
0.612,4.39765E-05,9.18,0,0.612,-2.047761E-05,9.18,0
0.6129,3.457694E-05,9.1935,0,0.6129,-4.46479E-05,9.1935,0
0.6138,1.980621E-05,9.207,0,0.6138,2.349889E-05,9.207,0
0.6147,1.678492E-06,9.2205,0,0.6147,-3.021286E-06,9.2205,0
0.6156,-1.040665E-05,9.234,0,0.6156,-6.076142E-05,9.234,0
0.6165,-1.644922E-05,9.2475,0,0.6165,-2.517739E-05,9.2475,0
0.6174,-1.913481E-05,9.261,0,0.6174,-1.443504E-05,9.261,0
0.6183,1.678492E-06,9.2745,0,0.6183,-8.258183E-05,9.2745,0
0.6192,5.371176E-06,9.288,0,0.6192,-8.72816E-05,9.288,0
0.6201,-2.316319E-05,9.3015,0,0.6201,-9.063859E-06,9.3015,0
0.621,-1.577783E-05,9.315,0,0.621,3.189136E-05,9.315,0
0.6219,1.342794E-05,9.3285,0,0.6219,3.591974E-05,9.3285,0
0.6228,-2.517739E-05,9.342,0,0.6228,-5.673304E-05,9.342,0
0.6237,-3.524834E-05,9.3555,0,0.6237,-4.36408E-06,9.3555,0
0.6246,-3.659113E-05,9.369,0,0.6246,1.309224E-05,9.369,0
0.6255,-1.644922E-05,9.3825,0,0.6255,-2.853437E-05,9.3825,0
0.6264,-7.721065E-06,9.396,0,0.6264,-3.189136E-05,9.396,0
0.6273,-4.766919E-05,9.4095,0,0.6273,3.390555E-05,9.4095,0
0.6282,-5.606165E-05,9.423,0,0.6282,1.174945E-05,9.423,0
0.6291,-1.812772E-05,9.4365,0,0.6291,-4.599069E-05,9.4365,0
0.63,-1.040665E-05,9.45,0,0.63,1.376364E-05,9.45,0
0.6309,2.920577E-05,9.4635,0,0.6309,2.517739E-05,9.4635,0
0.6318,2.584878E-05,9.477,0,0.6318,-4.129091E-05,9.477,0
0.6327,3.054856E-05,9.4905,0,0.6327,-2.014191E-06,9.4905,0
0.6336,3.692683E-06,9.504,0,0.6336,2.18204E-05,9.504,0
0.6345,-2.987716E-05,9.5175,0,0.6345,-2.28275E-05,9.5175,0
0.6354,-1.712062E-05,9.531,0,0.6354,-3.390555E-05,9.531,0
0.6363,-2.685588E-06,9.5445,0,0.6363,-5.706874E-05,9.5445,0
0.6372,-2.18204E-05,9.558,0,0.6372,-2.484169E-05,9.558,0
0.6381,-9.735256E-06,9.5715,0,0.6381,-3.356985E-05,9.5715,0
0.639,7.049668E-06,9.585,0,0.639,-6.848249E-05,9.585,0
0.6399,-1.443504E-05,9.5985,0,0.6399,-6.243992E-05,9.5985,0
0.6408,-1.812772E-05,9.612,0,0.6408,1.141375E-05,9.612,0
0.6417,1.846342E-05,9.6255,0,0.6417,-1.712062E-05,9.6255,0
0.6426,1.242084E-05,9.639,0,0.6426,-6.243992E-05,9.639,0
0.6435,-1.510643E-05,9.6525,0,0.6435,-1.007095E-05,9.6525,0
0.6444,-2.652018E-05,9.666,0,0.6444,1.577783E-05,9.666,0
0.6453,-1.678492E-06,9.6795,0,0.6453,-2.047761E-05,9.6795,0
0.6462,2.719158E-05,9.693,0,0.6462,1.208515E-05,9.693,0
0.6471,-1.409934E-05,9.7065,0,0.6471,3.826963E-05,9.7065,0
0.648,-6.713969E-06,9.72,0,0.648,9.063859E-06,9.72,0
0.6489,-2.18204E-05,9.7335,0,0.6489,-8.392462E-06,9.7335,0
0.6498,-8.392462E-06,9.747,0,0.6498,-3.927672E-05,9.747,0
0.6507,-1.846342E-05,9.7605,0,0.6507,-1.242084E-05,9.7605,0
0.6516,-5.639734E-05,9.774,0,0.6516,2.853437E-05,9.774,0
0.6525,-2.316319E-05,9.7875,0,0.6525,-2.24918E-05,9.7875,0
0.6534,1.913481E-05,9.801,0,0.6534,-4.800488E-05,9.801,0
0.6543,-9.063859E-06,9.8145,0,0.6543,-6.713969E-07,9.8145,0
0.6552,-4.800488E-05,9.828,0,0.6552,-4.733349E-05,9.828,0
0.6561,2.24918E-05,9.8415,0,0.6561,-8.526741E-05,9.8415,0
0.657,2.987716E-05,9.855,0,0.657,3.591974E-05,9.855,0
0.6579,1.376364E-05,9.8685,0,0.6579,1.745632E-05,9.8685,0
0.6588,-3.356985E-06,9.882,0,0.6588,-0.0001050736,9.882,0
0.6597,-2.316319E-05,9.8955,0,0.6597,-6.042573E-05,9.8955,0
0.6606,-3.256275E-05,9.909,0,0.6606,-1.107805E-05,9.909,0
0.6615,-1.644922E-05,9.9225,0,0.6615,-1.678492E-05,9.9225,0
0.6624,3.692683E-06,9.936,0,0.6624,-3.625543E-05,9.936,0
0.6633,-3.692683E-06,9.9495,0,0.6633,-5.740444E-05,9.9495,0
0.6642,2.349889E-06,9.963,0,0.6642,-4.33051E-05,9.963,0
0.6651,-9.063859E-06,9.976501,0,0.6651,-2.719158E-05,9.976501,0
0.666,-1.510643E-05,9.99,0,0.666,-4.39765E-05,9.99,0
0.6669,-1.712062E-05,10.0035,0,0.6669,-4.733349E-05,10.0035,0
0.6678,-1.376364E-05,10.017,0,0.6678,8.728161E-06,10.017,0
0.6687,-4.028382E-06,10.0305,0,0.6687,6.042573E-06,10.0305,0
0.6696,4.36408E-06,10.044,0,0.6696,-3.860533E-05,10.044,0
0.6705,9.735256E-06,10.0575,0,0.6705,1.611353E-05,10.0575,0
0.6714,4.800488E-05,10.071,0,0.6714,5.270466E-05,10.071,0
0.6723,5.874724E-05,10.0845,0,0.6723,2.349889E-06,10.0845,0
0.6732,5.069047E-05,10.098,0,0.6732,2.383459E-05,10.098,0
0.6741,3.659113E-05,10.1115,0,0.6741,4.901198E-05,10.1115,0
0.675,-6.042573E-06,10.125,0,0.675,2.383459E-05,10.125,0
0.6759,4.699779E-06,10.1385,0,0.6759,2.28275E-05,10.1385,0
0.6768,3.256275E-05,10.152,0,0.6768,-7.049668E-06,10.152,0
0.6777,-5.706874E-06,10.1655,0,0.6777,4.061952E-05,10.1655,0
0.6786,-2.014191E-06,10.179,0,0.6786,3.793393E-05,10.179,0
0.6795,2.1149E-05,10.1925,0,0.6795,-3.591974E-05,10.1925,0
0.6804,-1.846342E-05,10.206,0,0.6804,-9.030289E-05,10.206,0
0.6813,-3.256275E-05,10.2195,0,0.6813,-5.404745E-05,10.2195,0
0.6822,-2.786297E-05,10.233,0,0.6822,-6.881819E-05,10.233,0
0.6831,-1.947051E-05,10.2465,0,0.6831,-9.097429E-05,10.2465,0
0.684,-3.591974E-05,10.26,0,0.684,2.887007E-05,10.26,0
0.6849,-5.471885E-05,10.2735,0,0.6849,1.007095E-06,10.2735,0
0.6858,-6.478981E-05,10.287,0,0.6858,-8.224613E-05,10.287,0
0.6867,-3.994812E-05,10.3005,0,0.6867,-2.853437E-05,10.3005,0
0.6876,-2.383459E-05,10.314,0,0.6876,-4.028382E-06,10.314,0
0.6885,-1.309224E-05,10.3275,0,0.6885,-3.356985E-05,10.3275,0
0.6894,-1.107805E-05,10.341,0,0.6894,-3.256275E-05,10.341,0
0.6903,-3.524834E-05,10.3545,0,0.6903,-4.666209E-05,10.3545,0
0.6912,-7.385367E-06,10.368,0,0.6912,-3.256275E-05,10.368,0
0.6921,2.349889E-05,10.3815,0,0.6921,-3.457694E-05,10.3815,0
0.693,2.987716E-05,10.395,0,0.693,-6.54612E-05,10.395,0
0.6939,3.121996E-05,10.4085,0,0.6939,-7.150377E-05,10.4085,0
0.6948,-3.927672E-05,10.422,0,0.6948,-2.047761E-05,10.422,0
0.6957,-4.733349E-05,10.4355,0,0.6957,-1.510643E-05,10.4355,0
0.6966,1.309224E-05,10.449,0,0.6966,-6.78111E-05,10.449,0
0.6975,-1.947051E-05,10.4625,0,0.6975,-1.040665E-05,10.4625,0
0.6984,-4.901198E-05,10.476,0,0.6984,1.779202E-05,10.476,0
0.6993,-2.786297E-05,10.4895,0,0.6993,-1.611353E-05,10.4895,0
0.7002,4.39765E-05,10.503,0,0.7002,-8.392462E-06,10.503,0
0.7011,3.189136E-05,10.5165,0,0.7011,3.323415E-05,10.5165,0
0.702,-1.309224E-05,10.53,0,0.702,1.309224E-05,10.53,0
0.7029,6.042573E-06,10.5435,0,0.7029,-6.378271E-06,10.5435,0
0.7038,1.443504E-05,10.557,0,0.7038,-3.692683E-05,10.557,0
0.7047,-3.356985E-07,10.5705,0,0.7047,-1.409934E-05,10.5705,0
0.7056,-5.169757E-05,10.584,0,0.7056,1.174945E-05,10.584,0
0.7065,-5.069047E-05,10.5975,0,0.7065,-2.349889E-05,10.5975,0
0.7074,-1.510643E-05,10.611,0,0.7074,-8.392462E-06,10.611,0
0.7083,-2.786297E-05,10.6245,0,0.7083,1.577783E-05,10.6245,0
0.7092,-2.18204E-05,10.638,0,0.7092,-9.063859E-06,10.638,0
0.7101,-1.443504E-05,10.6515,0,0.7101,-5.270466E-05,10.6515,0
0.711,-8.392462E-06,10.665,0,0.711,-1.342794E-06,10.665,0
0.7119,1.577783E-05,10.6785,0,0.7119,3.356985E-07,10.6785,0
0.7128,7.721065E-06,10.692,0,0.7128,-6.344701E-05,10.692,0
0.7137,3.356985E-07,10.7055,0,0.7137,-6.61326E-05,10.7055,0
0.7146,7.721065E-06,10.719,0,0.7146,5.035477E-06,10.719,0
0.7155,-9.399558E-06,10.7325,0,0.7155,-1.007095E-05,10.7325,0
0.7164,-4.36408E-06,10.746,0,0.7164,-2.18204E-05,10.746,0
0.7173,8.728161E-06,10.7595,0,0.7173,-5.236896E-05,10.7595,0
0.7182,-5.035477E-06,10.773,0,0.7182,-2.517739E-05,10.773,0
0.7191,-5.941863E-05,10.7865,0,0.7191,6.713969E-07,10.7865,0
0.72,-4.699779E-05,10.8,0,0.72,-5.035477E-05,10.8,0
0.7209,-3.121996E-05,10.8135,0,0.7209,-7.586786E-05,10.8135,0
0.7218,-3.860533E-05,10.827,0,0.7218,1.678492E-06,10.827,0
0.7227,-1.947051E-05,10.8405,0,0.7227,-2.685588E-06,10.8405,0
0.7236,1.376364E-05,10.854,0,0.7236,-4.33051E-05,10.854,0
0.7245,1.577783E-05,10.8675,0,0.7245,1.007095E-05,10.8675,0
0.7254,3.692683E-06,10.881,0,0.7254,1.443504E-05,10.881,0
0.7263,9.735256E-06,10.8945,0,0.7263,-1.510643E-05,10.8945,0
0.7272,1.242084E-05,10.908,0,0.7272,1.107805E-05,10.908,0
0.7281,-1.644922E-05,10.9215,0,0.7281,6.076142E-05,10.9215,0
0.729,-1.007095E-05,10.935,0,0.729,6.64683E-05,10.935,0
0.7299,8.392462E-06,10.9485,0,0.7299,4.766919E-05,10.9485,0
0.7308,1.678492E-06,10.962,0,0.7308,-1.208515E-05,10.962,0
0.7317,2.014191E-05,10.9755,0,0.7317,1.040665E-05,10.9755,0
0.7326,-6.042573E-06,10.989,0,0.7326,-2.18204E-05,10.989,0
0.7335,-3.659113E-05,11.0025,0,0.7335,-3.424125E-05,11.0025,0
0.7344,-2.014191E-06,11.016,0,0.7344,-5.169757E-05,11.016,0
0.7353,-2.517739E-05,11.0295,0,0.7353,1.242084E-05,11.0295,0
0.7362,-1.577783E-05,11.043,0,0.7362,-2.014191E-05,11.043,0
0.7371,5.337606E-05,11.0565,0,0.7371,-8.493171E-05,11.0565,0
0.738,3.054856E-05,11.07,0,0.738,-4.599069E-05,11.07,0
0.7389,5.539025E-05,11.0835,0,0.7389,-3.591974E-05,11.0835,0
0.7398,2.786297E-05,11.097,0,0.7398,-8.761731E-05,11.097,0
0.7407,5.035477E-06,11.1105,0,0.7407,-4.766919E-05,11.1105,0
0.7416,-1.107805E-05,11.124,0,0.7416,-2.1149E-05,11.124,0
0.7425,-1.107805E-05,11.1375,0,0.7425,-4.061952E-05,11.1375,0
0.7434,-2.349889E-06,11.151,0,0.7434,-2.1149E-05,11.151,0
0.7443,-6.713969E-07,11.1645,0,0.7443,-4.53193E-05,11.1645,0
0.7452,-1.275654E-05,11.178,0,0.7452,3.054856E-05,11.178,0
0.7461,9.063859E-06,11.1915,0,0.7461,8.761731E-05,11.1915,0
0.747,1.779202E-05,11.205,0,0.747,6.814679E-05,11.205,0
0.7479,-4.699779E-06,11.2185,0,0.7479,-2.920577E-05,11.2185,0
0.7488,7.049668E-06,11.232,0,0.7488,-1.275654E-05,11.232,0
0.7497,3.558404E-05,11.2455,0,0.7497,-1.577783E-05,11.2455,0
0.7506,1.174945E-05,11.259,0,0.7506,-5.740444E-05,11.259,0
0.7515,-1.678492E-05,11.2725,0,0.7515,-6.378271E-06,11.2725,0
0.7524,-3.356985E-06,11.286,0,0.7524,7.049668E-06,11.286,0
0.7533,-1.007095E-06,11.2995,0,0.7533,-3.323415E-05,11.2995,0
0.7542,-1.242084E-05,11.313,0,0.7542,-2.316319E-05,11.313,0
0.7551,-2.752728E-05,11.3265,0,0.7551,1.309224E-05,11.3265,0
0.756,-2.618448E-05,11.34,0,0.756,-2.081331E-05,11.34,0
0.7569,-2.517739E-05,11.3535,0,0.7569,-2.887007E-05,11.3535,0
0.7578,-2.450599E-05,11.367,0,0.7578,-6.478981E-05,11.367,0
0.7587,-1.644922E-05,11.3805,0,0.7587,-3.759823E-05,11.3805,0
0.7596,-7.217517E-05,11.394,0,0.7596,-1.846342E-05,11.394,0
0.7605,-6.74754E-05,11.4075,0,0.7605,-6.478981E-05,11.4075,0
0.7614,-1.208515E-05,11.421,0,0.7614,-7.452507E-05,11.421,0
0.7623,-3.054856E-05,11.4345,0,0.7623,-5.706874E-06,11.4345,0
0.7632,-4.263371E-05,11.448,0,0.7632,-3.390555E-05,11.448,0
0.7641,-1.980621E-05,11.4615,0,0.7641,-8.560311E-05,11.4615,0
0.765,-2.21561E-05,11.475,0,0.765,-2.450599E-05,11.475,0
0.7659,5.035477E-06,11.4885,0,0.7659,-2.18204E-05,11.4885,0
0.7668,2.316319E-05,11.502,0,0.7668,-3.591974E-05,11.502,0
0.7677,1.174945E-05,11.5155,0,0.7677,-3.021286E-06,11.5155,0
0.7686,7.721065E-06,11.529,0,0.7686,-2.24918E-05,11.529,0
0.7695,2.920577E-05,11.5425,0,0.7695,-2.819867E-05,11.5425,0
0.7704,1.812772E-05,11.556,0,0.7704,-1.342794E-05,11.556,0
0.7713,-1.242084E-05,11.5695,0,0.7713,-2.517739E-05,11.5695,0
0.7722,-3.121996E-05,11.583,0,0.7722,-1.040665E-05,11.583,0
0.7731,-6.848249E-05,11.5965,0,0.7731,7.385367E-06,11.5965,0
0.774,-5.807584E-05,11.61,0,0.774,-1.846342E-05,11.61,0
0.7749,-6.277562E-05,11.6235,0,0.7749,-6.277562E-05,11.6235,0
0.7758,-4.46479E-05,11.637,0,0.7758,-5.706874E-06,11.637,0
0.7767,-1.477073E-05,11.6505,0,0.7767,-3.021286E-06,11.6505,0
0.7776,1.275654E-05,11.664,0,0.7776,-6.948959E-05,11.664,0
0.7785,3.424125E-05,11.6775,0,0.7785,-1.745632E-05,11.6775,0
0.7794,6.042573E-06,11.691,0,0.7794,1.007095E-06,11.691,0
0.7803,5.035477E-06,11.7045,0,0.7803,-5.539025E-05,11.7045,0
0.7812,1.443504E-05,11.718,0,0.7812,-6.74754E-05,11.718,0
0.7821,-6.378271E-06,11.7315,0,0.7821,-1.443504E-05,11.7315,0
0.783,-1.107805E-05,11.745,0,0.783,-2.24918E-05,11.745,0
0.7839,-1.174945E-05,11.7585,0,0.7839,-1.443504E-05,11.7585,0
0.7848,1.678492E-06,11.772,0,0.7848,-1.644922E-05,11.772,0
0.7857,-3.021286E-06,11.7855,0,0.7857,3.457694E-05,11.7855,0
0.7866,-7.049668E-06,11.799,0,0.7866,4.666209E-05,11.799,0
0.7875,2.853437E-05,11.8125,0,0.7875,-6.713969E-06,11.8125,0
0.7884,6.378271E-06,11.826,0,0.7884,-1.376364E-05,11.826,0
0.7893,1.275654E-05,11.8395,0,0.7893,2.383459E-05,11.8395,0
0.7902,3.994812E-05,11.853,0,0.7902,-1.712062E-05,11.853,0
0.7911,6.344701E-05,11.8665,0,0.7911,-7.150377E-05,11.8665,0
0.792,2.24918E-05,11.88,0,0.792,-6.042573E-06,11.88,0
0.7929,-1.846342E-05,11.8935,0,0.7929,4.39765E-05,11.8935,0
0.7938,-2.920577E-05,11.907,0,0.7938,2.484169E-05,11.907,0
0.7947,1.107805E-05,11.9205,0,0.7947,1.712062E-05,11.9205,0
0.7956,-5.706874E-06,11.934,0,0.7956,2.014191E-06,11.934,0
0.7965,-6.713969E-06,11.9475,0,0.7965,-4.53193E-05,11.9475,0
0.7974,-3.457694E-05,11.961,0,0.7974,-3.826963E-05,11.961,0
0.7983,-2.719158E-05,11.9745,0,0.7983,-6.54612E-05,11.9745,0
0.7992,-3.927672E-05,11.988,0,0.7992,-2.14847E-05,11.988,0
0.8001,-8.69459E-05,12.0015,0,0.8001,1.510643E-05,12.0015,0
0.801,-5.706874E-05,12.015,0,0.801,-1.242084E-05,12.015,0
0.8019,-5.069047E-05,12.0285,0,0.8019,-5.136187E-05,12.0285,0
0.8028,-4.39765E-05,12.042,0,0.8028,2.349889E-06,12.042,0
0.8037,-3.692683E-06,12.0555,0,0.8037,1.141375E-05,12.0555,0
0.8046,6.009003E-05,12.069,0,0.8046,-2.819867E-05,12.069,0
0.8055,5.874724E-05,12.0825,0,0.8055,2.652018E-05,12.0825,0
0.8064,4.129091E-05,12.096,0,0.8064,-1.510643E-05,12.096,0
0.8073,2.21561E-05,12.1095,0,0.8073,-6.78111E-05,12.1095,0
0.8082,9.063859E-06,12.123,0,0.8082,-4.800488E-05,12.123,0
0.8091,6.378271E-06,12.1365,0,0.8091,2.383459E-05,12.1365,0
0.81,-1.040665E-05,12.15,0,0.81,3.994812E-05,12.15,0
0.8109,1.342794E-06,12.1635,0,0.8109,2.349889E-05,12.1635,0
0.8118,6.713969E-07,12.177,0,0.8118,-9.063859E-06,12.177,0
0.8127,-5.706874E-06,12.1905,0,0.8127,2.887007E-05,12.1905,0
0.8136,-1.007095E-05,12.204,0,0.8136,3.189136E-05,12.204,0
0.8145,-2.450599E-05,12.2175,0,0.8145,-1.577783E-05,12.2175,0
0.8154,1.107805E-05,12.231,0,0.8154,-3.524834E-05,12.231,0
0.8163,1.208515E-05,12.2445,0,0.8163,-1.644922E-05,12.2445,0
0.8172,-3.021286E-06,12.258,0,0.8172,-4.53193E-05,12.258,0
0.8181,-4.36408E-06,12.2715,0,0.8181,-0.0001040665,12.2715,0
0.819,-1.275654E-05,12.285,0,0.819,-3.222705E-05,12.285,0
0.8199,7.385367E-06,12.2985,0,0.8199,-7.049668E-06,12.2985,0
0.8208,-2.719158E-05,12.312,0,0.8208,-6.277562E-05,12.312,0
0.8217,-7.049668E-06,12.3255,0,0.8217,-4.263371E-05,12.3255,0
0.8226,6.713969E-06,12.339,0,0.8226,2.24918E-05,12.339,0
0.8235,-2.383459E-05,12.3525,0,0.8235,-2.349889E-06,12.3525,0
0.8244,-1.376364E-05,12.366,0,0.8244,0,12.366,0
0.8253,-1.007095E-06,12.3795,0,0.8253,-2.618448E-05,12.3795,0
0.8262,-8.056763E-06,12.393,0,0.8262,-6.378271E-06,12.393,0
0.8271,1.678492E-06,12.4065,0,0.8271,0,12.4065,0
0.828,5.035477E-06,12.42,0,0.828,-4.766919E-05,12.42,0
0.8289,7.721065E-06,12.4335,0,0.8289,-6.948959E-05,12.4335,0
0.8298,1.577783E-05,12.447,0,0.8298,-1.007095E-05,12.447,0
0.8307,2.1149E-05,12.4605,0,0.8307,-1.409934E-05,12.4605,0
0.8316,3.390555E-05,12.474,0,0.8316,-6.076142E-05,12.474,0
0.8325,-5.035477E-06,12.4875,0,0.8325,-5.706874E-06,12.4875,0
0.8334,-3.524834E-05,12.501,0,0.8334,-9.735256E-06,12.501,0
0.8343,-4.49836E-05,12.5145,0,0.8343,-4.934768E-05,12.5145,0
0.8352,-3.356985E-07,12.528,0,0.8352,-6.378271E-06,12.528,0
0.8361,-1.913481E-05,12.5415,0,0.8361,4.46479E-05,12.5415,0
0.837,-1.309224E-05,12.555,0,0.837,2.21561E-05,12.555,0
0.8379,-1.342794E-06,12.5685,0,0.8379,-2.316319E-05,12.5685,0
0.8388,-1.007095E-06,12.582,0,0.8388,-5.471885E-05,12.582,0
0.8397,1.040665E-05,12.5955,0,0.8397,-3.121996E-05,12.5955,0
0.8406,-4.196231E-05,12.609,0,0.8406,-8.728161E-06,12.609,0
0.8415,-5.706874E-05,12.6225,0,0.8415,-3.457694E-05,12.6225,0
0.8424,-4.33051E-05,12.636,0,0.8424,-6.6804E-05,12.636,0
0.8433,-3.289845E-05,12.6495,0,0.8433,1.007095E-06,12.6495,0
0.8442,-3.256275E-05,12.663,0,0.8442,-1.846342E-05,12.663,0
0.8451,-4.699779E-06,12.6765,0,0.8451,-0.0001060807,12.6765,0
0.846,7.721065E-06,12.69,0,0.846,-2.18204E-05,12.69,0
0.8469,2.517739E-05,12.7035,0,0.8469,-7.049668E-06,12.7035,0
0.8478,9.735256E-06,12.717,0,0.8478,-7.116808E-05,12.717,0
0.8487,-2.081331E-05,12.7305,0,0.8487,-2.719158E-05,12.7305,0
0.8496,-4.901198E-05,12.744,0,0.8496,-7.049668E-06,12.744,0
0.8505,-5.539025E-05,12.7575,0,0.8505,-4.867628E-05,12.7575,0
0.8514,-4.095522E-05,12.771,0,0.8514,-4.800488E-05,12.771,0
0.8523,-2.685588E-05,12.7845,0,0.8523,-8.761731E-05,12.7845,0
0.8532,-3.692683E-06,12.798,0,0.8532,-3.994812E-05,12.798,0
0.8541,-1.309224E-05,12.8115,0,0.8541,-1.174945E-05,12.8115,0
0.855,-4.36408E-06,12.825,0,0.855,-3.054856E-05,12.825,0
0.8559,1.812772E-05,12.8385,0,0.8559,-2.517739E-05,12.8385,0
0.8568,2.047761E-05,12.852,0,0.8568,7.049668E-05,12.852,0
0.8577,2.316319E-05,12.8655,0,0.8577,3.659113E-05,12.8655,0
0.8586,3.256275E-05,12.879,0,0.8586,-4.095522E-05,12.879,0
0.8595001,2.349889E-05,12.8925,0,0.8595001,1.242084E-05,12.8925,0
0.8604,6.74754E-05,12.906,0,0.8604,3.591974E-05,12.906,0
0.8613,3.457694E-05,12.9195,0,0.8613,7.721065E-06,12.9195,0
0.8622,-8.392462E-06,12.933,0,0.8622,5.035477E-06,12.933,0
0.8631,1.577783E-05,12.9465,0,0.8631,5.941863E-05,12.9465,0
0.864,3.692683E-06,12.96,0,0.864,1.644922E-05,12.96,0
0.8649,-1.275654E-05,12.9735,0,0.8649,1.309224E-05,12.9735,0
0.8658,-1.510643E-05,12.987,0,0.8658,3.692683E-06,12.987,0
0.8667,-1.107805E-05,13.0005,0,0.8667,-4.36408E-06,13.0005,0
0.8676,-3.491264E-05,13.014,0,0.8676,2.349889E-06,13.014,0
0.8685,-3.289845E-05,13.0275,0,0.8685,-6.143282E-05,13.0275,0
0.8694,1.174945E-05,13.041,0,0.8694,-9.063859E-05,13.041,0
0.8703,-2.1149E-05,13.0545,0,0.8703,-4.229801E-05,13.0545,0
0.8712,-5.035477E-06,13.068,0,0.8712,-9.365987E-05,13.068,0
0.8721,1.644922E-05,13.0815,0,0.8721,-8.426032E-05,13.0815,0
0.873,7.721065E-06,13.095,0,0.873,6.948959E-05,13.095,0
0.8739,1.376364E-05,13.1085,0,0.8739,2.450599E-05,13.1085,0
0.8748,-1.544213E-05,13.122,0,0.8748,-4.29694E-05,13.122,0
0.8757,9.063859E-06,13.1355,0,0.8757,-1.007095E-06,13.1355,0
0.8766,-2.21561E-05,13.149,0,0.8766,-6.378271E-06,13.149,0
0.8775,-6.042573E-06,13.1625,0,0.8775,-6.143282E-05,13.1625,0
0.8784,-9.735256E-06,13.176,0,0.8784,-9.030289E-05,13.176,0
0.8793,-6.378271E-06,13.1895,0,0.8793,-9.298848E-05,13.1895,0
0.8802,-3.356985E-06,13.203,0,0.8802,-9.164568E-05,13.203,0
0.8811,-4.800488E-05,13.2165,0,0.8811,-8.661021E-05,13.2165,0
0.882,-5.270466E-05,13.23,0,0.882,-1.812772E-05,13.23,0
0.8829,-4.53193E-05,13.2435,0,0.8829,9.030289E-05,13.2435,0
0.8838,-5.740444E-05,13.257,0,0.8838,8.123904E-05,13.257,0
0.8847,-6.210422E-05,13.2705,0,0.8847,-4.699779E-06,13.2705,0
0.8856,-3.189136E-05,13.284,0,0.8856,-3.860533E-05,13.284,0
0.8865,-1.376364E-05,13.2975,0,0.8865,3.591974E-05,13.2975,0
0.8874,-2.014191E-05,13.311,0,0.8874,3.961242E-05,13.311,0
0.8883,7.721065E-06,13.3245,0,0.8883,-3.424125E-05,13.3245,0
0.8892,3.121996E-05,13.338,0,0.8892,-2.18204E-05,13.338,0
0.8901,1.745632E-05,13.3515,0,0.8901,1.980621E-05,13.3515,0
0.891,2.786297E-05,13.365,0,0.891,1.712062E-05,13.365,0
0.8919,3.189136E-05,13.3785,0,0.8919,-2.349889E-05,13.3785,0
0.8928,2.383459E-05,13.392,0,0.8928,-3.860533E-05,13.392,0
0.8937,-1.376364E-05,13.4055,0,0.8937,-2.484169E-05,13.4055,0
0.8946,-1.879912E-05,13.419,0,0.8946,-2.28275E-05,13.419,0
0.8955,1.678492E-05,13.4325,0,0.8955,-6.277562E-05,13.4325,0
0.8964,1.040665E-05,13.446,0,0.8964,-4.46479E-05,13.446,0
0.8973,-3.021286E-06,13.4595,0,0.8973,2.584878E-05,13.4595,0
0.8982,0,13.473,0,0.8982,-3.659113E-05,13.473,0
0.8991,-2.349889E-06,13.4865,0,0.8991,-0.0001037308,13.4865,0
0.9,-4.36408E-05,13.5,0,0.9,-5.001907E-05,13.5,0
0.9009,-4.699779E-06,13.5135,0,0.9009,-4.229801E-05,13.5135,0
0.9018,1.208515E-05,13.527,0,0.9018,-9.634547E-05,13.527,0
0.9027,1.174945E-05,13.5405,0,0.9027,-6.948959E-05,13.5405,0
0.9036,4.699779E-06,13.554,0,0.9036,-1.879912E-05,13.554,0
0.9045,1.443504E-05,13.5675,0,0.9045,-4.53193E-05,13.5675,0
0.9054,-1.275654E-05,13.581,0,0.9054,-5.001907E-05,13.581,0
0.9063,2.014191E-06,13.5945,0,0.9063,-4.229801E-05,13.5945,0
0.9072,7.721065E-06,13.608,0,0.9072,2.24918E-05,13.608,0
0.9081,-2.18204E-05,13.6215,0,0.9081,8.92958E-05,13.6215,0
0.909,1.007095E-06,13.635,0,0.909,3.793393E-05,13.635,0
0.9099,2.081331E-05,13.6485,0,0.9099,1.678492E-06,13.6485,0
0.9108,1.007095E-06,13.662,0,0.9108,7.922484E-05,13.662,0
0.9117,-8.392462E-06,13.6755,0,0.9117,9.231708E-05,13.6755,0
0.9126,3.692683E-06,13.689,0,0.9126,3.927672E-05,13.689,0
0.9135,-2.584878E-05,13.7025,0,0.9135,0.0001040665,13.7025,0
0.9144,-3.726253E-05,13.716,0,0.9144,6.881819E-05,13.716,0
0.9153,-3.256275E-05,13.7295,0,0.9153,-2.719158E-05,13.7295,0
0.9162,1.275654E-05,13.743,0,0.9162,-2.719158E-05,13.743,0
0.9171,-1.879912E-05,13.7565,0,0.9171,4.699779E-06,13.7565,0
0.918,-1.947051E-05,13.77,0,0.918,-1.007095E-06,13.77,0
0.9189,-2.014191E-06,13.7835,0,0.9189,-2.551309E-05,13.7835,0
0.9198,0,13.797,0,0.9198,-6.814679E-05,13.797,0
0.9207,-3.524834E-05,13.8105,0,0.9207,-6.478981E-05,13.8105,0
0.9216,-5.337606E-05,13.824,0,0.9216,-4.800488E-05,13.824,0
0.9225,-6.009003E-05,13.8375,0,0.9225,-6.378271E-05,13.8375,0
0.9234,-4.196231E-05,13.851,0,0.9234,-4.46479E-05,13.851,0
0.9243,-3.356985E-07,13.8645,0,0.9243,-1.107805E-05,13.8645,0
0.9252,6.042573E-06,13.878,0,0.9252,-3.054856E-05,13.878,0
0.9261,3.726253E-05,13.8915,0,0.9261,-7.016098E-05,13.8915,0
0.927,4.599069E-05,13.905,0,0.927,2.517739E-05,13.905,0
0.9279,1.309224E-05,13.9185,0,0.9279,3.356985E-07,13.9185,0
0.9288,-2.417029E-05,13.932,0,0.9288,-6.109713E-05,13.932,0
0.9297,-7.049668E-06,13.9455,0,0.9297,-4.39765E-05,13.9455,0
0.9306,-6.378271E-06,13.959,0,0.9306,-1.510643E-05,13.959,0
0.9315,-3.256275E-05,13.9725,0,0.9315,-3.659113E-05,13.9725,0
0.9324,7.049668E-06,13.986,0,0.9324,1.242084E-05,13.986,0
0.9333,2.21561E-05,13.9995,0,0.9333,-2.954147E-05,13.9995,0
0.9342,-1.712062E-05,14.013,0,0.9342,-3.894102E-05,14.013,0
0.9351,-2.551309E-05,14.0265,0,0.9351,-1.174945E-05,14.0265,0
0.936,-9.735256E-06,14.04,0,0.936,-5.841154E-05,14.04,0
0.9369,3.356985E-07,14.0535,0,0.9369,-4.867628E-05,14.0535,0
0.9378,-2.450599E-05,14.067,0,0.9378,7.721065E-06,14.067,0
0.9387,-5.673304E-05,14.0805,0,0.9387,-1.107805E-05,14.0805,0
0.9396001,3.692683E-06,14.094,0,0.9396001,-6.814679E-05,14.094,0
0.9405,1.644922E-05,14.1075,0,0.9405,-1.376364E-05,14.1075,0
0.9414001,2.349889E-06,14.121,0,0.9414001,-1.644922E-05,14.121,0
0.9423,6.713969E-06,14.1345,0,0.9423,-5.001907E-05,14.1345,0
0.9432001,-4.934768E-05,14.148,0,0.9432001,-1.376364E-05,14.148,0
0.9441,-5.136187E-05,14.1615,0,0.9441,6.378271E-06,14.1615,0
0.9450001,-1.644922E-05,14.175,0,0.9450001,-2.349889E-06,14.175,0
0.9459,-2.987716E-05,14.1885,0,0.9459,-1.141375E-05,14.1885,0
0.9468,-2.920577E-05,14.202,0,0.9468,-2.316319E-05,14.202,0
0.9477,-4.36408E-06,14.2155,0,0.9477,-1.712062E-05,14.2155,0
0.9486,-1.678492E-06,14.229,0,0.9486,-8.056763E-06,14.229,0
0.9495,-5.706874E-06,14.2425,0,0.9495,-4.196231E-05,14.2425,0
0.9504,2.719158E-05,14.256,0,0.9504,-6.61326E-05,14.256,0
0.9513,4.49836E-05,14.2695,0,0.9513,-2.349889E-05,14.2695,0
0.9522,1.712062E-05,14.283,0,0.9522,-4.39765E-05,14.283,0
0.9531,1.712062E-05,14.2965,0,0.9531,-7.486076E-05,14.2965,0
0.954,-1.040665E-05,14.31,0,0.954,1.342794E-05,14.31,0
0.9549,-1.443504E-05,14.3235,0,0.9549,2.316319E-05,14.3235,0
0.9558,-5.706874E-06,14.337,0,0.9558,-2.551309E-05,14.337,0
0.9567,-5.673304E-05,14.3505,0,0.9567,2.1149E-05,14.3505,0
0.9576,-6.009003E-05,14.364,0,0.9576,1.275654E-05,14.364,0
0.9585,-2.719158E-05,14.3775,0,0.9585,-2.417029E-05,14.3775,0
0.9594,-9.735256E-06,14.391,0,0.9594,-5.069047E-05,14.391,0
0.9603,-1.779202E-05,14.4045,0,0.9603,-4.800488E-05,14.4045,0
0.9612,3.256275E-05,14.418,0,0.9612,3.356985E-06,14.418,0
0.9621,7.351797E-05,14.4315,0,0.9621,1.913481E-05,14.4315,0
0.963,5.069047E-05,14.445,0,0.963,-5.035477E-06,14.445,0
0.9639,6.61326E-05,14.4585,0,0.9639,-8.728161E-06,14.4585,0
0.9648,4.901198E-05,14.472,0,0.9648,5.270466E-05,14.472,0
0.9657,-3.021286E-06,14.4855,0,0.9657,2.24918E-05,14.4855,0
0.9666,8.728161E-06,14.499,0,0.9666,-2.24918E-05,14.499,0
0.9675,2.1149E-05,14.5125,0,0.9675,4.699779E-06,14.5125,0
0.9684,-2.349889E-06,14.526,0,0.9684,1.947051E-05,14.526,0
0.9693,-4.33051E-05,14.5395,0,0.9693,-2.618448E-05,14.5395,0
0.9702,-3.591974E-05,14.553,0,0.9702,-5.270466E-05,14.553,0
0.9711,-4.867628E-05,14.5665,0,0.9711,-1.208515E-05,14.5665,0
0.972,-3.289845E-05,14.58,0,0.972,-3.793393E-05,14.58,0
0.9729,-1.242084E-05,14.5935,0,0.9729,-3.826963E-05,14.5935,0
0.9738,-3.356985E-06,14.607,0,0.9738,-8.123904E-05,14.607,0
0.9747,1.208515E-05,14.6205,0,0.9747,-2.887007E-05,14.6205,0
0.9756,-2.21561E-05,14.634,0,0.9756,1.947051E-05,14.634,0
0.9765,-1.980621E-05,14.6475,0,0.9765,-2.853437E-05,14.6475,0
0.9774,-2.316319E-05,14.661,0,0.9774,-5.404745E-05,14.661,0
0.9783,-3.390555E-05,14.6745,0,0.9783,1.443504E-05,14.6745,0
0.9792,-5.371176E-06,14.688,0,0.9792,-1.812772E-05,14.688,0
0.9801,-9.063859E-06,14.7015,0,0.9801,-7.486076E-05,14.7015,0
0.981,-3.692683E-06,14.715,0,0.981,-7.049668E-06,14.715,0
0.9819,1.107805E-05,14.7285,0,0.9819,4.699779E-06,14.7285,0
0.9828,-2.18204E-05,14.742,0,0.9828,-5.136187E-05,14.742,0
0.9837,-1.040665E-05,14.7555,0,0.9837,-6.411841E-05,14.7555,0
0.9846,-4.36408E-06,14.769,0,0.9846,1.577783E-05,14.769,0
0.9855,9.063859E-06,14.7825,0,0.9855,3.189136E-05,14.7825,0
0.9864,7.385367E-06,14.796,0,0.9864,6.713969E-07,14.796,0
0.9873,-2.28275E-05,14.8095,0,0.9873,-5.874724E-05,14.8095,0
0.9882,4.36408E-06,14.823,0,0.9882,-6.109713E-05,14.823,0
0.9891,-2.584878E-05,14.8365,0,0.9891,-5.404745E-05,14.8365,0
0.99,-4.46479E-05,14.85,0,0.99,-9.365987E-05,14.85,0
0.9909,-1.107805E-05,14.8635,0,0.9909,-0.0001178302,14.8635,0
0.9918,-1.812772E-05,14.877,0,0.9918,-2.450599E-05,14.877,0
0.9927,-1.644922E-05,14.8905,0,0.9927,-9.063859E-06,14.8905,0
0.9936,3.356985E-06,14.904,0,0.9936,-6.51255E-05,14.904,0
0.9945,-8.392462E-06,14.9175,0,0.9945,6.109713E-05,14.9175,0
0.9954,2.349889E-06,14.931,0,0.9954,0.0001305867,14.931,0
0.9963,4.733349E-05,14.9445,0,0.9963,3.726253E-05,14.9445,0
0.9972,6.076142E-05,14.958,0,0.9972,-3.021286E-06,14.958,0
0.9981,6.076142E-05,14.9715,0,0.9981,1.174945E-05,14.9715,0
0.999,3.189136E-05,14.985,0,0.999,-2.786297E-05,14.985,0
0.9999,8.392462E-06,14.9985,0,0.9999,-2.349889E-05,14.9985,0
1.0008,5.706874E-06,15.012,0,1.0008,-6.713969E-07,15.012,0
1.0017,-2.450599E-05,15.0255,0,1.0017,7.217517E-05,15.0255,0
1.0026,-3.323415E-05,15.039,0,1.0026,6.277562E-05,15.039,0
1.0035,-4.263371E-05,15.0525,0,1.0035,1.477073E-05,15.0525,0
1.0044,-6.344701E-05,15.066,0,1.0044,5.371176E-06,15.066,0
1.0053,-3.524834E-05,15.0795,0,1.0053,6.176852E-05,15.0795,0
1.0062,-8.392462E-06,15.093,0,1.0062,7.385367E-06,15.093,0
1.0071,-3.457694E-05,15.1065,0,1.0071,-8.69459E-05,15.1065,0
1.008,-9.735256E-06,15.12,0,1.008,-2.853437E-05,15.12,0
1.0089,1.040665E-05,15.1335,0,1.0089,-1.309224E-05,15.1335,0
1.0098,-1.376364E-05,15.147,0,1.0098,-5.941863E-05,15.147,0
1.0107,-2.786297E-05,15.1605,0,1.0107,-1.510643E-05,15.1605,0
1.0116,-3.021286E-05,15.174,0,1.0116,2.551309E-05,15.174,0
1.0125,-2.21561E-05,15.1875,0,1.0125,-2.752728E-05,15.1875,0
1.0134,-5.572595E-05,15.201,0,1.0134,-7.150377E-05,15.201,0
1.0143,-5.941863E-05,15.2145,0,1.0143,-0.0001077592,15.2145,0
1.0152,-4.867628E-05,15.228,0,1.0152,-7.150377E-05,15.228,0
1.0161,-6.78111E-05,15.2415,0,1.0161,-5.136187E-05,15.2415,0
1.017,-4.263371E-05,15.255,0,1.017,-0.0001033951,15.255,0
1.0179,2.349889E-06,15.2685,0,1.0179,-9.802396E-05,15.2685,0
1.0188,3.659113E-05,15.282,0,1.0188,1.040665E-05,15.282,0
1.0197,0.0001117876,15.2955,0,1.0197,-1.846342E-05,15.2955,0
1.0206,0.0001433432,15.309,0,1.0206,-7.049668E-05,15.309,0
1.0215,7.016098E-05,15.3225,0,1.0215,-1.644922E-05,15.3225,0
1.0224,2.24918E-05,15.336,0,1.0224,-3.021286E-06,15.336,0
1.0233,3.021286E-06,15.3495,0,1.0233,-3.860533E-05,15.3495,0
1.0242,-4.49836E-05,15.363,0,1.0242,5.035477E-06,15.363,0
1.0251,-7.620356E-05,15.3765,0,1.0251,5.001907E-05,15.3765,0
1.026,-3.289845E-05,15.39,0,1.026,4.49836E-05,15.39,0
1.0269,-1.443504E-05,15.4035,0,1.0269,-3.356985E-06,15.4035,0
1.0278,-2.21561E-05,15.417,0,1.0278,-5.874724E-05,15.417,0
1.0287,-3.021286E-06,15.4305,0,1.0287,-3.457694E-05,15.4305,0
1.0296,3.356985E-07,15.444,0,1.0296,-3.994812E-05,15.444,0
1.0305,7.049668E-06,15.4575,0,1.0305,-6.378271E-05,15.4575,0
1.0314,8.392462E-06,15.471,0,1.0314,-7.351797E-05,15.471,0
1.0323,-1.275654E-05,15.4845,0,1.0323,-4.599069E-05,15.4845,0
1.0332,-1.275654E-05,15.498,0,1.0332,-2.752728E-05,15.498,0
1.0341,-3.021286E-05,15.5115,0,1.0341,-2.853437E-05,15.5115,0
1.035,-2.584878E-05,15.525,0,1.035,6.814679E-05,15.525,0
1.0359,1.510643E-05,15.5385,0,1.0359,8.526741E-05,15.5385,0
1.0368,-1.409934E-05,15.552,0,1.0368,-8.728161E-06,15.552,0
1.0377,-6.042573E-05,15.5655,0,1.0377,1.107805E-05,15.5655,0
1.0386,-5.572595E-05,15.579,0,1.0386,1.409934E-05,15.579,0
1.0395,-5.673304E-05,15.5925,0,1.0395,-2.719158E-05,15.5925,0
1.0404,-5.169757E-05,15.606,0,1.0404,-4.53193E-05,15.606,0
1.0413,-3.356985E-07,15.6195,0,1.0413,-6.311131E-05,15.6195,0
1.0422,2.584878E-05,15.633,0,1.0422,-1.980621E-05,15.633,0
1.0431,-4.699779E-06,15.6465,0,1.0431,1.712062E-05,15.6465,0
1.044,-3.121996E-05,15.66,0,1.044,-1.510643E-05,15.66,0
1.0449,-1.913481E-05,15.6735,0,1.0449,1.242084E-05,15.6735,0
1.0458,-8.392462E-06,15.687,0,1.0458,8.69459E-05,15.687,0
1.0467,9.735256E-06,15.7005,0,1.0467,8.056763E-06,15.7005,0
1.0476,1.309224E-05,15.714,0,1.0476,-7.553216E-05,15.714,0
1.0485,-1.275654E-05,15.7275,0,1.0485,-1.309224E-05,15.7275,0
1.0494,2.786297E-05,15.741,0,1.0494,2.450599E-05,15.741,0
1.0503,5.001907E-05,15.7545,0,1.0503,-2.484169E-05,15.7545,0
1.0512,6.311131E-05,15.768,0,1.0512,-3.021286E-06,15.768,0
1.0521,4.162661E-05,15.7815,0,1.0521,1.309224E-05,15.7815,0
1.053,1.678492E-05,15.795,0,1.053,-1.846342E-05,15.795,0
1.0539,1.007095E-06,15.8085,0,1.0539,-3.424125E-05,15.8085,0
1.0548,1.040665E-05,15.822,0,1.0548,-6.009003E-05,15.822,0
1.0557,-9.735256E-06,15.8355,0,1.0557,-2.920577E-05,15.8355,0
1.0566,-7.150377E-05,15.849,0,1.0566,-2.685588E-06,15.849,0
1.0575,-5.975433E-05,15.8625,0,1.0575,-5.471885E-05,15.8625,0
1.0584,-8.728161E-06,15.876,0,1.0584,-9.600977E-05,15.876,0
1.0593,-4.36408E-06,15.8895,0,1.0593,-5.941863E-05,15.8895,0
1.0602,7.721065E-06,15.903,0,1.0602,-9.298848E-05,15.903,0
1.0611,2.383459E-05,15.9165,0,1.0611,-0.0001346151,15.9165,0
1.062,-2.349889E-06,15.93,0,1.062,-4.229801E-05,15.93,0
1.0629,6.277562E-05,15.9435,0,1.0629,3.021286E-06,15.9435,0
1.0638,6.009003E-05,15.957,0,1.0638,1.208515E-05,15.957,0
1.0647,1.846342E-05,15.9705,0,1.0647,1.745632E-05,15.9705,0
1.0656,4.36408E-06,15.984,0,1.0656,2.652018E-05,15.984,0
1.0665,1.141375E-05,15.9975,0,1.0665,-3.625543E-05,15.9975,0
1.0674,7.049668E-06,16.011,0,1.0674,-0.0001151446,16.011,0
1.0683,-3.021286E-05,16.0245,0,1.0683,-0.0001889983,16.0245,0
1.0692,-2.920577E-05,16.038,0,1.0692,-0.0001748989,16.038,0
1.0701,-3.356985E-06,16.0515,0,1.0701,-0.0001198444,16.0515,0
1.071,2.349889E-06,16.065,0,1.071,-0.0001292439,16.065,0
1.0719,1.980621E-05,16.0785,0,1.0719,-0.0001232013,16.0785,0
1.0728,-1.443504E-05,16.092,0,1.0728,4.028382E-06,16.092,0
1.0737,-3.793393E-05,16.1055,0,1.0737,0.0001084306,16.1055,0
1.0746,-5.136187E-05,16.119,0,1.0746,0.000126894,16.119,0
1.0755,-2.853437E-05,16.1325,0,1.0755,0.0002682231,16.1325,0
1.0764,-3.927672E-05,16.146,0,1.0764,0.0003232776,16.146,0
1.0773,-5.673304E-05,16.1595,0,1.0773,0.0001822843,16.1595,0
1.0782,-3.323415E-05,16.173,0,1.0782,9.835965E-05,16.173,0
1.0791,-6.478981E-05,16.1865,0,1.0791,9.231708E-05,16.1865,0
1.08,-4.733349E-05,16.2,0,1.08,4.934768E-05,16.2,0
1.0809,-2.1149E-05,16.2135,0,1.0809,2.517739E-05,16.2135,0
1.0818,-2.584878E-05,16.227,0,1.0818,-3.121996E-05,16.227,0
1.0827,-2.786297E-05,16.2405,0,1.0827,3.692683E-06,16.2405,0
1.0836,5.706874E-06,16.254,0,1.0836,-3.021286E-06,16.254,0
1.0845,2.584878E-05,16.2675,0,1.0845,-4.263371E-05,16.2675,0
1.0854,4.699779E-05,16.281,0,1.0854,-6.378271E-05,16.281,0
1.0863,3.088426E-05,16.2945,0,1.0863,-5.069047E-05,16.2945,0
1.0872,7.855344E-05,16.308,0,1.0872,-3.323415E-05,16.308,0
1.0881,5.740444E-05,16.3215,0,1.0881,-6.6804E-05,16.3215,0
1.089,3.021286E-06,16.335,0,1.089,-2.584878E-05,16.335,0
1.0899,-2.584878E-05,16.3485,0,1.0899,-1.644922E-05,16.3485,0
1.0908,-5.941863E-05,16.362,0,1.0908,-4.46479E-05,16.362,0
1.0917,-3.390555E-05,16.3755,0,1.0917,-7.284657E-05,16.3755,0
1.0926,-5.673304E-05,16.389,0,1.0926,-6.478981E-05,16.389,0
1.0935,-5.001907E-05,16.4025,0,1.0935,-9.735256E-05,16.4025,0
1.0944,-2.047761E-05,16.416,0,1.0944,-0.0001151446,16.416,0
1.0953,5.035477E-06,16.4295,0,1.0953,-0.0001601282,16.4295,0
1.0962,4.196231E-05,16.443,0,1.0962,-0.0001208515,16.443,0
1.0971,4.666209E-05,16.4565,0,1.0971,-8.493171E-05,16.4565,0
1.098,2.383459E-05,16.47,0,1.098,-6.74754E-05,16.47,0
1.0989,5.941863E-05,16.4835,0,1.0989,-1.510643E-05,16.4835,0
1.0998,2.652018E-05,16.497,0,1.0998,9.231708E-05,16.497,0
1.1007,2.349889E-06,16.5105,0,1.1007,9.063859E-05,16.5105,0
1.1016,1.544213E-05,16.524,0,1.1016,-7.721065E-06,16.524,0
1.1025,3.021286E-06,16.5375,0,1.1025,3.390555E-05,16.5375,0
1.1034,-3.927672E-05,16.551,0,1.1034,3.826963E-05,16.551,0
1.1043,-5.941863E-05,16.5645,0,1.1043,-4.901198E-05,16.5645,0
1.1052,-3.524834E-05,16.578,0,1.1052,-2.584878E-05,16.578,0
1.1061,-5.673304E-05,16.5915,0,1.1061,-2.685588E-06,16.5915,0
1.107,-5.673304E-05,16.605,0,1.107,-2.584878E-05,16.605,0
1.1079,-3.793393E-05,16.6185,0,1.1079,-5.270466E-05,16.6185,0
1.1088,-3.860533E-05,16.632,0,1.1088,-7.956054E-05,16.632,0
1.1097,-4.43122E-05,16.6455,0,1.1097,-3.524834E-05,16.6455,0
1.1106,1.007095E-06,16.659,0,1.1106,-4.901198E-05,16.659,0
1.1115,-1.678492E-06,16.6725,0,1.1115,-0.000109102,16.6725,0
1.1124,-8.728161E-06,16.686,0,1.1124,-0.0001265583,16.686,0
1.1133,-3.256275E-05,16.6995,0,1.1133,-5.404745E-05,16.6995,0
1.1142,-9.701686E-05,16.713,0,1.1142,-0.0001326009,16.713,0
1.1151,-5.774014E-05,16.7265,0,1.1151,-0.0001456931,16.7265,0
1.116,-3.457694E-05,16.74,0,1.116,-5.102617E-05,16.74,0
1.1169,3.558404E-05,16.7535,0,1.1169,1.040665E-05,16.7535,0
1.1178,4.196231E-05,16.767,0,1.1178,3.927672E-05,16.767,0
1.1187,6.948959E-05,16.7805,0,1.1187,0.0001084306,16.7805,0
1.1196,6.344701E-05,16.794,0,1.1196,0.0001661708,16.794,0
1.1205,2.316319E-05,16.8075,0,1.1205,0.000144686,16.8075,0
1.1214,2.24918E-05,16.821,0,1.1214,0.0001420005,16.821,0
1.1223,6.54612E-05,16.8345,0,1.1223,6.243992E-05,16.8345,0
1.1232,2.719158E-05,16.848,0,1.1232,2.1149E-05,16.848,0
1.1241,-3.692683E-05,16.8615,0,1.1241,3.726253E-05,16.8615,0
1.125,-5.706874E-06,16.875,0,1.125,-3.021286E-05,16.875,0
1.1259,2.1149E-05,16.8885,0,1.1259,-5.941863E-05,16.8885,0
1.1268,2.853437E-05,16.902,0,1.1268,1.107805E-05,16.902,0
1.1277,9.735256E-06,16.9155,0,1.1277,-5.505455E-05,16.9155,0
1.1286,-9.063859E-06,16.929,0,1.1286,-8.191043E-05,16.929,0
1.1295,-4.229801E-05,16.9425,0,1.1295,-1.275654E-05,16.9425,0
1.1304,-5.807584E-05,16.956,0,1.1304,-1.141375E-05,16.956,0
1.1313,-8.123904E-05,16.9695,0,1.1313,-4.800488E-05,16.9695,0
1.1322,-0.0001054093,16.983,0,1.1322,-7.922484E-05,16.983,0
1.1331,-7.888914E-05,16.9965,0,1.1331,-4.53193E-05,16.9965,0
1.134,1.007095E-05,17.01,0,1.134,-3.726253E-05,17.01,0
1.1349,4.632639E-05,17.0235,0,1.1349,-2.987716E-05,17.0235,0
1.1358,8.69459E-05,17.037,0,1.1358,-6.277562E-05,17.037,0
1.1367,0.0001252155,17.0505,0,1.1367,-3.726253E-05,17.0505,0
1.1376,9.332418E-05,17.064,0,1.1376,-4.766919E-05,17.064,0
1.1385,4.33051E-05,17.0775,0,1.1385,-7.754635E-05,17.0775,0
1.1394,2.1149E-05,17.091,0,1.1394,-0.0001054093,17.091,0
1.1403,-4.834058E-05,17.1045,0,1.1403,-6.61326E-05,17.1045,0
1.1412,-8.358892E-05,17.118,0,1.1412,-6.814679E-05,17.118,0
1.1421,-8.526741E-05,17.1315,0,1.1421,-9.198138E-05,17.1315,0
1.143,-0.0001178302,17.145,0,1.143,3.054856E-05,17.145,0
1.1439,-0.0001003738,17.1585,0,1.1439,0.0001070878,17.1585,0
1.1448,-5.270466E-05,17.172,0,1.1448,0.0001225299,17.172,0
1.1457,7.721065E-06,17.1855,0,1.1457,7.351797E-05,17.1855,0
1.1466,-1.242084E-05,17.199,0,1.1466,4.263371E-05,17.199,0
1.1475,4.699779E-06,17.2125,0,1.1475,1.141375E-05,17.2125,0
1.1484,1.040665E-05,17.226,0,1.1484,-2.853437E-05,17.226,0
1.1493,2.853437E-05,17.2395,0,1.1493,-5.404745E-05,17.2395,0
1.1502,-4.028382E-06,17.253,0,1.1502,-8.392462E-06,17.253,0
1.1511,-6.74754E-05,17.2665,0,1.1511,-4.33051E-05,17.2665,0
1.152,-3.994812E-05,17.28,0,1.152,-0.000109102,17.28,0
1.1529,4.36408E-06,17.2935,0,1.1529,-9.365987E-05,17.2935,0
1.1538,-3.390555E-05,17.307,0,1.1538,-3.961242E-05,17.307,0
1.1547,-1.678492E-05,17.3205,0,1.1547,-6.009003E-05,17.3205,0
1.1556,4.095522E-05,17.334,0,1.1556,-0.0001195087,17.334,0
1.1565,1.947051E-05,17.3475,0,1.1565,-3.256275E-05,17.3475,0
1.1574,2.551309E-05,17.361,0,1.1574,2.987716E-05,17.361,0
1.1583,1.947051E-05,17.3745,0,1.1583,-2.618448E-05,17.3745,0
1.1592,3.323415E-05,17.388,0,1.1592,3.289845E-05,17.388,0
1.1601,4.666209E-05,17.4015,0,1.1601,8.96315E-05,17.4015,0
1.161,-9.063859E-06,17.415,0,1.161,8.761731E-05,17.415,0
1.1619,-1.980621E-05,17.4285,0,1.1619,9.466698E-05,17.4285,0
1.1628,1.544213E-05,17.442,0,1.1628,5.539025E-05,17.442,0
1.1637,-1.342794E-06,17.4555,0,1.1637,4.129091E-05,17.4555,0
1.1646,-1.745632E-05,17.469,0,1.1646,7.721065E-06,17.469,0
1.1655,-2.450599E-05,17.4825,0,1.1655,-6.74754E-05,17.4825,0
1.1664,-2.450599E-05,17.496,0,1.1664,-0.0001305867,17.496,0
1.1673,-5.404745E-05,17.5095,0,1.1673,-9.701686E-05,17.5095,0
1.1682,1.007095E-06,17.523,0,1.1682,-8.96315E-05,17.523,0
1.1691,2.24918E-05,17.5365,0,1.1691,-0.0001607996,17.5365,0
1.17,-2.853437E-05,17.55,0,1.17,-9.768826E-05,17.55,0
1.1709,-1.644922E-05,17.5635,0,1.1709,9.063859E-06,17.5635,0
1.1718,5.069047E-05,17.577,0,1.1718,7.083238E-05,17.577,0
1.1727,7.116808E-05,17.5905,0,1.1727,0.0001017166,17.5905,0
1.1736,3.994812E-05,17.604,0,1.1736,0.0001201801,17.604,0
1.1745,2.987716E-05,17.6175,0,1.1745,4.733349E-05,17.6175,0
1.1754,1.174945E-05,17.631,0,1.1754,-2.349889E-05,17.631,0
1.1763,2.685588E-06,17.6445,0,1.1763,-6.478981E-05,17.6445,0
1.1772,1.577783E-05,17.658,0,1.1772,-2.517739E-05,17.658,0
1.1781,-3.591974E-05,17.6715,0,1.1781,-7.452507E-05,17.6715,0
1.179,-5.975433E-05,17.685,0,1.179,-0.0001812772,17.685,0
1.1799,-1.107805E-05,17.6985,0,1.1799,-0.0002474098,17.6985,0
1.1808,-6.042573E-05,17.712,0,1.1808,-0.0001906767,17.712,0
1.1817,-0.0001171588,17.7255,0,1.1817,-0.0001722133,17.7255,0
1.1826,-4.699779E-05,17.739,0,1.1826,-0.0001208515,17.739,0
1.1835,-1.779202E-05,17.7525,0,1.1835,4.867628E-05,17.7525,0
1.1844,4.39765E-05,17.766,0,1.1844,0.0001762417,17.766,0
1.1853,6.74754E-05,17.7795,0,1.1853,0.0002232395,17.7795,0
1.1862,3.121996E-05,17.793,0,1.1862,0.0001873197,17.793,0
1.1871,1.409934E-05,17.8065,0,1.1871,0.000130251,17.8065,0
1.188,8.89601E-05,17.82,0,1.188,4.800488E-05,17.82,0
1.1889,0.0001107805,17.8335,0,1.1889,1.678492E-06,17.8335,0
1.1898,4.800488E-05,17.847,0,1.1898,-4.632639E-05,17.847,0
1.1907,-9.600977E-05,17.8605,0,1.1907,3.457694E-05,17.8605,0
1.1916,-0.0001037308,17.874,0,1.1916,5.673304E-05,17.874,0
1.1925,-5.740444E-05,17.8875,0,1.1925,1.007095E-06,17.8875,0
1.1934,-9.970245E-05,17.901,0,1.1934,-3.961242E-05,17.901,0
1.1943,-0.0001272297,17.9145,0,1.1943,-1.443504E-05,17.9145,0
1.1952,-9.332418E-05,17.928,0,1.1952,-2.1149E-05,17.928,0
1.1961,-4.129091E-05,17.9415,0,1.1961,-7.418937E-05,17.9415,0
1.197,-7.721065E-05,17.955,0,1.197,-1.678492E-06,17.955,0
1.1979,-1.443504E-05,17.9685,0,1.1979,6.713969E-07,17.9685,0
1.1988,0.0001232013,17.982,0,1.1988,-3.659113E-05,17.982,0
1.1997,0.0001245441,17.9955,0,1.1997,-6.57969E-05,17.9955,0
1.2006,0.0001366293,18.009,0,1.2006,-5.236896E-05,18.009,0
1.2015,0.0001305867,18.0225,0,1.2015,-9.298848E-05,18.0225,0
1.2024,2.24918E-05,18.036,0,1.2024,-0.0001299153,18.036,0
1.2033,-8.090334E-05,18.0495,0,1.2033,-0.0001127947,18.0495,0
1.2042,-0.0001144732,18.063,0,1.2042,-2.383459E-05,18.063,0
1.2051,-0.0001117876,18.0765,0,1.2051,2.618448E-05,18.0765,0
1.206,-6.74754E-05,18.09,0,1.206,2.24918E-05,18.09,0
1.2069,-4.33051E-05,18.1035,0,1.2069,-2.987716E-05,18.1035,0
1.2078,9.735256E-06,18.117,0,1.2078,1.242084E-05,18.117,0
1.2087,9.332418E-05,18.1305,0,1.2087,-1.443504E-05,18.1305,0
1.2096,6.009003E-05,18.144,0,1.2096,-0.0001064164,18.144,0
1.2105,-4.162661E-05,18.1575,0,1.2105,-2.484169E-05,18.1575,0
1.2114,5.706874E-06,18.171,0,1.2114,-3.961242E-05,18.171,0
1.2123,7.486076E-05,18.1845,0,1.2123,-0.0001178302,18.1845,0
1.2132,6.344701E-05,18.198,0,1.2132,-0.0001393149,18.198,0
1.2141,-4.867628E-05,18.2115,0,1.2141,-9.903105E-05,18.2115,0
1.215,-0.0001064164,18.225,0,1.215,-6.54612E-05,18.225,0
1.2159,-5.874724E-05,18.2385,0,1.2159,-4.565499E-05,18.2385,0
1.2168,-7.888914E-05,18.252,0,1.2168,-1.242084E-05,18.252,0
1.2177,-0.0001232013,18.2655,0,1.2177,0.0001221943,18.2655,0
1.2186,-5.807584E-05,18.279,0,1.2186,0.0001460288,18.279,0
1.2195,2.383459E-05,18.2925,0,1.2195,7.754635E-05,18.2925,0
1.2204,2.081331E-05,18.306,0,1.2204,2.484169E-05,18.306,0
1.2213,-7.385367E-05,18.3195,0,1.2213,2.719158E-05,18.3195,0
1.2222,2.28275E-05,18.333,0,1.2222,-8.392462E-06,18.333,0
1.2231,0.000224918,18.3465,0,1.2231,-4.834058E-05,18.3465,0
1.224,0.0001406577,18.36,0,1.224,-4.632639E-05,18.36,0
1.2249,1.846342E-05,18.3735,0,1.2249,-0.0001114519,18.3735,0
1.2258,-1.913481E-05,18.387,0,1.2258,-0.0001409934,18.387,0
1.2267,-9.063859E-06,18.4005,0,1.2267,-8.157473E-05,18.4005,0
1.2276,-0.0001312581,18.414,0,1.2276,-4.53193E-05,18.414,0
1.2285,-0.0001567712,18.4275,0,1.2285,-1.174945E-05,18.4275,0
1.2294,-3.356985E-05,18.441,0,1.2294,5.404745E-05,18.441,0
1.2303,-2.551309E-05,18.4545,0,1.2303,4.565499E-05,18.4545,0
1.2312,4.129091E-05,18.468,0,1.2312,5.874724E-05,18.468,0
1.2321,9.030289E-05,18.4815,0,1.2321,3.356985E-05,18.4815,0
1.233,2.987716E-05,18.495,0,1.233,-7.351797E-05,18.495,0
1.2339,-4.061952E-05,18.5085,0,1.2339,-0.0001077592,18.5085,0
1.2348,-0.0001198444,18.522,0,1.2348,-2.987716E-05,18.522,0
1.2357,-8.526741E-05,18.5355,0,1.2357,-7.653925E-05,18.5355,0
1.2366,-6.54612E-05,18.549,0,1.2366,-0.0001080949,18.549,0
1.2375,4.129091E-05,18.5625,0,1.2375,5.874724E-05,18.5625,0
1.2384,0.0001782559,18.576,0,1.2384,0.0002171969,18.576,0
1.2393,0.0001947051,18.5895,0,1.2393,0.0001923552,18.5895,0
1.2402,0.0002440528,18.603,0,1.2402,9.869535E-05,18.603,0
1.2411,7.855344E-05,18.6165,0,1.2411,6.915389E-05,18.6165,0
1.242,-0.0002265965,18.63,0,1.242,-1.342794E-06,18.63,0
1.2429,-0.000312871,18.6435,0,1.2429,-5.740444E-05,18.6435,0
1.2438,-0.0002437171,18.657,0,1.2438,-7.351797E-05,18.657,0
1.2447,-0.0001389792,18.6705,0,1.2447,-3.256275E-05,18.6705,0
1.2456,-0.0001077592,18.684,0,1.2456,-3.524834E-05,18.684,0
1.2465,-1.644922E-05,18.6975,0,1.2465,-8.89601E-05,18.6975,0
1.2474,6.915389E-05,18.711,0,1.2474,-0.0001003738,18.711,0
1.2483,6.277562E-05,18.7245,0,1.2483,-1.577783E-05,18.7245,0
1.2492,3.189136E-05,18.738,0,1.2492,-1.309224E-05,18.738,0
1.2501,3.424125E-05,18.7515,0,1.2501,-4.53193E-05,18.7515,0
1.251,3.155566E-05,18.765,0,1.251,1.678492E-06,18.765,0
1.2519,7.956054E-05,18.7785,0,1.2519,-2.014191E-05,18.7785,0
1.2528,0.0001097734,18.792,0,1.2528,-6.042573E-05,18.792,0
1.2537,5.404745E-05,18.8055,0,1.2537,-3.692683E-06,18.8055,0
1.2546,1.007095E-06,18.819,0,1.2546,1.107805E-05,18.819,0
1.2555,2.450599E-05,18.8325,0,1.2555,-0.0001309224,18.8325,0
1.2564,-5.874724E-05,18.846,0,1.2564,-0.0002376745,18.846,0
1.2573,-3.390555E-05,18.8595,0,1.2573,-0.0002386816,18.8595,0
1.2582,8.157473E-05,18.873,0,1.2582,-0.0001134661,18.873,0
1.2591,0.0001282368,18.8865,0,1.2591,1.040665E-05,18.8865,0
1.26,9.332418E-05,18.9,0,1.26,1.947051E-05,18.9,0
1.2609,8.358892E-05,18.9135,0,1.2609,8.056763E-06,18.9135,0
1.2618,7.486076E-05,18.927,0,1.2618,0.0001587854,18.927,0
1.2627,-5.706874E-06,18.9405,0,1.2627,0.0001916838,18.9405,0
1.2636,-2.014191E-06,18.954,0,1.2636,8.258183E-05,18.954,0
1.2645,9.298848E-05,18.9675,0,1.2645,7.586786E-05,18.9675,0
1.2654,0.0001084306,18.981,0,1.2654,3.390555E-05,18.981,0
1.2663,5.706874E-05,18.9945,0,1.2663,-3.793393E-05,18.9945,0
1.2672,2.652018E-05,19.008,0,1.2672,-4.129091E-05,19.008,0
1.2681,-0.0001292439,19.0215,0,1.2681,3.054856E-05,19.0215,0
1.269,-0.0002195468,19.035,0,1.269,-2.719158E-05,19.035,0
1.2699,-0.0001809415,19.0485,0,1.2699,-2.1149E-05,19.0485,0
1.2708,-9.030289E-05,19.062,0,1.2708,3.692683E-06,19.062,0
1.2717,-7.721065E-06,19.0755,0,1.2717,1.846342E-05,19.0755,0
1.2726,-2.047761E-05,19.089,0,1.2726,2.719158E-05,19.089,0
1.2735,-6.915389E-05,19.1025,0,1.2735,-5.941863E-05,19.1025,0
1.2744,-4.33051E-05,19.116,0,1.2744,-8.358892E-05,19.116,0
1.2753,1.510643E-05,19.1295,0,1.2753,-3.894102E-05,19.1295,0
1.2762,3.961242E-05,19.143,0,1.2762,-7.553216E-05,19.143,0
1.2771,1.812772E-05,19.1565,0,1.2771,-0.0001456931,19.1565,0
1.278,3.356985E-05,19.17,0,1.278,-4.33051E-05,19.17,0
1.2789,4.934768E-05,19.1835,0,1.2789,1.376364E-05,19.1835,0
1.2798,1.712062E-05,19.197,0,1.2798,-7.049668E-06,19.197,0
1.2807,9.735256E-05,19.2105,0,1.2807,4.129091E-05,19.2105,0
1.2816,0.0001265583,19.224,0,1.2816,5.807584E-05,19.224,0
1.2825,5.740444E-05,19.2375,0,1.2825,-1.409934E-05,19.2375,0
1.2834,-3.021286E-05,19.251,0,1.2834,-6.277562E-05,19.251,0
1.2843,-3.793393E-05,19.2645,0,1.2843,-0.0001030594,19.2645,0
1.2852,-7.989624E-05,19.278,0,1.2852,-0.0001876554,19.278,0
1.2861,-0.0001910124,19.2915,0,1.2861,-0.0001977264,19.2915,0
1.287,-0.0001896696,19.305,0,1.287,-0.0002229038,19.305,0
1.2879,-7.351797E-05,19.3185,0,1.2879,-0.0002259251,19.3185,0
1.2888,-2.081331E-05,19.332,0,1.2888,-0.0001077592,19.332,0
1.2897,5.471885E-05,19.3455,0,1.2897,2.954147E-05,19.3455,0
1.2906,6.176852E-05,19.359,0,1.2906,0.0001943694,19.359,0
1.2915,4.36408E-06,19.3725,0,1.2915,0.0003743038,19.3725,0
1.2924,-1.812772E-05,19.386,0,1.2924,0.0002628519,19.386,0
1.2933,-2.081331E-05,19.3995,0,1.2933,0.0001654994,19.3995,0
1.2942,-8.392462E-06,19.413,0,1.2942,0.0001644923,19.413,0
1.2951,-4.800488E-05,19.4265,0,1.2951,8.69459E-05,19.4265,0
1.296,-3.793393E-05,19.44,0,1.296,-5.606165E-05,19.44,0
1.2969,-6.51255E-05,19.4535,0,1.2969,-0.0001198444,19.4535,0
1.2978,-7.855344E-05,19.467,0,1.2978,-0.0001453574,19.467,0
1.2987,-1.242084E-05,19.4805,0,1.2987,-5.404745E-05,19.4805,0
1.2996,0.0001712062,19.494,0,1.2996,1.376364E-05,19.494,0
1.3005,9.903105E-05,19.5075,0,1.3005,5.471885E-05,19.5075,0
1.3014,-4.800488E-05,19.521,0,1.3014,0.0001319295,19.521,0
1.3023,-7.687495E-05,19.5345,0,1.3023,3.121996E-05,19.5345,0
1.3032,-9.835965E-05,19.548,0,1.3032,-0.0001138018,19.548,0
1.3041,-0.0001399863,19.5615,0,1.3041,-0.0002279393,19.5615,0
1.305,-0.0001957122,19.575,0,1.305,-0.0002259251,19.575,0
1.3059,-0.0001621424,19.5885,0,1.3059,-0.0001990692,19.5885,0
1.3068,-5.539025E-05,19.602,0,1.3068,-0.0002339818,19.602,0
1.3077,9.634547E-05,19.6155,0,1.3077,-0.0001037308,19.6155,0
1.3086,0.0001054093,19.629,0,1.3086,0.0001070878,19.629,0
1.3095,0.0001339437,19.6425,0,1.3095,0.0001963836,19.6425,0
1.3104,5.606165E-05,19.656,0,1.3104,0.0002410315,19.656,0
1.3113,-2.18204E-05,19.6695,0,1.3113,0.0002084688,19.6695,0
1.3122,-1.174945E-05,19.683,0,1.3122,0.0001205158,19.683,0
1.3131,1.913481E-05,19.6965,0,1.3131,5.740444E-05,19.6965,0
1.314,-1.242084E-05,19.71,0,1.314,-5.371176E-05,19.71,0
1.3149,-1.644922E-05,19.7235,0,1.3149,-0.0001225299,19.7235,0
1.3158,-9.063859E-06,19.737,0,1.3158,-5.270466E-05,19.737,0
1.3167,2.719158E-05,19.7505,0,1.3167,-3.289845E-05,19.7505,0
1.3176,9.399558E-06,19.764,0,1.3176,-9.231708E-05,19.764,0
1.3185,-0.0001463645,19.7775,0,1.3185,-3.860533E-05,19.7775,0
1.3194,-5.404745E-05,19.791,0,1.3194,-2.18204E-05,19.791,0
1.3203,5.438316E-05,19.8045,0,1.3203,-5.169757E-05,19.8045,0
1.3212,0.0001701991,19.818,0,1.3212,-3.356985E-05,19.818,0
1.3221,0.0001121233,19.8315,0,1.3221,-3.121996E-05,19.8315,0
1.323,3.356985E-07,19.845,0,1.323,-7.150377E-05,19.845,0
1.3239,-4.129091E-05,19.8585,0,1.3239,-6.881819E-05,19.8585,0
1.3248,-0.0001681849,19.872,0,1.3248,-8.157473E-05,19.872,0
1.3257,-0.0001816129,19.8855,0,1.3257,-5.035477E-05,19.8855,0
1.3266,-0.0001238727,19.899,0,1.3266,1.309224E-05,19.899,0
1.3275,-8.795301E-05,19.9125,0,1.3275,4.028382E-06,19.9125,0
1.3284,-1.644922E-05,19.926,0,1.3284,-7.217517E-05,19.926,0
1.3293,2.349889E-06,19.9395,0,1.3293,-4.33051E-05,19.9395,0
1.3302,1.913481E-05,19.953,0,1.3302,-5.001907E-05,19.953,0
1.3311,0.0001131304,19.9665,0,1.3311,-8.392462E-05,19.9665,0
1.332,0.0001554284,19.98,0,1.332,-7.049668E-06,19.98,0
1.3329,0.0001567712,19.9935,0,1.3329,7.049668E-06,19.9935,0
1.3338,3.625543E-05,20.007,0,1.3338,-7.553216E-05,20.007,0
1.3347,-7.217517E-05,20.0205,0,1.3347,-7.788205E-05,20.0205,0
1.3356,-3.021286E-05,20.034,0,1.3356,-2.786297E-05,20.034,0
1.3365,-0.0001151446,20.0475,0,1.3365,-1.712062E-05,20.0475,0
1.3374,-8.493171E-05,20.061,0,1.3374,-2.819867E-05,20.061,0
1.3383,4.129091E-05,20.0745,0,1.3383,-5.606165E-05,20.0745,0
1.3392,3.591974E-05,20.088,0,1.3392,2.349889E-06,20.088,0
1.3401,5.304036E-05,20.1015,0,1.3401,2.887007E-05,20.1015,0
1.341,7.620356E-05,20.115,0,1.341,-5.169757E-05,20.115,0
1.3419,-2.383459E-05,20.1285,0,1.3419,-0.000161471,20.1285,0
1.3428,-3.524834E-05,20.142,0,1.3428,-0.0001641566,20.142,0
1.3437,8.090334E-05,20.1555,0,1.3437,-0.0002168612,20.1555,0
1.3446,8.72816E-05,20.169,0,1.3446,-0.0002615091,20.169,0
1.3455,5.874724E-05,20.1825,0,1.3455,-0.0001275654,20.1825,0
1.3464,-3.356985E-07,20.196,0,1.3464,5.136187E-05,20.196,0
1.3473,-1.208515E-05,20.2095,0,1.3473,0.000164828,20.2095,0
1.3482,6.143282E-05,20.223,0,1.3482,0.000379675,20.223,0
1.3491,1.174945E-05,20.2365,0,1.3491,0.0003810178,20.2365,0
1.35,-8.69459E-05,20.25,0,1.35,0.0002323034,20.25,0
1.3509,-0.0001104448,20.2635,0,1.3509,7.754635E-05,20.2635,0
1.3518,-6.6804E-05,20.277,0,1.3518,2.349889E-06,20.277,0
1.3527,-4.36408E-05,20.2905,0,1.3527,2.21561E-05,20.2905,0
1.3536,-5.975433E-05,20.304,0,1.3536,-2.752728E-05,20.304,0
1.3545,-6.948959E-05,20.3175,0,1.3545,-0.000105745,20.3175,0
1.3554,-7.754635E-05,20.331,0,1.3554,-0.0001138018,20.331,0
1.3563,-0.0001104448,20.3445,0,1.3563,-5.371176E-05,20.3445,0
1.3572,-6.915389E-05,20.358,0,1.3572,-6.74754E-05,20.358,0
1.3581,-4.028382E-05,20.3715,0,1.3581,-7.318227E-05,20.3715,0
1.359,1.342794E-06,20.385,0,1.359,6.61326E-05,20.385,0
1.3599,7.284657E-05,20.3985,0,1.3599,9.802396E-05,20.3985,0
1.3608,5.740444E-05,20.412,0,1.3608,-3.088426E-05,20.412,0
1.3617,-3.390555E-05,20.4255,0,1.3617,-8.96315E-05,20.4255,0
1.3626,-0.0001144732,20.439,0,1.3626,-5.404745E-05,20.439,0
1.3635,-3.860533E-05,20.4525,0,1.3635,-5.673304E-05,20.4525,0
1.3644,2.584878E-05,20.466,0,1.3644,-5.001907E-05,20.466,0
1.3653,9.231708E-05,20.4795,0,1.3653,-9.164568E-05,20.4795,0
1.3662,0.000144686,20.493,0,1.3662,-2.18204E-05,20.493,0
1.3671,0.0001017166,20.5065,0,1.3671,-2.316319E-05,20.5065,0
1.368,5.069047E-05,20.52,0,1.368,-6.210422E-05,20.52,0
1.3689,2.1149E-05,20.5335,0,1.3689,-3.356985E-05,20.5335,0
1.3698,-7.318227E-05,20.547,0,1.3698,3.256275E-05,20.547,0
1.3707,-6.009003E-05,20.5605,0,1.3707,2.920577E-05,20.5605,0
1.3716,-3.155566E-05,20.574,0,1.3716,-1.913481E-05,20.574,0
1.3725,1.107805E-05,20.5875,0,1.3725,5.169757E-05,20.5875,0
1.3734,0.0001050736,20.601,0,1.3734,2.652018E-05,20.601,0
1.3743,0.0002453956,20.6145,0,1.3743,-1.342794E-06,20.6145,0
1.3752,0.0002648661,20.628,0,1.3752,-1.510643E-05,20.628,0
1.3761,6.54612E-05,20.6415,0,1.3761,-4.699779E-06,20.6415,0
1.377,-0.0001279011,20.655,0,1.377,-3.860533E-05,20.655,0
1.3779,-0.000186984,20.6685,0,1.3779,-7.687495E-05,20.6685,0
1.3788,-0.0001906767,20.682,0,1.3788,-0.0001141375,20.682,0
1.3797,-0.000252781,20.6955,0,1.3797,-4.53193E-05,20.6955,0
1.3806,-0.0001775845,20.709,0,1.3806,-3.692683E-05,20.709,0
1.3815,-9.433127E-05,20.7225,0,1.3815,-7.016098E-05,20.7225,0
1.3824,-7.553216E-05,20.736,0,1.3824,-2.719158E-05,20.736,0
1.3833,-3.826963E-05,20.7495,0,1.3833,4.800488E-05,20.7495,0
1.3842,-4.263371E-05,20.763,0,1.3842,-1.040665E-05,20.763,0
1.3851,3.390555E-05,20.7765,0,1.3851,-0.0001326009,20.7765,0
1.386,9.097429E-05,20.79,0,1.386,-0.0001185016,20.79,0
1.3869,0.000115816,20.8035,0,1.3869,-0.0001799344,20.8035,0
1.3878,8.358892E-05,20.817,0,1.3878,-0.0002370031,20.817,0
1.3887,2.752728E-05,20.8305,0,1.3887,-0.0001755703,20.8305,0
1.3896,-2.349889E-06,20.844,0,1.3896,-2.584878E-05,20.844,0
1.3905,3.961242E-05,20.8575,0,1.3905,0.000185977,20.8575,0
1.3914,-4.129091E-05,20.871,0,1.3914,0.0001769131,20.871,0
1.3923,-1.074235E-05,20.8845,0,1.3923,0.000200412,20.8845,0
1.3932,-3.256275E-05,20.898,0,1.3932,0.0002937362,20.898,0
1.3941,-0.0001326009,20.9115,0,1.3941,0.000218204,20.9115,0
1.395,-8.325322E-05,20.925,0,1.395,5.001907E-05,20.925,0
1.3959,-9.735256E-06,20.9385,0,1.3959,-3.457694E-05,20.9385,0
1.3968,3.860533E-05,20.952,0,1.3968,2.786297E-05,20.952,0
1.3977,4.061952E-05,20.9655,0,1.3977,-3.323415E-05,20.9655,0
1.3986,2.383459E-05,20.979,0,1.3986,-0.0001342794,20.979,0
1.3995,-2.584878E-05,20.9925,0,1.3995,-2.584878E-05,20.9925,0
1.4004,2.618448E-05,21.006,0,1.4004,-7.385367E-06,21.006,0
1.4013,0.0001060807,21.0195,0,1.4013,-6.445411E-05,21.0195,0
1.4022,0.0001305867,21.033,0,1.4022,-3.524834E-05,21.033,0
1.4031,7.083238E-05,21.0465,0,1.4031,-4.49836E-05,21.0465,0
1.404,0.0001242084,21.06,0,1.404,-5.438316E-05,21.06,0
1.4049,0.0001695277,21.0735,0,1.4049,-6.881819E-05,21.0735,0
1.4058,3.256275E-05,21.087,0,1.4058,-0.000148043,21.087,0
1.4067,-8.728161E-06,21.1005,0,1.4067,-0.000133608,21.1005,0
1.4076,-2.920577E-05,21.114,0,1.4076,-0.0001074235,21.114,0
1.4085,-0.0001634852,21.1275,0,1.4085,-0.0001161517,21.1275,0
1.4094,-0.0003091783,21.141,0,1.4094,-0.0001990692,21.141,0
1.4103,-0.0002168612,21.1545,0,1.4103,-9.097429E-05,21.1545,0
1.4112,-7.855344E-05,21.168,0,1.4112,4.028382E-06,21.168,0
1.4121,-7.452507E-05,21.1815,0,1.4121,6.109713E-05,21.1815,0
1.413,-6.344701E-05,21.195,0,1.413,0.0001154803,21.195,0
1.4139,2.719158E-05,21.2085,0,1.4139,0.0001550927,21.2085,0
1.4148,8.560311E-05,21.222,0,1.4148,0.0001080949,21.222,0
1.4157,0.000102388,21.2355,0,1.4157,2.517739E-05,21.2355,0
1.4166,0.0001111162,21.249,0,1.4166,4.699779E-06,21.249,0
1.4175,7.217517E-05,21.2625,0,1.4175,-6.210422E-05,21.2625,0
1.4184,0.0001393149,21.276,0,1.4184,-8.157473E-05,21.276,0
1.4193,0.0001440146,21.2895,0,1.4193,-8.358892E-05,21.2895,0
1.4202,1.779202E-05,21.303,0,1.4202,1.644922E-05,21.303,0
1.4211,-1.712062E-05,21.3165,0,1.4211,0.0001003738,21.3165,0
1.422,1.174945E-05,21.33,0,1.422,8.358892E-05,21.33,0
1.4229,-9.466698E-05,21.3435,0,1.4229,6.54612E-05,21.3435,0
1.4238,-0.0001460288,21.357,0,1.4238,7.351797E-05,21.357,0
1.4247,-0.0001228656,21.3705,0,1.4247,-3.356985E-07,21.3705,0
1.4256,-0.0001846342,21.384,0,1.4256,-0.0001047379,21.384,0
1.4265,-0.0001238727,21.3975,0,1.4265,-3.692683E-05,21.3975,0
1.4274,-5.304036E-05,21.411,0,1.4274,-5.539025E-05,21.411,0
1.4283,-3.524834E-05,21.4245,0,1.4283,-0.0001080949,21.4245,0
1.4292,2.517739E-05,21.438,0,1.4292,-7.150377E-05,21.438,0
1.4301,6.109713E-05,21.4515,0,1.4301,-1.107805E-05,21.4515,0
1.431,6.848249E-05,21.465,0,1.431,-1.846342E-05,21.465,0
1.4319,4.632639E-05,21.4785,0,1.4319,-6.176852E-05,21.4785,0
1.4328,3.591974E-05,21.492,0,1.4328,-9.030289E-05,21.492,0
1.4337,6.143282E-05,21.5055,0,1.4337,-5.606165E-05,21.5055,0
1.4346,4.800488E-05,21.519,0,1.4346,-3.692683E-06,21.519,0
1.4355,5.740444E-05,21.5325,0,1.4355,-3.524834E-05,21.5325,0
1.4364,9.164568E-05,21.546,0,1.4364,-2.383459E-05,21.546,0
1.4373,6.411841E-05,21.5595,0,1.4373,4.968337E-05,21.5595,0
1.4382,7.855344E-05,21.573,0,1.4382,3.625543E-05,21.573,0
1.4391,-1.107805E-05,21.5865,0,1.4391,-4.33051E-05,21.5865,0
1.44,-4.196231E-05,21.6,0,1.44,3.054856E-05,21.6,0
1.4409,-4.129091E-05,21.6135,0,1.4409,4.49836E-05,21.6135,0
1.4418,-8.090334E-05,21.627,0,1.4418,-3.591974E-05,21.627,0
1.4427,-0.0001634852,21.6405,0,1.4427,-7.888914E-05,21.6405,0
1.4436,-4.666209E-05,21.654,0,1.4436,-5.102617E-05,21.654,0
1.4445,0.0001010452,21.6675,0,1.4445,-7.452507E-05,21.6675,0
1.4454,0.000102388,21.681,0,1.4454,-6.6804E-05,21.681,0
1.4463,-4.666209E-05,21.6945,0,1.4463,-8.493171E-05,21.6945,0
1.4472,-0.0001000381,21.708,0,1.4472,-4.061952E-05,21.708,0
1.4481,-5.270466E-05,21.7215,0,1.4481,1.980621E-05,21.7215,0
1.449,-0.0001067521,21.735,0,1.449,-1.443504E-05,21.735,0
1.4499,-0.0001846342,21.7485,0,1.4499,-3.591974E-05,21.7485,0
1.4508,-0.0001282368,21.762,0,1.4508,1.477073E-05,21.762,0
1.4517,-1.644922E-05,21.7755,0,1.4517,-9.735256E-06,21.7755,0
1.4526,2.1149E-05,21.789,0,1.4526,-7.049668E-05,21.789,0
1.4535,1.242084E-05,21.8025,0,1.4535,1.174945E-05,21.8025,0
1.4544,2.517739E-05,21.816,0,1.4544,2.450599E-05,21.816,0
1.4553,3.356985E-07,21.8295,0,1.4553,-6.411841E-05,21.8295,0
1.4562,7.721065E-06,21.843,0,1.4562,-3.256275E-05,21.843,0
1.4571,3.793393E-05,21.8565,0,1.4571,3.860533E-05,21.8565,0
1.458,1.242084E-05,21.87,0,1.458,-5.371176E-06,21.87,0
1.4589,3.356985E-07,21.8835,0,1.4589,-7.486076E-05,21.8835,0
1.4598,5.304036E-05,21.897,0,1.4598,-0.0001587854,21.897,0
1.4607,8.023193E-05,21.9105,0,1.4607,-0.0001440146,21.9105,0
1.4616,-1.275654E-05,21.924,0,1.4616,-0.0001060807,21.924,0
1.4625,1.040665E-05,21.9375,0,1.4625,-5.539025E-05,21.9375,0
1.4634,4.39765E-05,21.951,0,1.4634,-7.385367E-06,21.951,0
1.4643,-2.954147E-05,21.9645,0,1.4643,0.0002353246,21.9645,0
1.4652,-1.577783E-05,21.978,0,1.4652,0.0002171969,21.978,0
1.4661,1.980621E-05,21.9915,0,1.4661,-2.819867E-05,21.9915,0
1.467,7.083238E-05,22.005,0,1.467,6.378271E-06,22.005,0
1.4679,0.0001003738,22.0185,0,1.4679,4.666209E-05,22.0185,0
1.4688,4.229801E-05,22.032,0,1.4688,-4.061952E-05,22.032,0
1.4697,-2.685588E-05,22.0455,0,1.4697,-4.263371E-05,22.0455,0
1.4706,-1.309224E-05,22.059,0,1.4706,4.36408E-06,22.059,0
1.4715,2.349889E-05,22.0725,0,1.4715,6.57969E-05,22.0725,0
1.4724,-1.309224E-05,22.086,0,1.4724,-2.517739E-05,22.086,0
1.4733,1.443504E-05,22.0995,0,1.4733,-0.000112459,22.0995,0
1.4742,5.706874E-06,22.113,0,1.4742,-2.719158E-05,22.113,0
1.4751,-7.116808E-05,22.1265,0,1.4751,6.74754E-05,22.1265,0
1.476,-4.46479E-05,22.14,0,1.476,0.0001487144,22.14,0
1.4769,5.471885E-05,22.1535,0,1.4769,5.337606E-05,22.1535,0
1.4778,0.0001490501,22.167,0,1.4778,3.994812E-05,22.167,0
1.4787,9.600977E-05,22.1805,0,1.4787,1.510643E-05,22.1805,0
1.4796,-1.544213E-05,22.194,0,1.4796,-7.418937E-05,22.194,0
1.4805,9.063859E-06,22.2075,0,1.4805,-3.457694E-05,22.2075,0
1.4814,-3.155566E-05,22.221,0,1.4814,-1.007095E-06,22.221,0
1.4823,-0.0001701991,22.2345,0,1.4823,-1.779202E-05,22.2345,0
1.4832,-0.0002014191,22.248,0,1.4832,2.28275E-05,22.248,0
1.4841,-0.0002366674,22.2615,0,1.4841,4.196231E-05,22.2615,0
1.485,-0.0001440146,22.275,0,1.485,-5.136187E-05,22.275,0
1.4859,-0.0001000381,22.2885,0,1.4859,-6.109713E-05,22.2885,0
1.4868,-4.061952E-05,22.302,0,1.4868,-0.0001080949,22.302,0
1.4877,-1.443504E-05,22.3155,0,1.4877,-0.0001114519,22.3155,0
1.4886,-5.975433E-05,22.329,0,1.4886,-5.807584E-05,22.329,0
1.4895,-6.814679E-05,22.3425,0,1.4895,-6.6804E-05,22.3425,0
1.4904,2.786297E-05,22.356,0,1.4904,-7.888914E-05,22.356,0
1.4913,8.89601E-05,22.3695,0,1.4913,-1.947051E-05,22.3695,0
1.4922,0.0001957122,22.383,0,1.4922,-5.035477E-06,22.383,0
1.4931,0.0001822843,22.3965,0,1.4931,-4.196231E-05,22.3965,0
1.494,0.0001232013,22.41,0,1.494,4.53193E-05,22.41,0
1.4949,7.385367E-06,22.4235,0,1.4949,6.54612E-05,22.4235,0
1.4958,-0.0001366293,22.437,0,1.4958,4.800488E-05,22.437,0
1.4967,-8.157473E-05,22.4505,0,1.4967,5.975433E-05,22.4505,0
1.4976,-4.867628E-05,22.464,0,1.4976,3.793393E-05,22.464,0
1.4985,7.620356E-05,22.4775,0,1.4985,-1.913481E-05,22.4775,0
1.4994,1.577783E-05,22.491,0,1.4994,-5.236896E-05,22.491,0
1.5003,4.095522E-05,22.5045,0,1.5003,-8.325322E-05,22.5045,0
1.5012,7.486076E-05,22.518,0,1.5012,-6.478981E-05,22.518,0
1.5021,-2.24918E-05,22.5315,0,1.5021,-5.505455E-05,22.5315,0
1.503,-9.869535E-05,22.545,0,1.503,-9.533837E-05,22.545,0
1.5039,-0.0001420005,22.5585,0,1.5039,-0.0001272297,22.5585,0
1.5048,-5.136187E-05,22.572,0,1.5048,-9.097429E-05,22.572,0
1.5057,7.754635E-05,22.5855,0,1.5057,-8.224613E-05,22.5855,0
1.5066,0.0001597925,22.599,0,1.5066,-0.000144686,22.599,0
1.5075,0.0001164874,22.6125,0,1.5075,-0.0001473716,22.6125,0
1.5084,-8.392462E-06,22.626,0,1.5084,-0.0001262226,22.626,0
1.5093,-4.666209E-05,22.6395,0,1.5093,-0.0001208515,22.6395,0
1.5102,-0.0001070878,22.653,0,1.5102,-6.982528E-05,22.653,0
1.5111,-0.0001151446,22.6665,0,1.5111,-1.007095E-05,22.6665,0
1.512,-0.0001527428,22.68,0,1.512,6.713969E-07,22.68,0
1.5129,-0.0001433432,22.6935,0,1.5129,5.169757E-05,22.6935,0
1.5138,3.121996E-05,22.707,0,1.5138,0.0001044022,22.707,0
1.5147,4.263371E-05,22.7205,0,1.5147,0.0002406958,22.7205,0
1.5156,1.745632E-05,22.734,0,1.5156,0.0001906767,22.734,0
1.5165,7.049668E-06,22.7475,0,1.5165,5.874724E-05,22.7475,0
1.5174,8.291753E-05,22.761,0,1.5174,-1.007095E-06,22.761,0
1.5183,4.733349E-05,22.7745,0,1.5183,2.1149E-05,22.7745,0
1.5192,-5.807584E-05,22.788,0,1.5192,-1.947051E-05,22.788,0
1.5201,-3.726253E-05,22.8015,0,1.5201,-6.54612E-05,22.8015,0
1.521,2.920577E-05,22.815,0,1.521,-8.157473E-05,22.815,0
1.5219,6.54612E-05,22.8285,0,1.5219,-7.217517E-05,22.8285,0
1.5228,2.24918E-05,22.842,0,1.5228,-0.0001010452,22.842,0
1.5237,0.0001379721,22.8555,0,1.5237,-7.620356E-05,22.8555,0
1.5246,0.0001393149,22.869,0,1.5246,8.258183E-05,22.869,0
1.5255,-7.754635E-05,22.8825,0,1.5255,0.0001067521,22.8825,0
1.5264,-0.0001809415,22.896,0,1.5264,2.014191E-06,22.896,0
1.5273,-6.814679E-05,22.9095,0,1.5273,-1.980621E-05,22.9095,0
1.5282,-9.164568E-05,22.923,0,1.5282,6.076142E-05,22.923,0
1.5291,-0.0001440146,22.9365,0,1.5291,9.466698E-05,22.9365,0
1.53,-7.855344E-05,22.95,0,1.53,5.471885E-05,22.95,0
1.5309,-2.450599E-05,22.9635,0,1.5309,-1.275654E-05,22.9635,0
1.5318,-1.779202E-05,22.977,0,1.5318,2.24918E-05,22.977,0
1.5327,3.356985E-07,22.9905,0,1.5327,-2.1149E-05,22.9905,0
1.5336,1.980621E-05,23.004,0,1.5336,-0.0001245441,23.004,0
1.5345,6.713969E-06,23.0175,0,1.5345,-4.46479E-05,23.0175,0
1.5354,4.733349E-05,23.031,0,1.5354,-3.659113E-05,23.031,0
1.5363,8.69459E-05,23.0445,0,1.5363,-8.224613E-05,23.0445,0
1.5372,-3.692683E-05,23.058,0,1.5372,-3.088426E-05,23.058,0
1.5381,-4.028382E-06,23.0715,0,1.5381,-3.457694E-05,23.0715,0
1.539,-1.107805E-05,23.085,0,1.539,-9.164568E-05,23.085,0
1.5399,-1.477073E-05,23.0985,0,1.5399,-9.063859E-05,23.0985,0
1.5408,9.433127E-05,23.112,0,1.5408,-0.0001013809,23.112,0
1.5417,0.0002306248,23.1255,0,1.5417,-9.097429E-05,23.1255,0
1.5426,0.0001248798,23.139,0,1.5426,-5.270466E-05,23.139,0
1.5435,1.040665E-05,23.1525,0,1.5435,-1.913481E-05,23.1525,0
1.5444,-0.0001131304,23.166,0,1.5444,-1.947051E-05,23.166,0
1.5453,-0.0001550927,23.1795,0,1.5453,9.063859E-06,23.1795,0
1.5462,-0.0002265965,23.193,0,1.5462,9.063859E-06,23.193,0
1.5471,-4.39765E-05,23.2065,0,1.5471,-9.198138E-05,23.2065,0
1.548,0.0001285725,23.22,0,1.548,2.752728E-05,23.22,0
1.5489,0.0001218585,23.2335,0,1.5489,6.344701E-05,23.2335,0
1.5498,3.457694E-05,23.247,0,1.5498,-3.021286E-06,23.247,0
1.5507,-2.652018E-05,23.2605,0,1.5507,-2.383459E-05,23.2605,0
1.5516,-5.572595E-05,23.274,0,1.5516,-2.584878E-05,23.274,0
1.5525,-2.014191E-05,23.2875,0,1.5525,-1.242084E-05,23.2875,0
1.5534,2.081331E-05,23.301,0,1.5534,-3.927672E-05,23.301,0
1.5543,1.712062E-05,23.3145,0,1.5543,-0.000109102,23.3145,0
1.5552,4.800488E-05,23.328,0,1.5552,-5.438316E-05,23.328,0
1.5561,7.351797E-05,23.3415,0,1.5561,-4.061952E-05,23.3415,0
1.557,0.0001017166,23.355,0,1.557,-6.344701E-05,23.355,0
1.5579,3.927672E-05,23.3685,0,1.5579,7.721065E-06,23.3685,0
1.5588,-3.021286E-06,23.382,0,1.5588,0.0001594568,23.382,0
1.5597,-4.834058E-05,23.3955,0,1.5597,0.0001077592,23.3955,0
1.5606,-0.0001171588,23.409,0,1.5606,-3.558404E-05,23.409,0
1.5615,-0.0001527428,23.4225,0,1.5615,4.263371E-05,23.4225,0
1.5624,-0.0001571069,23.436,0,1.5624,4.129091E-05,23.436,0
1.5633,-8.86244E-05,23.4495,0,1.5633,-0.0001426719,23.4495,0
1.5642,4.263371E-05,23.463,0,1.5642,-0.0002880293,23.463,0
1.5651,0.0001211871,23.4765,0,1.5651,-0.0002809796,23.4765,0
1.566,0.0001305867,23.49,0,1.566,-0.0002668803,23.49,0
1.5669,6.411841E-05,23.5035,0,1.5669,-0.0001842985,23.5035,0
1.5678,-3.021286E-06,23.517,0,1.5678,7.721065E-06,23.517,0
1.5687,-7.049668E-06,23.5305,0,1.5687,0.0003826963,23.5305,0
1.5696,-0.0001215228,23.544,0,1.5696,0.000470985,23.544,0
1.5705,-7.016098E-05,23.5575,0,1.5705,0.0002333104,23.5575,0
1.5714,0.0001430075,23.571,0,1.5714,0.0001221943,23.571,0
1.5723,0.0001755703,23.5845,0,1.5723,0.0001080949,23.5845,0
1.5732,0.0001668421,23.598,0,1.5732,3.021286E-05,23.598,0
1.5741,0.0001701991,23.6115,0,1.5741,-6.51255E-05,23.6115,0
1.575,6.378271E-06,23.625,0,1.575,-7.150377E-05,23.625,0
1.5759,-7.016098E-05,23.6385,0,1.5759,-4.061952E-05,23.6385,0
1.5768,-0.0002131685,23.652,0,1.5768,-0.0001383078,23.652,0
1.5777,-0.0002641947,23.6655,0,1.5777,-0.0001916838,23.6655,0
1.5786,-0.0003756466,23.679,0,1.5786,-9.231708E-05,23.679,0
1.5795,-0.000252781,23.6925,0,1.5795,-5.941863E-05,23.6925,0
1.5804,-7.620356E-05,23.706,0,1.5804,-5.001907E-05,23.706,0
1.5813,-0.0001010452,23.7195,0,1.5813,1.712062E-05,23.7195,0
1.5822,-2.719158E-05,23.733,0,1.5822,0.0001920195,23.733,0
1.5831,3.894102E-05,23.7465,0,1.5831,0.0001809415,23.7465,0
1.584,-5.706874E-06,23.76,0,1.584,1.208515E-05,23.76,0
1.5849,-3.793393E-05,23.7735,0,1.5849,-6.009003E-05,23.7735,0
1.5858,1.678492E-06,23.787,0,1.5858,1.309224E-05,23.787,0
1.5867,4.46479E-05,23.8005,0,1.5867,6.378271E-06,23.8005,0
1.5876,0.0001460288,23.814,0,1.5876,-4.699779E-05,23.814,0
1.5885,0.0003649043,23.8275,0,1.5885,2.349889E-06,23.8275,0
1.5894,0.0002467384,23.841,0,1.5894,-2.618448E-05,23.841,0
1.5903,2.517739E-05,23.8545,0,1.5903,-0.0001094377,23.8545,0
1.5912,-6.344701E-05,23.868,0,1.5912,-0.0001003738,23.868,0
1.5921,-0.0001406577,23.8815,0,1.5921,-7.016098E-05,23.8815,0
1.593,-0.000327306,23.895,0,1.593,-9.600977E-05,23.895,0
1.5939,-8.627451E-05,23.9085,0,1.5939,-8.157473E-05,23.9085,0
1.5948,6.109713E-05,23.922,0,1.5948,-0.0001329366,23.922,0
1.5957,-3.558404E-05,23.9355,0,1.5957,-8.96315E-05,23.9355,0
1.5966,2.316319E-05,23.949,0,1.5966,-8.157473E-05,23.949,0
1.5975,-2.517739E-05,23.9625,0,1.5975,-0.0001211871,23.9625,0
1.5984,6.713969E-07,23.976,0,1.5984,-0.0001359579,23.976,0
1.5993,3.558404E-05,23.9895,0,1.5993,-0.0001033951,23.9895,0
1.6002,2.652018E-05,24.003,0,1.6002,-0.0001077592,24.003,0
1.6011,6.378271E-05,24.0165,0,1.6011,-0.0001010452,24.0165,0
1.602,6.210422E-05,24.03,0,1.602,7.150377E-05,24.03,0
1.6029,8.157473E-05,24.0435,0,1.6029,0.0001654994,24.0435,0
1.6038,3.189136E-05,24.057,0,1.6038,0.0001252155,24.057,0
1.6047,6.411841E-05,24.0705,0,1.6047,6.277562E-05,24.0705,0
1.6056,0.0002574807,24.084,0,1.6056,5.035477E-05,24.084,0
1.6065,0.0003320058,24.0975,0,1.6065,7.721065E-06,24.0975,0
1.6074,0.0001420005,24.111,0,1.6074,-6.51255E-05,24.111,0
1.6083,-3.860533E-05,24.1245,0,1.6083,-0.0001453574,24.1245,0
1.6092,-8.325322E-05,24.138,0,1.6092,-9.433127E-05,24.138,0
1.6101,-0.0002601663,24.1515,0,1.6101,2.719158E-05,24.1515,0
1.611,-0.0005461815,24.165,0,1.611,6.143282E-05,24.165,0
1.6119,-0.0003118639,24.1785,0,1.6119,1.879912E-05,24.1785,0
1.6128,-0.0001104448,24.192,0,1.6128,9.869535E-05,24.192,0
1.6137,-1.879912E-05,24.2055,0,1.6137,0.0001221943,24.2055,0
1.6146,8.392462E-06,24.219,0,1.6146,2.719158E-05,24.219,0
1.6155,-1.980621E-05,24.2325,0,1.6155,-3.659113E-05,24.2325,0
1.6164,-1.712062E-05,24.246,0,1.6164,-0.0001722133,24.246,0
1.6173,1.174945E-05,24.2595,0,1.6173,-0.0002507668,24.2595,0
1.6182,8.661021E-05,24.273,0,1.6182,-0.0001755703,24.273,0
1.6191,0.0001540856,24.2865,0,1.6191,-8.090334E-05,24.2865,0
1.62,7.553216E-05,24.3,0,1.62,4.666209E-05,24.3,0
1.6209,0.0001534142,24.3135,0,1.6209,0.0002628519,24.3135,0
1.6218,0.0001604639,24.327,0,1.6218,0.0001829557,24.327,0
1.6227,-7.385367E-06,24.3405,0,1.6227,3.591974E-05,24.3405,0
1.6236,-8.89601E-05,24.354,0,1.6236,6.109713E-05,24.354,0
1.6245,-0.0001292439,24.3675,0,1.6245,6.378271E-06,24.3675,0
1.6254,-0.0002044404,24.381,0,1.6254,-4.800488E-05,24.381,0
1.6263,-0.0001618067,24.3945,0,1.6263,3.356985E-05,24.3945,0
1.6272,1.443504E-05,24.408,0,1.6272,-7.049668E-06,24.408,0
1.6281,8.92958E-05,24.4215,0,1.6281,-5.606165E-05,24.4215,0
1.629,1.846342E-05,24.435,0,1.629,-2.652018E-05,24.435,0
1.6299,4.666209E-05,24.4485,0,1.6299,-4.39765E-05,24.4485,0
1.6308,7.486076E-05,24.462,0,1.6308,-0.0001030594,24.462,0
1.6317,8.392462E-06,24.4755,0,1.6317,-7.989624E-05,24.4755,0
1.6326,-0.0001198444,24.489,0,1.6326,-2.047761E-05,24.489,0
1.6335,-0.0001822843,24.5025,0,1.6335,-6.61326E-05,24.5025,0
1.6344,-1.309224E-05,24.516,0,1.6344,-4.33051E-05,24.516,0
1.6353,3.189136E-05,24.5295,0,1.6353,-0.0001232013,24.5295,0
1.6362,-3.558404E-05,24.543,0,1.6362,-0.0001211871,24.543,0
1.6371,-2.584878E-05,24.5565,0,1.6371,-5.572595E-05,24.5565,0
1.638,1.409934E-05,24.57,0,1.638,-0.0001346151,24.57,0
1.6389,1.510643E-05,24.5835,0,1.6389,-0.0001527428,24.5835,0
1.6398,4.39765E-05,24.597,0,1.6398,-6.243992E-05,24.597,0
1.6407,0.0001326009,24.6105,0,1.6407,-0.0001188373,24.6105,0
1.6416,0.0001033951,24.624,0,1.6416,-0.0002151827,24.624,0
1.6425,0.0001409934,24.6375,0,1.6425,-4.766919E-05,24.6375,0
1.6434,0.0001708705,24.651,0,1.6434,0.0001010452,24.651,0
1.6443,8.761731E-05,24.6645,0,1.6443,0.0002366674,24.6645,0
1.6452,2.18204E-05,24.678,0,1.6452,0.0003481193,24.678,0
1.6461,-0.0001661708,24.6915,0,1.6461,0.0002024262,24.6915,0
1.647,-7.922484E-05,24.705,0,1.647,0.0001389792,24.705,0
1.6479,3.021286E-05,24.7185,0,1.6479,4.229801E-05,24.7185,0
1.6488,0.000126894,24.732,0,1.6488,-9.164568E-05,24.732,0
1.6497,0.000115816,24.7455,0,1.6497,-2.853437E-05,24.7455,0
1.6506,7.150377E-05,24.759,0,1.6506,6.344701E-05,24.759,0
1.6515,-5.371176E-05,24.7725,0,1.6515,4.061952E-05,24.7725,0
1.6524,-0.0002175326,24.786,0,1.6524,0.0001574426,24.786,0
1.6533,-0.0003581903,24.7995,0,1.6533,0.0002856794,24.7995,0
1.6542,-5.001907E-05,24.813,0,1.6542,0.0001121233,24.813,0
1.6551,0.0001426719,24.8265,0,1.6551,-0.000115816,24.8265,0
1.656,8.023193E-05,24.84,0,1.656,-9.668116E-05,24.84,0
1.6569,2.316319E-05,24.8535,0,1.6569,-0.0001151446,24.8535,0
1.6578,-0.0001836271,24.867,0,1.6578,-0.0001920195,24.867,0
1.6587,-0.0003111925,24.8805,0,1.6587,-0.0001947051,24.8805,0
1.6596,-0.0001131304,24.894,0,1.6596,-9.298848E-05,24.894,0
1.6605,3.961242E-05,24.9075,0,1.6605,4.46479E-05,24.9075,0
1.6614,1.477073E-05,24.921,0,1.6614,-2.14847E-05,24.921,0
1.6623,4.43122E-05,24.9345,0,1.6623,-0.0001017166,24.9345,0
1.6632,0.0001275654,24.948,0,1.6632,5.035477E-06,24.948,0
1.6641,5.471885E-05,24.9615,0,1.6641,1.577783E-05,24.9615,0
1.665,-5.102617E-05,24.975,0,1.665,-5.136187E-05,24.975,0
1.6659,-0.0001238727,24.9885,0,1.6659,2.349889E-06,24.9885,0
1.6668,-4.33051E-05,25.002,0,1.6668,4.39765E-05,25.002,0
1.6677,3.692683E-06,25.0155,0,1.6677,-2.417029E-05,25.0155,0
1.6686,3.356985E-07,25.029,0,1.6686,-0.0001245441,25.029,0
1.6695,5.874724E-05,25.0425,0,1.6695,-8.090334E-05,25.0425,0
1.6704,9.802396E-05,25.056,0,1.6704,-7.452507E-05,25.056,0
1.6713,0.0001540856,25.0695,0,1.6713,-0.0001708705,25.0695,0
1.6722,0.0001822843,25.083,0,1.6722,-0.0001312581,25.083,0
1.6731,-1.510643E-05,25.0965,0,1.6731,-5.740444E-05,25.0965,0
1.674,-0.0001356222,25.11,0,1.674,-0.0001114519,25.11,0
1.6749,-0.0001510643,25.1235,0,1.6749,-0.0001205158,25.1235,0
1.6758,-0.0001644923,25.137,0,1.6758,-8.325322E-05,25.137,0
1.6767,-0.0001896696,25.1505,0,1.6767,-2.21561E-05,25.1505,0
1.6776,-0.000102388,25.164,0,1.6776,-4.095522E-05,25.164,0
1.6785,-5.136187E-05,25.1775,0,1.6785,-4.867628E-05,25.1775,0
1.6794,3.121996E-05,25.191,0,1.6794,7.486076E-05,25.191,0
1.6803,0.0001816129,25.2045,0,1.6803,0.0002171969,25.2045,0
1.6812,0.0002742657,25.218,0,1.6812,0.0001426719,25.218,0
1.6821,0.0003017929,25.2315,0,1.6821,-6.713969E-06,25.2315,0
1.683,0.0002333104,25.245,0,1.683,7.721065E-06,25.245,0
1.6839,0.0002034333,25.2585,0,1.6839,5.874724E-05,25.2585,0
1.6848,3.591974E-05,25.272,0,1.6848,-3.927672E-05,25.272,0
1.6857,-0.0002487526,25.2855,0,1.6857,-7.821774E-05,25.2855,0
1.6866,-0.0004182803,25.299,0,1.6866,-4.39765E-05,25.299,0
1.6875,-0.00024271,25.3125,0,1.6875,-4.33051E-05,25.3125,0
1.6884,-0.000239353,25.326,0,1.6884,-6.6804E-05,25.326,0
1.6893,-0.0002245823,25.3395,0,1.6893,-9.768826E-05,25.3395,0
1.6902,-1.007095E-06,25.353,0,1.6902,2.014191E-06,25.353,0
1.6911,0.0002185397,25.3665,0,1.6911,1.510643E-05,25.3665,0
1.692,0.0001299153,25.38,0,1.692,-3.860533E-05,25.38,0
1.6929,0.0001070878,25.3935,0,1.6929,-8.69459E-05,25.3935,0
1.6938,4.599069E-05,25.407,0,1.6938,2.383459E-05,25.407,0
1.6947,-8.627451E-05,25.4205,0,1.6947,7.620356E-05,25.4205,0
1.6956,-0.0001362936,25.434,0,1.6956,3.088426E-05,25.434,0
1.6965,-3.961242E-05,25.4475,0,1.6965,3.424125E-05,25.4475,0
1.6974,-2.987716E-05,25.461,0,1.6974,5.304036E-05,25.461,0
1.6983,3.088426E-05,25.4745,0,1.6983,3.692683E-06,25.4745,0
1.6992,-6.713969E-07,25.488,0,1.6992,-4.968337E-05,25.488,0
1.7001,-7.855344E-05,25.5015,0,1.7001,-0.0001413291,25.5015,0
1.701,-6.176852E-05,25.515,0,1.701,-0.0002675517,25.515,0
1.7019,4.229801E-05,25.5285,0,1.7019,-0.0003293202,25.5285,0
1.7028,0.0001279011,25.542,0,1.7028,-0.000291722,25.542,0
1.7037,0.000158114,25.5555,0,1.7037,-0.0001151446,25.5555,0
1.7046,0.0001413291,25.569,0,1.7046,0.0001070878,25.569,0
1.7055,-4.129091E-05,25.5825,0,1.7055,0.0001816129,25.5825,0
1.7064,-0.0001510643,25.596,0,1.7064,0.0002406958,25.596,0
1.7073,-0.000144686,25.6095,0,1.7073,0.000372961,25.6095,0
1.7082,-0.0001161517,25.623,0,1.7082,0.0001950408,25.623,0
1.7091,-6.61326E-05,25.6365,0,1.7091,9.567407E-05,25.6365,0
1.71,-1.544213E-05,25.65,0,1.71,0.0001225299,25.65,0
1.7109,9.835965E-05,25.6635,0,1.7109,4.028382E-05,25.6635,0
1.7118,7.687495E-05,25.677,0,1.7118,-0.0001047379,25.677,0
1.7127,0.0001467002,25.6905,0,1.7127,-0.0002020905,25.6905,0
1.7136,0.0003414054,25.704,0,1.7136,-0.0001413291,25.704,0
1.7145,0.0003299916,25.7175,0,1.7145,-8.89601E-05,25.7175,0
1.7154,-5.102617E-05,25.731,0,1.7154,-0.0001104448,25.731,0
1.7163,-0.0003716182,25.7445,0,1.7163,-8.761731E-05,25.7445,0
1.7172,-0.0002232395,25.758,0,1.7172,3.356985E-07,25.758,0
1.7181,-0.0003011215,25.7715,0,1.7181,2.014191E-05,25.7715,0
1.719,-0.0002299535,25.785,0,1.719,-5.841154E-05,25.785,0
1.7199,-5.673304E-05,25.7985,0,1.7199,-0.0001238727,25.7985,0
1.7208,-6.210422E-05,25.812,0,1.7208,-5.807584E-05,25.812,0
1.7217,-0.0001292439,25.8255,0,1.7217,-6.51255E-05,25.8255,0
1.7226,-2.014191E-06,25.839,0,1.7226,-0.000123537,25.839,0
1.7235,9.399558E-06,25.8525,0,1.7235,8.761731E-05,25.8525,0
1.7244,2.014191E-05,25.866,0,1.7244,0.0002581521,25.866,0
1.7253,0.0001084306,25.8795,0,1.7253,2.28275E-05,25.8795,0
1.7262,7.486076E-05,25.893,0,1.7262,-0.0002101472,25.893,0
1.7271,7.721065E-06,25.9065,0,1.7271,-0.0001762417,25.9065,0
1.728,5.236896E-05,25.92,0,1.728,-3.256275E-05,25.92,0
1.7289,0.0001339437,25.9335,0,1.7289,6.915389E-05,25.9335,0
1.7298,0.0001148089,25.947,0,1.7298,0.0001822843,25.947,0
1.7307,8.82887E-05,25.9605,0,1.7307,0.0002762798,25.9605,0
1.7316,5.841154E-05,25.974,0,1.7316,0.0001883268,25.974,0
1.7325,3.625543E-05,25.9875,0,1.7325,9.768826E-05,25.9875,0
1.7334,-0.0001188373,26.001,0,1.7334,1.779202E-05,26.001,0
1.7343,-2.920577E-05,26.0145,0,1.7343,2.752728E-05,26.0145,0
1.7352,0.0001238727,26.028,0,1.7352,-1.510643E-05,26.028,0
1.7361,0.0001591211,26.0415,0,1.7361,-0.0001007095,26.0415,0
1.737,0.0002225681,26.055,0,1.737,-4.196231E-05,26.055,0
1.7379,0.0002081331,26.0685,0,1.7379,-2.383459E-05,26.0685,0
1.7388,0.0001252155,26.082,0,1.7388,-0.0001279011,26.082,0
1.7397,-6.848249E-05,26.0955,0,1.7397,-9.500267E-05,26.0955,0
1.7406,-0.0002440528,26.109,0,1.7406,2.652018E-05,26.109,0
1.7415,-0.0002625162,26.1225,0,1.7415,3.558404E-05,26.1225,0
1.7424,-0.0002625162,26.136,0,1.7424,2.383459E-05,26.136,0
1.7433,-0.0001668421,26.1495,0,1.7433,-0.0001634852,26.1495,0
1.7442,-0.0001376364,26.163,0,1.7442,-0.0001913481,26.163,0
1.7451,-0.0001453574,26.1765,0,1.7451,-0.0002161898,26.1765,0
1.746,-1.947051E-05,26.19,0,1.746,-0.0002601663,26.19,0
1.7469,7.284657E-05,26.2035,0,1.7469,-0.0002380102,26.2035,0
1.7478,0.0001456931,26.217,0,1.7478,-0.000109102,26.217,0
1.7487,0.0001607996,26.2305,0,1.7487,-3.793393E-05,26.2305,0
1.7496,8.224613E-05,26.244,0,1.7496,1.712062E-05,26.244,0
1.7505,-2.18204E-05,26.2575,0,1.7505,0.0001326009,26.2575,0
1.7514,-0.0001467002,26.271,0,1.7514,0.0001436789,26.271,0
1.7523,-7.083238E-05,26.2845,0,1.7523,0.0002168612,26.2845,0
1.7532,-9.768826E-05,26.298,0,1.7532,0.0002104829,26.298,0
1.7541,-5.807584E-05,26.3115,0,1.7541,0.0001245441,26.3115,0
1.755,5.337606E-05,26.325,0,1.755,-3.356985E-07,26.325,0
1.7559,-1.510643E-05,26.3385,0,1.7559,-6.478981E-05,26.3385,0
1.7568,-4.33051E-05,26.352,0,1.7568,-7.855344E-05,26.352,0
1.7577,-8.996719E-05,26.3655,0,1.7577,-6.311131E-05,26.3655,0
1.7586,1.040665E-05,26.379,0,1.7586,-5.606165E-05,26.379,0
1.7595,4.800488E-05,26.3925,0,1.7595,-4.699779E-05,26.3925,0
1.7604,5.740444E-05,26.406,0,1.7604,2.1149E-05,26.406,0
1.7613,4.632639E-05,26.4195,0,1.7613,6.009003E-05,26.4195,0
1.7622,6.210422E-05,26.433,0,1.7622,9.063859E-06,26.433,0
1.7631,0.0001728847,26.4465,0,1.7631,-0.0001174945,26.4465,0
1.764,0.0001654994,26.46,0,1.764,-8.291753E-05,26.46,0
1.7649,0.0001305867,26.4735,0,1.7649,-9.500267E-05,26.4735,0
1.7658,0.0001574426,26.487,0,1.7658,-0.0001493858,26.487,0
1.7667,0.0001007095,26.5005,0,1.7667,-5.740444E-05,26.5005,0
1.7676,5.136187E-05,26.514,0,1.7676,-1.477073E-05,26.514,0
1.7685,0.0001514,26.5275,0,1.7685,-2.920577E-05,26.5275,0
1.7694,1.477073E-05,26.541,0,1.7694,3.860533E-05,26.541,0
1.7703,-0.0003806821,26.5545,0,1.7703,-4.666209E-05,26.5545,0
1.7712,-0.0003971313,26.568,0,1.7712,-0.0001426719,26.568,0
1.7721,-0.0002688945,26.5815,0,1.7721,-0.0001181659,26.5815,0
1.773,-0.0001886625,26.595,0,1.773,-0.0001218585,26.595,0
1.7739,4.699779E-06,26.6085,0,1.7739,-6.848249E-05,26.6085,0
1.7748,0.0001138018,26.622,0,1.7748,5.136187E-05,26.622,0
1.7757,0.0001789273,26.6355,0,1.7757,5.136187E-05,26.6355,0
1.7766,0.0001701991,26.649,0,1.7766,-4.867628E-05,26.649,0
1.7775,6.210422E-05,26.6625,0,1.7775,-6.478981E-05,26.6625,0
1.7784,-0.0001544213,26.676,0,1.7784,-3.625543E-05,26.676,0
1.7793,-0.0001295796,26.6895,0,1.7793,2.349889E-06,26.6895,0
1.7802,-0.0001910124,26.703,0,1.7802,8.291753E-05,26.703,0
1.7811,-0.0001631495,26.7165,0,1.7811,0.0002138399,26.7165,0
1.782,-2.21561E-05,26.73,0,1.782,0.0002138399,26.73,0
1.7829,0.0001272297,26.7435,0,1.7829,0.0001383078,26.7435,0
1.7838,4.39765E-05,26.757,0,1.7838,5.035477E-05,26.757,0
1.7847,-7.217517E-05,26.7705,0,1.7847,3.356985E-05,26.7705,0
1.7856,-0.0001477073,26.784,0,1.7856,-1.745632E-05,26.784,0
1.7865,-9.936675E-05,26.7975,0,1.7865,-9.701686E-05,26.7975,0
1.7874,-9.634547E-05,26.811,0,1.7874,-0.0001386435,26.811,0
1.7883,1.242084E-05,26.8245,0,1.7883,-0.0002531167,26.8245,0
1.7892,9.298848E-05,26.838,0,1.7892,-0.0003837034,26.838,0
1.7901,0.0001097734,26.8515,0,1.7901,-0.0003323415,26.8515,0
1.791,8.493171E-05,26.865,0,1.791,-0.0001292439,26.865,0
1.7919,7.418937E-05,26.8785,0,1.7919,5.874724E-05,26.8785,0
1.7928,1.040665E-05,26.892,0,1.7928,0.0002507668,26.892,0
1.7937,-4.061952E-05,26.9055,0,1.7937,0.0003531548,26.9055,0
1.7946,-7.217517E-05,26.919,0,1.7946,0.0001916838,26.919,0
1.7955,8.056763E-06,26.9325,0,1.7955,0.0001010452,26.9325,0
1.7964,5.941863E-05,26.946,0,1.7964,3.927672E-05,26.946,0
1.7973,-1.678492E-06,26.9595,0,1.7973,-1.040665E-05,26.9595,0
1.7982,0.0001550927,26.973,0,1.7982,2.987716E-05,26.973,0
1.7991,0.0002735943,26.9865,0,1.7991,-1.174945E-05,26.9865,0
1.8,0.0001527428,27,0,1.8,-0.0001265583,27,0
1.8009,0.0001688563,27.0135,0,1.8009,-0.0001604639,27.0135,0
1.8018,3.961242E-05,27.027,0,1.8018,-0.0001185016,27.027,0
1.8027,-0.0002309606,27.0405,0,1.8027,-0.0001040665,27.0405,0
1.8036,-8.090334E-05,27.054,0,1.8036,-8.426032E-05,27.054,0
1.8045,-0.0001050736,27.0675,0,1.8045,7.083238E-05,27.0675,0
1.8054,-0.0001544213,27.081,0,1.8054,8.761731E-05,27.081,0
1.8063,-0.000221561,27.0945,0,1.8063,-9.600977E-05,27.0945,0
1.8072,-0.0001769131,27.108,0,1.8072,-0.0001567712,27.108,0
1.8081,-0.0002400244,27.1215,0,1.8081,-0.0001671778,27.1215,0
1.809,-5.740444E-05,27.135,0,1.809,-8.560311E-05,27.135,0
1.8099,5.236896E-05,27.1485,0,1.8099,-4.733349E-05,27.1485,0
1.8108,4.129091E-05,27.162,0,1.8108,-0.0001225299,27.162,0
1.8117,4.632639E-05,27.1755,0,1.8117,1.007095E-06,27.1755,0
1.8126,0.0001497215,27.189,0,1.8126,0.0001242084,27.189,0
1.8135,0.0001634852,27.2025,0,1.8135,9.768826E-05,27.2025,0
1.8144,5.471885E-05,27.216,0,1.8144,-8.258183E-05,27.216,0
1.8153,-9.097429E-05,27.2295,0,1.8153,-0.0001923552,27.2295,0
1.8162,-7.821774E-05,27.243,0,1.8162,-0.0002276036,27.243,0
1.8171,1.913481E-05,27.2565,0,1.8171,-0.0002880293,27.2565,0
1.818,-3.726253E-05,27.27,0,1.818,-0.0002339818,27.27,0
1.8189,-8.291753E-05,27.2835,0,1.8189,-4.028382E-06,27.2835,0
1.8198,8.96315E-05,27.297,0,1.8198,0.0001769131,27.297,0
1.8207,0.0001829557,27.3105,0,1.8207,0.000372961,27.3105,0
1.8216,6.109713E-05,27.324,0,1.8216,0.0004948195,27.324,0
1.8225,2.920577E-05,27.3375,0,1.8225,0.0004528573,27.3375,0
1.8234,6.814679E-05,27.351,0,1.8234,0.0003219348,27.351,0
1.8243,6.881819E-05,27.3645,0,1.8243,0.0001174945,27.3645,0
1.8252,0.0001688563,27.378,0,1.8252,4.36408E-06,27.378,0
1.8261,0.0001104448,27.3915,0,1.8261,-0.0001785916,27.3915,0
1.827,4.36408E-06,27.405,0,1.827,-0.0002625162,27.405,0
1.8279,-4.196231E-05,27.4185,0,1.8279,-0.0002558022,27.4185,0
1.8288,-9.433127E-05,27.432,0,1.8288,-0.000144686,27.432,0
1.8297,-6.814679E-05,27.4455,0,1.8297,-0.0001000381,27.4455,0
1.8306,-7.351797E-05,27.459,0,1.8306,1.846342E-05,27.459,0
1.8315,-7.788205E-05,27.4725,0,1.8315,0.0001279011,27.4725,0
1.8324,-1.678492E-06,27.486,0,1.8324,4.129091E-05,27.486,0
1.8333,-0.0001238727,27.4995,0,1.8333,-0.0001131304,27.4995,0
1.8342,6.378271E-06,27.513,0,1.8342,-0.0001221943,27.513,0
