X[s],"Trigno IM sensor 3: EMG 3 (IM)",X[s],"Trigno IM sensor 3: Mag 3.Z (IM)",X[s],"Trigno IM sensor 4: EMG 4 (IM)",X[s],"Trigno IM sensor 4: Mag 4.Z (IM)"
0.000000,-0.000130251,0.000000,46,0.000000,0.0002665446,0.000000,101
0.0009,-5.035477E-05,0.0135,49,0.0009,0.0003736324,0.0135,104
0.0018,9.735256E-05,0.027,47,0.0018,0.0003578546,0.027,98
0.0027,8.157473E-05,0.0405,48,0.0027,0.0002051118,0.0405,102
0.0036,-5.941863E-05,0.054,48,0.0036,8.761731E-05,0.054,100
0.0045,-8.89601E-05,0.0675,48,0.0045,6.076142E-05,0.0675,103
0.0054,-4.867628E-05,0.081,47,0.0054,3.256275E-05,0.081,99
0.0063,6.042573E-06,0.0945,47,0.0063,-2.047761E-05,0.0945,102
0.0072,4.733349E-05,0.108,48,0.0072,-8.82887E-05,0.108,98
0.0081,-1.913481E-05,0.1215,49,0.0081,-0.0001554284,0.1215,100
0.009000001,-9.600977E-05,0.135,47,0.009000001,-0.0001198444,0.135,104
0.0099,-5.136187E-05,0.1485,48,0.0099,-6.78111E-05,0.1485,102
0.0108,2.652018E-05,0.162,47,0.0108,-0.0001117876,0.162,99
0.0117,-0.0001208515,0.1755,47,0.0117,-0.000278294,0.1755,101
0.0126,-0.0001198444,0.189,47,0.0126,-0.00033402,0.189,99
0.0135,6.478981E-05,0.2025,46,0.0135,-0.0001896696,0.2025,100
0.0144,0.0001681849,0.216,47,0.0144,-0.0001520714,0.216,100
0.0153,9.164568E-05,0.2295,47,0.0153,-9.869535E-05,0.2295,98
0.0162,-1.678492E-05,0.243,46,0.0162,6.076142E-05,0.243,98
0.0171,-0.0001332723,0.2565,48,0.0171,0.0001900053,0.2565,101
0.018,-5.874724E-05,0.27,47,0.018,0.0001393149,0.27,99
0.0189,6.143282E-05,0.2835,47,0.0189,4.733349E-05,0.2835,101
0.0198,4.43122E-05,0.297,47,0.0198,7.855344E-05,0.297,106
0.0207,1.107805E-05,0.3105,48,0.0207,0.0001134661,0.3105,99
0.0216,2.24918E-05,0.324,47,0.0216,2.819867E-05,0.324,100
0.0225,2.987716E-05,0.3375,48,0.0225,-5.035477E-06,0.3375,99
0.0234,-5.035477E-06,0.351,49,0.0234,1.812772E-05,0.351,99
0.0243,-4.49836E-05,0.3645,48,0.0243,1.947051E-05,0.3645,98
0.0252,-0.0001514,0.378,49,0.0252,1.980621E-05,0.378,101
0.0261,-0.0001876554,0.3915,46,0.0261,-9.399558E-06,0.3915,100
0.027,-0.0001507286,0.405,48,0.027,-3.457694E-05,0.405,101
0.0279,-1.510643E-05,0.4185,48,0.0279,-3.994812E-05,0.4185,103
0.0288,-5.270466E-05,0.432,47,0.0288,-0.0001040665,0.432,101
0.0297,-0.0001675135,0.4455,48,0.0297,-0.000190341,0.4455,100
0.0306,-0.0001010452,0.459,48,0.0306,-0.0001668421,0.459,102
0.0315,-9.399557E-05,0.4725,48,0.0315,-0.0001923552,0.4725,103
0.0324,-2.652018E-05,0.486,48,0.0324,4.061952E-05,0.486,103
0.0333,-3.793393E-05,0.4995,48,0.0333,0.0002138399,0.4995,101
0.0342,2.484169E-05,0.513,48,0.0342,0.0001651637,0.513,97
0.0351,7.687495E-05,0.5265,47,0.0351,1.242084E-05,0.5265,101
0.036,3.189136E-05,0.54,47,0.036,-1.678492E-06,0.54,100
0.0369,4.39765E-05,0.5535,46,0.0369,5.035477E-06,0.5535,102
0.0378,4.599069E-05,0.567,46,0.0378,7.788205E-05,0.567,103
0.0387,1.577783E-05,0.5805,46,0.0387,7.888914E-05,0.5805,99
0.0396,8.090334E-05,0.594,46,0.0396,-4.766919E-05,0.594,102
0.0405,0.0001205158,0.6075,47,0.0405,-0.0001362936,0.6075,98
0.0414,7.418937E-05,0.621,46,0.0414,-0.0001839628,0.621,102
0.0423,1.510643E-05,0.6345,45,0.0423,-0.000207126,0.6345,100
0.0432,1.980621E-05,0.648,46,0.0432,-0.0001366293,0.648,98
0.0441,3.424125E-05,0.6615,48,0.0441,-9.701686E-05,0.6615,104
0.045,2.014191E-05,0.675,47,0.045,-0.0003132067,0.675,103
0.0459,-1.510643E-05,0.6885,46,0.0459,-0.000415259,0.6885,103
0.0468,-8.627451E-05,0.702,45,0.0468,-0.0003091783,0.702,101
0.0477,-1.342794E-05,0.7155,45,0.0477,-0.0001097734,0.7155,103
0.0486,9.768826E-05,0.729,44,0.0486,0.0001842985,0.729,103
0.0495,4.53193E-05,0.7425,44,0.0495,0.0003669185,0.7425,98
0.0504,0.0001003738,0.756,45,0.0504,0.000460914,0.756,100
0.0513,2.383459E-05,0.7695,46,0.0513,0.0003863889,0.7695,100
0.0522,-0.0001292439,0.783,45,0.0522,0.0003048142,0.783,102
0.0531,-0.0001218585,0.7965,45,0.0531,0.0001631495,0.7965,101
0.054,0.0001205158,0.81,46,0.054,7.351797E-05,0.81,102
0.0549,0.0001319295,0.8235,46,0.0549,7.620356E-05,0.8235,100
0.0558,3.121996E-05,0.837,46,0.0558,-1.980621E-05,0.837,99
0.0567,-4.39765E-05,0.8505,46,0.0567,-5.270466E-05,0.8505,100
0.0576,-5.001907E-05,0.864,46,0.0576,-4.599069E-05,0.864,103
0.0585,-7.284657E-05,0.8775,45,0.0585,-2.853437E-05,0.8775,102
0.0594,-3.256275E-05,0.891,45,0.0594,-4.028382E-05,0.891,101
0.0603,-1.309224E-05,0.9045,44,0.0603,-2.584878E-05,0.9045,103
0.0612,-6.6804E-05,0.918,46,0.0612,-5.505455E-05,0.918,101
0.0621,-9.903105E-05,0.9315,45,0.0621,-9.936675E-05,0.9315,101
0.063,-0.0002245823,0.945,46,0.063,-0.0001248798,0.945,102
0.0639,-0.0002457313,0.9585,45,0.0639,-9.970245E-05,0.9585,102
0.0648,-3.659113E-05,0.972,45,0.0648,-0.0001070878,0.972,102
0.0657,0.000249424,0.9855,45,0.0657,-4.39765E-05,0.9855,100
0.0666,0.0002903792,0.999,46,0.0666,6.143282E-05,0.999,101
0.0675,0.0002386816,1.0125,46,0.0675,1.846342E-05,1.0125,103
0.0684,0.0001319295,1.026,47,0.0684,3.558404E-05,1.026,104
0.0693,8.493171E-05,1.0395,46,0.0693,-4.666209E-05,1.0395,98
0.0702,-1.678492E-06,1.053,45,0.0702,-6.143282E-05,1.053,103
0.0711,-4.666209E-05,1.0665,46,0.0711,-6.378271E-06,1.0665,103
0.072,-4.39765E-05,1.08,45,0.072,7.217517E-05,1.08,100
0.0729,-5.270466E-05,1.0935,44,0.0729,3.121996E-05,1.0935,103
0.07380001,-5.270466E-05,1.107,45,0.07380001,1.779202E-05,1.107,103
0.07470001,-4.36408E-06,1.1205,45,0.07470001,-8.291753E-05,1.1205,102
0.0756,-1.644922E-05,1.134,46,0.0756,-0.0001661708,1.134,99
0.0765,-5.337606E-05,1.1475,46,0.0765,-9.567407E-05,1.1475,101
0.0774,-5.035477E-05,1.161,46,0.0774,-3.390555E-05,1.161,103
0.0783,3.457694E-05,1.1745,47,0.0783,-3.021286E-05,1.1745,100
0.0792,7.150377E-05,1.188,48,0.0792,-0.0001332723,1.188,101
0.0801,-1.242084E-05,1.2015,48,0.0801,-0.0001379721,1.2015,97
0.081,1.443504E-05,1.215,48,0.081,-0.0001138018,1.215,100
0.0819,1.980621E-05,1.2285,48,0.0819,-0.0001631495,1.2285,100
0.0828,-1.913481E-05,1.242,48,0.0828,-0.0001426719,1.242,101
0.0837,-7.351797E-05,1.2555,48,0.0837,1.443504E-05,1.2555,100
0.0846,-0.0001795987,1.269,48,0.0846,7.586786E-05,1.269,101
0.0855,-9.265278E-05,1.2825,48,0.0855,-1.275654E-05,1.2825,101
0.0864,5.035477E-06,1.296,49,0.0864,-4.263371E-05,1.296,97
0.0873,-3.256275E-05,1.3095,49,0.0873,5.337606E-05,1.3095,97
0.0882,2.1149E-05,1.323,49,0.0882,-2.014191E-06,1.323,101
0.0891,0.0001279011,1.3365,50,0.0891,-7.016098E-05,1.3365,100
0.09,8.795301E-05,1.35,50,0.09,8.157473E-05,1.35,99
0.0909,9.433127E-05,1.3635,48,0.0909,-7.116808E-05,1.3635,102
0.0918,1.812772E-05,1.377,49,0.0918,-0.0003501335,1.377,100
0.0927,-0.0001144732,1.3905,49,0.0927,-0.0003316701,1.3905,102
0.0936,-0.0001349508,1.404,49,0.0936,-0.0002903792,1.404,102
0.09450001,-0.0001238727,1.4175,49,0.09450001,-0.0002410315,1.4175,104
0.09540001,2.014191E-06,1.431,51,0.09540001,6.478981E-05,1.431,101
0.09630001,0.0001641566,1.4445,50,0.09630001,0.0004414435,1.4445,101
0.0972,0.0002171969,1.458,51,0.0972,0.0007892271,1.458,103
0.0981,7.721065E-06,1.4715,50,0.0981,0.0006972458,1.4715,103
0.099,-1.913481E-05,1.485,50,0.099,0.0003430838,1.485,98
0.0999,6.076142E-05,1.4985,48,0.0999,0.0001675135,1.4985,100
0.1008,6.378271E-06,1.512,49,0.1008,5.438316E-05,1.512,102
0.1017,-3.860533E-05,1.5255,49,0.1017,-6.478981E-05,1.5255,107
0.1026,3.189136E-05,1.539,49,0.1026,-0.0001272297,1.539,102
0.1035,-1.913481E-05,1.5525,49,0.1035,-0.0001279011,1.5525,105
0.1044,-7.888914E-05,1.566,48,0.1044,-0.0001802701,1.566,106
0.1053,-4.129091E-05,1.5795,50,0.1053,-0.0002218967,1.5795,106
0.1062,2.719158E-05,1.593,48,0.1062,-0.0002067903,1.593,104
0.1071,-8.291753E-05,1.6065,47,0.1071,-0.0001299153,1.6065,103
0.108,-0.0001346151,1.62,46,0.108,-6.210422E-05,1.62,106
0.1089,-3.323415E-05,1.6335,46,0.1089,-2.047761E-05,1.6335,102
0.1098,7.754635E-05,1.647,48,0.1098,1.980621E-05,1.647,104
0.1107,-6.948959E-05,1.6605,47,0.1107,-0.0001641566,1.6605,104
0.1116,-0.0001634852,1.674,46,0.1116,-0.0002514381,1.674,104
0.1125,-6.277562E-05,1.6875,47,0.1125,-0.0001883268,1.6875,103
0.1134,1.477073E-05,1.701,47,0.1134,-0.0001668421,1.701,102
0.1143,1.846342E-05,1.7145,47,0.1143,-4.33051E-05,1.7145,104
0.1152,-1.007095E-05,1.728,46,0.1152,1.879912E-05,1.728,105
0.1161,-4.061952E-05,1.7415,47,0.1161,-5.270466E-05,1.7415,103
0.117,-0.0001389792,1.755,46,0.117,-6.009003E-05,1.755,107
0.1179,-0.0001420005,1.7685,47,0.1179,-6.042573E-05,1.7685,103
0.1188,-9.567407E-05,1.782,48,0.1188,-8.92958E-05,1.782,104
0.1197,-9.600977E-05,1.7955,47,0.1197,-0.0001554284,1.7955,106
0.1206,-2.349889E-05,1.809,46,0.1206,-0.0001047379,1.809,103
0.1215,3.659113E-05,1.8225,45,0.1215,-4.061952E-05,1.8225,103
0.1224,4.229801E-05,1.836,45,0.1224,-7.318227E-05,1.836,104
0.1233,3.726253E-05,1.8495,46,0.1233,-6.54612E-05,1.8495,103
0.1242,2.1149E-05,1.863,45,0.1242,2.853437E-05,1.863,106
0.1251,3.189136E-05,1.8765,45,0.1251,4.129091E-05,1.8765,103
0.126,5.606165E-05,1.89,45,0.126,2.920577E-05,1.89,106
0.1269,5.606165E-05,1.9035,45,0.1269,5.807584E-05,1.9035,103
0.1278,-3.289845E-05,1.917,45,0.1278,0.0001339437,1.917,105
0.1287,6.713969E-07,1.9305,45,0.1287,7.049668E-05,1.9305,103
0.1296,2.517739E-05,1.944,45,0.1296,-4.229801E-05,1.944,101
0.1305,5.572595E-05,1.9575,45,0.1305,-3.591974E-05,1.9575,106
0.1314,7.351797E-05,1.971,45,0.1314,-1.913481E-05,1.971,102
0.1323,0.0001010452,1.9845,46,0.1323,-1.309224E-05,1.9845,105
0.1332,-5.438316E-05,1.998,44,0.1332,0.0001003738,1.998,103
0.1341,-0.0002077974,2.0115,44,0.1341,9.533837E-05,2.0115,107
0.135,-0.0001775845,2.025,43,0.135,-2.853437E-05,2.025,103
0.1359,-0.0001406577,2.0385,43,0.1359,2.786297E-05,2.0385,104
0.1368,-9.164568E-05,2.052,44,0.1368,-0.0001027237,2.052,106
0.1377,-5.001907E-05,2.0655,45,0.1377,-0.0001279011,2.0655,105
0.1386,7.351797E-05,2.079,44,0.1386,-0.0001080949,2.079,106
0.1395,0.0001366293,2.0925,43,0.1395,-0.0001544213,2.0925,104
0.1404,0.0001094377,2.106,43,0.1404,-0.0001460288,2.106,104
0.1413,9.768826E-05,2.1195,43,0.1413,-0.0001228656,2.1195,105
0.1422,2.652018E-05,2.133,44,0.1422,-0.0001111162,2.133,100
0.1431,3.323415E-05,2.1465,43,0.1431,4.162661E-05,2.1465,103
0.144,-9.063859E-06,2.16,44,0.144,0.0001715419,2.16,102
0.1449,2.1149E-05,2.1735,43,0.1449,0.0001930266,2.1735,104
0.1458,3.726253E-05,2.187,44,0.1458,0.0001762417,2.187,103
0.1467,-4.666209E-05,2.2005,44,0.1467,0.0002118257,2.2005,101
0.1476,-3.826963E-05,2.214,44,0.1476,0.000105745,2.214,102
0.1485,-1.846342E-05,2.2275,45,0.1485,-3.356985E-05,2.2275,103
0.1494,3.793393E-05,2.241,43,0.1494,-5.874724E-05,2.241,101
0.1503,8.82887E-05,2.2545,45,0.1503,2.987716E-05,2.2545,105
0.1512,4.666209E-05,2.268,43,0.1512,0.0001218585,2.268,104
0.1521,3.692683E-05,2.2815,43,0.1521,0.000109102,2.2815,102
0.153,1.309224E-05,2.295,43,0.153,1.040665E-05,2.295,104
0.1539,-5.941863E-05,2.3085,44,0.1539,-5.035477E-06,2.3085,107
0.1548,-0.0001722133,2.322,41,0.1548,-1.309224E-05,2.322,101
0.1557,-0.0001514,2.3355,43,0.1557,-1.712062E-05,2.3355,102
0.1566,-1.644922E-05,2.349,42,0.1566,-8.996719E-05,2.349,103
0.1575,-6.378271E-06,2.3625,45,0.1575,-6.71397E-05,2.3625,104
0.1584,0.000144686,2.376,43,0.1584,-6.311131E-05,2.376,103
0.1593,4.800488E-05,2.3895,42,0.1593,-0.0001453574,2.3895,106
0.1602,-0.0001027237,2.403,44,0.1602,-8.426032E-05,2.403,103
0.1611,-4.46479E-05,2.4165,42,0.1611,1.208515E-05,2.4165,104
0.162,0.0001675135,2.43,44,0.162,5.807584E-05,2.43,103
0.1629,0.0001960479,2.4435,44,0.1629,5.673304E-05,2.4435,103
0.1638,0.0002084688,2.457,43,0.1638,-6.78111E-05,2.457,103
0.1647,0.0001285725,2.4705,42,0.1647,-2.819867E-05,2.4705,106
0.1656,-2.719158E-05,2.484,45,0.1656,-9.567407E-05,2.484,104
0.1665,-0.000105745,2.4975,43,0.1665,-6.713969E-07,2.4975,105
0.1674,-7.251087E-05,2.511,44,0.1674,0.0001658351,2.511,107
0.1683,-0.0001117876,2.5245,43,0.1683,0.000285008,2.5245,106
0.1692,-0.0001208515,2.538,43,0.1692,0.0003148852,2.538,107
0.1701,-5.841154E-05,2.5515,43,0.1701,0.000197055,2.5515,103
0.171,-0.0001221943,2.565,45,0.171,0.0001107805,2.565,107
0.1719,-9.936675E-05,2.5785,44,0.1719,3.659113E-05,2.5785,104
0.1728,-3.390555E-05,2.592,44,0.1728,-8.526741E-05,2.592,107
0.1737,-2.18204E-05,2.6055,45,0.1737,-0.0001114519,2.6055,106
0.1746,-7.486076E-05,2.619,43,0.1746,-0.0001373007,2.619,102
0.1755,-3.994812E-05,2.6325,43,0.1755,-0.0001698634,2.6325,103
0.1764,1.040665E-05,2.646,44,0.1764,-0.0001319295,2.646,105
0.1773,-1.745632E-05,2.6595,43,0.1773,-0.0001275654,2.6595,104
0.1782,-2.920577E-05,2.673,43,0.1782,-5.807584E-05,2.673,100
0.1791,-5.035477E-06,2.6865,43,0.1791,5.035477E-06,2.6865,104
0.18,3.994812E-05,2.7,42,0.18,-7.083238E-05,2.7,103
0.1809,8.426032E-05,2.7135,44,0.1809,-0.0001349508,2.7135,102
0.1818,8.392462E-06,2.727,43,0.1818,-0.0001386435,2.727,106
0.1827,3.189136E-05,2.7405,43,0.1827,-0.0001131304,2.7405,101
0.1836,5.606165E-05,2.754,44,0.1836,-5.505455E-05,2.754,102
0.1845,3.726253E-05,2.7675,44,0.1845,5.337606E-05,2.7675,103
0.1854,5.606165E-05,2.781,45,0.1854,-3.121996E-05,2.781,103
0.1863,6.009003E-05,2.7945,43,0.1863,-0.0001164874,2.7945,104
0.1872,1.644922E-05,2.808,43,0.1872,-0.0001225299,2.808,102
0.1881,-7.049668E-06,2.8215,43,0.1881,-0.0001185016,2.8215,102
0.189,-3.860533E-05,2.835,44,0.189,-9.298848E-05,2.835,104
0.1899,-4.867628E-05,2.8485,43,0.1899,-6.64683E-05,2.8485,107
0.1908,-5.035477E-06,2.862,45,0.1908,-4.565499E-05,2.862,103
0.1917,-3.424125E-05,2.8755,44,0.1917,-2.047761E-05,2.8755,107
0.1926,-3.994812E-05,2.889,44,0.1926,-7.016098E-05,2.889,105
0.1935,3.356985E-05,2.9025,45,0.1935,-0.0001003738,2.9025,105
0.1944,-4.599069E-05,2.916,45,0.1944,-0.0001735561,2.916,107
0.1953,-7.620356E-05,2.9295,42,0.1953,-8.89601E-05,2.9295,104
0.1962,2.349889E-06,2.943,44,0.1962,-0.0001030594,2.943,103
0.1971,-3.021286E-06,2.9565,45,0.1971,-0.0001994049,2.9565,101
0.198,-8.526741E-05,2.97,44,0.198,-0.0001722133,2.97,102
0.1989,-4.36408E-05,2.9835,42,0.1989,-7.989624E-05,2.9835,101
0.1998,-2.316319E-05,2.997,44,0.1998,-4.46479E-05,2.997,101
0.2007,-6.344701E-05,3.0105,44,0.2007,-9.970245E-05,3.0105,100
0.2016,-9.399557E-05,3.024,0,0.2016,-4.229801E-05,3.024,0
0.2025,5.337606E-05,3.0375,0,0.2025,5.069047E-05,3.0375,0
0.2034,8.123904E-05,3.051,0,0.2034,5.841154E-05,3.051,0
0.2043,6.948959E-05,3.0645,0,0.2043,2.047761E-05,3.0645,0
0.2052,7.116808E-05,3.078,0,0.2052,6.143282E-05,3.078,0
0.2061,4.49836E-05,3.0915,0,0.2061,8.996719E-05,3.0915,0
0.207,2.349889E-06,3.105,0,0.207,2.786297E-05,3.105,0
0.2079,4.39765E-05,3.1185,0,0.2079,-1.678492E-05,3.1185,0
0.2088,-3.189136E-05,3.132,0,0.2088,6.277562E-05,3.132,0
0.2097,-5.136187E-05,3.1455,0,0.2097,8.96315E-05,3.1455,0
0.2106,3.054856E-05,3.159,0,0.2106,0.0001037308,3.159,0
0.2115,-1.040665E-05,3.1725,0,0.2115,0.0001413291,3.1725,0
0.2124,5.236896E-05,3.186,0,0.2124,3.021286E-06,3.186,0
0.2133,4.53193E-05,3.1995,0,0.2133,-0.0002024262,3.1995,0
0.2142,-7.956054E-05,3.213,0,0.2142,-0.0002239109,3.213,0
0.2151,-7.418937E-05,3.2265,0,0.2151,-4.599069E-05,3.2265,0
0.216,-5.941863E-05,3.24,0,0.216,-1.107805E-05,3.24,0
0.2169,-7.855344E-05,3.2535,0,0.2169,5.304036E-05,3.2535,0
0.2178,-7.922484E-05,3.267,0,0.2178,0.0001507286,3.267,0
0.2187,-0.0001044022,3.2805,0,0.2187,5.941863E-05,3.2805,0
0.2196,-3.625543E-05,3.294,0,0.2196,3.390555E-05,3.294,0
0.2205,-1.712062E-05,3.3075,0,0.2205,-5.706874E-06,3.3075,0
0.2214,-2.18204E-05,3.321,0,0.2214,2.450599E-05,3.321,0
0.2223,2.954147E-05,3.3345,0,0.2223,0.0001500572,3.3345,0
0.2232,4.263371E-05,3.348,0,0.2232,0.000203769,3.348,0
0.2241,9.500267E-05,3.3615,0,0.2241,9.433127E-05,3.3615,0
0.225,2.618448E-05,3.375,0,0.225,-0.0001285725,3.375,0
0.2259,2.316319E-05,3.3885,0,0.2259,-0.0001681849,3.3885,0
0.2268,7.486076E-05,3.402,0,0.2268,-0.0001701991,3.402,0
0.2277,1.712062E-05,3.4155,0,0.2277,-0.000249424,3.4155,0
0.2286,1.510643E-05,3.429,0,0.2286,-0.000186984,3.429,0
0.2295,4.632639E-05,3.4425,0,0.2295,0.0002702373,3.4425,0
0.2304,1.577783E-05,3.456,0,0.2304,0.0004595712,3.456,0
0.2313,5.270466E-05,3.4695,0,0.2313,0.0001789273,3.4695,0
0.2322,-1.712062E-05,3.483,0,0.2322,6.948959E-05,3.483,0
0.2331,-0.0001054093,3.4965,0,0.2331,2.417029E-05,3.4965,0
0.234,-6.814679E-05,3.51,0,0.234,-8.69459E-05,3.51,0
0.2349,-8.82887E-05,3.5235,0,0.2349,-0.0001148089,3.5235,0
0.2358,-9.567407E-05,3.537,0,0.2358,-3.524834E-05,3.537,0
0.2367,-3.390555E-05,3.5505,0,0.2367,-6.948959E-05,3.5505,0
0.2376,6.54612E-05,3.564,0,0.2376,-7.586786E-05,3.564,0
0.2385,7.721065E-06,3.5775,0,0.2385,-2.18204E-05,3.5775,0
0.2394,-2.719158E-05,3.591,0,0.2394,0,3.591,0
0.2403,-2.685588E-05,3.6045,0,0.2403,-7.284657E-05,3.6045,0
0.2412,-0.0001080949,3.618,0,0.2412,-7.620356E-05,3.618,0
0.2421,-0.0002312963,3.6315,0,0.2421,-0.0001104448,3.6315,0
0.243,-9.600977E-05,3.645,0,0.243,-0.0001665064,3.645,0
0.2439,-6.74754E-05,3.6585,0,0.2439,-0.0001675135,3.6585,0
0.2448,-8.627451E-05,3.672,0,0.2448,-0.0002017548,3.672,0
0.2457,-0.0001453574,3.6855,0,0.2457,-0.000154757,3.6855,0
0.2466,-0.0001040665,3.699,0,0.2466,-8.358892E-05,3.699,0
0.2475,-1.040665E-05,3.7125,0,0.2475,1.712062E-05,3.7125,0
0.2484,8.258183E-05,3.726,0,0.2484,6.076142E-05,3.726,0
0.2493,0.0001634852,3.7395,0,0.2493,0.0001386435,3.7395,0
0.2502,0.0001326009,3.753,0,0.2502,0.0002188754,3.753,0
0.2511,0.0001520714,3.7665,0,0.2511,0.0001151446,3.7665,0
0.252,-1.779202E-05,3.78,0,0.252,8.258183E-05,3.78,0
0.2529,-0.0001530785,3.7935,0,0.2529,-1.678492E-05,3.7935,0
0.2538,-0.0001033951,3.807,0,0.2538,-9.970245E-05,3.807,0
0.2547,-3.927672E-05,3.8205,0,0.2547,-6.61326E-05,3.8205,0
0.2556,-1.141375E-05,3.834,0,0.2556,-6.78111E-05,3.834,0
0.2565,5.102617E-05,3.8475,0,0.2565,-5.606165E-05,3.8475,0
0.2574,5.606165E-05,3.861,0,0.2574,-1.812772E-05,3.861,0
0.2583,-1.040665E-05,3.8745,0,0.2583,0,3.8745,0
0.2592,-1.309224E-05,3.888,0,0.2592,4.901198E-05,3.888,0
0.2601,-4.599069E-05,3.9015,0,0.2601,3.256275E-05,3.9015,0
0.261,4.599069E-05,3.915,0,0.261,-2.1149E-05,3.915,0
0.2619,-1.879912E-05,3.9285,0,0.2619,-8.86244E-05,3.9285,0
0.2628,-0.0001131304,3.942,0,0.2628,-4.263371E-05,3.942,0
0.2637,-3.189136E-05,3.9555,0,0.2637,-5.807584E-05,3.9555,0
0.2646,4.263371E-05,3.969,0,0.2646,-9.567407E-05,3.969,0
0.2655,-3.793393E-05,3.9825,0,0.2655,-2.853437E-05,3.9825,0
0.2664,7.083238E-05,3.996,0,0.2664,-0.0001044022,3.996,0
0.2673,0.0001440146,4.0095,0,0.2673,-0.000197055,4.0095,0
0.2682,0.000109102,4.023,0,0.2682,-0.0001755703,4.023,0
0.2691,0.0001574426,4.0365,0,0.2691,-0.0001134661,4.0365,0
0.27,0.0001822843,4.05,0,0.27,-0.0001574426,4.05,0
0.2709,0.0001631495,4.0635,0,0.2709,-0.000154757,4.0635,0
0.2718,7.922484E-05,4.077,0,0.2718,-5.001907E-05,4.077,0
0.2727,3.256275E-05,4.0905,0,0.2727,-2.987716E-05,4.0905,0
0.2736,2.349889E-05,4.104,0,0.2736,1.443504E-05,4.104,0
0.2745,-1.342794E-06,4.1175,0,0.2745,0.0001426719,4.1175,0
0.2754,5.035477E-06,4.131,0,0.2754,7.418937E-05,4.131,0
0.2763,-5.471885E-05,4.1445,0,0.2763,3.424125E-05,4.1445,0
0.2772,-6.042573E-06,4.158,0,0.2772,-8.627451E-05,4.158,0
0.2781,4.196231E-05,4.1715,0,0.2781,-0.0002101472,4.1715,0
0.279,-3.491264E-05,4.185,0,0.279,-8.92958E-05,4.185,0
0.2799,-3.323415E-05,4.1985,0,0.2799,-0.000112459,4.1985,0
0.2808,-4.129091E-05,4.212,0,0.2808,-0.0001144732,4.212,0
0.2817,-0.0001134661,4.2255,0,0.2817,-3.524834E-05,4.2255,0
0.2826,-0.0001490501,4.239,0,0.2826,7.150377E-05,4.239,0
0.2835,-6.74754E-05,4.2525,0,0.2835,0.0001916838,4.2525,0
0.2844,-8.157473E-05,4.266,0,0.2844,0.0001889983,4.266,0
0.2853,-0.000109102,4.2795,0,0.2853,0.0001050736,4.2795,0
0.2862,-2.349889E-06,4.293,0,0.2862,0.000274937,4.293,0
0.2871,0.0001742275,4.3065,0,0.2871,0.0003195849,4.3065,0
0.288,1.980621E-05,4.32,0,0.288,0.0001876554,4.32,0
0.2889,2.349889E-06,4.3335,0,0.2889,8.560311E-05,4.3335,0
0.2898,0.0001258869,4.347,0,0.2898,7.351797E-05,4.347,0
0.2907,0.0001292439,4.3605,0,0.2907,2.450599E-05,4.3605,0
0.2916,7.486076E-05,4.374,0,0.2916,-4.901198E-05,4.374,0
0.2925,2.349889E-06,4.3875,0,0.2925,4.061952E-05,4.3875,0
0.2934,5.673304E-05,4.401,0,0.2934,9.634547E-05,4.401,0
0.2943,0.0001285725,4.4145,0,0.2943,2.417029E-05,4.4145,0
0.2952,4.46479E-05,4.428,0,0.2952,1.107805E-05,4.428,0
0.2961,3.457694E-05,4.4415,0,0.2961,8.493171E-05,4.4415,0
0.297,3.457694E-05,4.455,0,0.297,9.500267E-05,4.455,0
0.2979,-6.378271E-06,4.4685,0,0.2979,-9.768826E-05,4.4685,0
0.2988,8.728161E-06,4.482,0,0.2988,-0.0002051118,4.482,0
0.2997,-9.063859E-05,4.4955,0,0.2997,-0.000189334,4.4955,0
0.3006,-0.0001198444,4.509,0,0.3006,-0.0001782559,4.509,0
0.3015,-3.323415E-05,4.5225,0,0.3015,-0.0001913481,4.5225,0
0.3024,-6.478981E-05,4.536,0,0.3024,-0.0002370031,4.536,0
0.3033,-0.0001359579,4.5495,0,0.3033,2.752728E-05,4.5495,0
0.3042,-5.941863E-05,4.563,0,0.3042,0.000323949,4.563,0
0.3051,-1.007095E-06,4.5765,0,0.3051,0.0003058213,4.5765,0
0.306,-2.719158E-05,4.59,0,0.306,0.0002487526,4.59,0
0.3069,-6.478981E-05,4.6035,0,0.3069,0.0001661708,4.6035,0
0.3078,2.618448E-05,4.617,0,0.3078,1.208515E-05,4.617,0
0.3087,-6.51255E-05,4.6305,0,0.3087,-4.968337E-05,4.6305,0
0.3096,-0.0001040665,4.644,0,0.3096,-2.14847E-05,4.644,0
0.3105,-1.242084E-05,4.6575,0,0.3105,5.706874E-06,4.6575,0
0.3114,-4.33051E-05,4.671,0,0.3114,-7.620356E-05,4.671,0
0.3123,-0.0001215228,4.6845,0,0.3123,-0.0001030594,4.6845,0
0.3132,-0.0001215228,4.698,0,0.3132,-0.0001218585,4.698,0
0.3141,-0.0002286107,4.7115,0,0.3141,-0.0001440146,4.7115,0
0.315,-9.030289E-05,4.725,0,0.315,-0.0001849699,4.725,0
0.3159,9.802396E-05,4.7385,0,0.3159,-0.0002151827,4.7385,0
0.3168,2.584878E-05,4.752,0,0.3168,-0.0001305867,4.752,0
0.3177,4.33051E-05,4.7655,0,0.3177,-0.0001097734,4.7655,0
0.3186,0.0001148089,4.779,0,0.3186,-0.000154757,4.779,0
0.3195,-1.342794E-05,4.7925,0,0.3195,1.309224E-05,4.7925,0
0.3204,-2.819867E-05,4.806,0,0.3204,-1.309224E-05,4.806,0
0.3213,5.035477E-06,4.8195,0,0.3213,-0.0002131685,4.8195,0
0.3222,-2.920577E-05,4.833,0,0.3222,-0.0003474479,4.833,0
0.3231,-8.69459E-05,4.8465,0,0.3231,-0.0002581521,4.8465,0
0.324,1.208515E-05,4.86,0,0.324,-0.0002017548,4.86,0
0.3249,1.174945E-05,4.8735,0,0.3249,-4.766919E-05,4.8735,0
0.3258,-2.383459E-05,4.887,0,0.3258,-6.71397E-05,4.887,0
0.3267,-8.795301E-05,4.9005,0,0.3267,-0.0001104448,4.9005,0
0.3276,-0.0001537499,4.914,0,0.3276,3.121996E-05,4.914,0
0.3285,-0.0002205539,4.9275,0,0.3285,0.000164828,4.9275,0
0.3294,-8.426032E-05,4.941,0,0.3294,0.0001473716,4.941,0
0.3303,-2.584878E-05,4.9545,0,0.3303,0.0001997406,4.9545,0
0.3312,2.417029E-05,4.968,0,0.3312,0.000207126,4.968,0
0.3321,-4.36408E-06,4.9815,0,0.3321,0.000218204,4.9815,0
0.333,-5.941863E-05,4.995,0,0.333,0.0001514,4.995,0
0.3339,-1.309224E-05,5.0085,0,0.3339,9.332418E-05,5.0085,0
0.3348,7.721065E-05,5.022,0,0.3348,-3.356985E-06,5.022,0
0.3357,0.000119173,5.0355,0,0.3357,-0.0001003738,5.0355,0
0.3366,2.383459E-05,5.049,0,0.3366,-6.74754E-05,5.049,0
0.3375,-7.855344E-05,5.0625,0,0.3375,6.713969E-07,5.0625,0
0.3384,-0.0001554284,5.076,0,0.3384,-7.385367E-06,5.076,0
0.3393,3.692683E-06,5.0895,0,0.3393,-1.712062E-05,5.0895,0
0.3402,-7.888914E-05,5.103,0,0.3402,-6.6804E-05,5.103,0
0.3411,-6.009003E-05,5.1165,0,0.3411,-6.61326E-05,5.1165,0
0.342,6.009003E-05,5.13,0,0.342,-5.774014E-05,5.13,0
0.3429,0.0002759442,5.1435,0,0.3429,0.0001524071,5.1435,0
0.3438,0.0002047761,5.157,0,0.3438,0.000203769,5.157,0
0.3447,-1.678492E-06,5.1705,0,0.3447,3.860533E-05,5.1705,0
0.3456,9.903105E-05,5.184,0,0.3456,-8.325322E-05,5.184,0
0.3465,9.970245E-05,5.1975,0,0.3465,-1.947051E-05,5.1975,0
0.3474,1.980621E-05,5.211,0,0.3474,-3.088426E-05,5.211,0
0.3483,4.733349E-05,5.2245,0,0.3483,-0.0002212253,5.2245,0
0.3492,2.584878E-05,5.238,0,0.3492,-0.0002702373,5.238,0
0.3501,4.196231E-05,5.2515,0,0.3501,-0.0002020905,5.2515,0
0.351,6.243992E-05,5.265,0,0.351,-0.000154757,5.265,0
0.3519,-1.342794E-06,5.2785,0,0.3519,-8.627451E-05,5.2785,0
0.3528,7.620356E-05,5.292,0,0.3528,-0.0001524071,5.292,0
0.3537,6.74754E-05,5.3055,0,0.3537,-0.0001705348,5.3055,0
0.3546,4.733349E-05,5.319,0,0.3546,-0.0002044404,5.319,0
0.3555,5.941863E-05,5.3325,0,0.3555,-0.000224918,5.3325,0
0.3564,4.39765E-05,5.346,0,0.3564,-0.0001299153,5.346,0
0.3573,1.007095E-06,5.3595,0,0.3573,-3.189136E-05,5.3595,0
0.3582,-2.450599E-05,5.373,0,0.3582,5.841154E-05,5.373,0
0.3591,5.471885E-05,5.3865,0,0.3591,0.0001947051,5.3865,0
0.36,1.007095E-06,5.4,0,0.36,0.0002450599,5.4,0
0.3609,1.174945E-05,5.4135,0,0.3609,0.0002084688,5.4135,0
0.3618,6.277562E-05,5.427,0,0.3618,9.164568E-05,5.427,0
0.3627,1.510643E-05,5.4405,0,0.3627,0.000119173,5.4405,0
0.3636,-4.229801E-05,5.454,0,0.3636,0.0001383078,5.454,0
0.3645,-2.18204E-05,5.4675,0,0.3645,7.217517E-05,5.4675,0
0.3654,-3.457694E-05,5.481,0,0.3654,1.510643E-05,5.481,0
0.3663,-3.424125E-05,5.4945,0,0.3663,-8.86244E-05,5.4945,0
0.3672,-4.867628E-05,5.508,0,0.3672,-0.0001685206,5.508,0
0.3681,-2.349889E-05,5.5215,0,0.3681,-0.0001487144,5.5215,0
0.369,9.835965E-05,5.535,0,0.369,-0.0001198444,5.535,0
0.3699,6.411841E-05,5.5485,0,0.3699,-8.69459E-05,5.5485,0
0.3708,-1.208515E-05,5.562,0,0.3708,-4.699779E-06,5.562,0
0.3717,-9.063859E-06,5.5755,0,0.3717,8.72816E-05,5.5755,0
0.3726,-1.779202E-05,5.589,0,0.3726,1.611353E-05,5.589,0
0.3735,-0.000161471,5.6025,0,0.3735,-2.18204E-05,5.6025,0
0.3744,-0.000158114,5.616,0,0.3744,-1.510643E-05,5.616,0
0.3753,-9.433127E-05,5.6295,0,0.3753,-6.915389E-05,5.6295,0
0.3762,5.975433E-05,5.643,0,0.3762,-8.392462E-06,5.643,0
0.3771,0.0001205158,5.6565,0,0.3771,4.800488E-05,5.6565,0
0.378,9.869535E-05,5.67,0,0.378,6.042573E-06,5.67,0
0.3789,6.076142E-05,5.6835,0,0.3789,-5.774014E-05,5.6835,0
0.3798,5.069047E-05,5.697,0,0.3798,-9.433127E-05,5.697,0
0.3807,-2.853437E-05,5.7105,0,0.3807,-2.014191E-06,5.7105,0
0.3816,-7.217517E-05,5.724,0,0.3816,6.277562E-05,5.724,0
0.3825,-3.927672E-05,5.7375,0,0.3825,5.270466E-05,5.7375,0
0.3834,1.275654E-05,5.751,0,0.3834,1.846342E-05,5.751,0
0.3843,-2.853437E-05,5.7645,0,0.3843,-4.53193E-05,5.7645,0
0.3852,1.242084E-05,5.778,0,0.3852,-6.143282E-05,5.778,0
0.3861,0.0001144732,5.7915,0,0.3861,-0.0001701991,5.7915,0
0.387,-3.692683E-06,5.805,0,0.387,-0.0001040665,5.805,0
0.3879,-1.577783E-05,5.8185,0,0.3879,0.000130251,5.8185,0
0.3888,-2.484169E-05,5.832,0,0.3888,0.0002135042,5.832,0
0.3897,-0.0001144732,5.8455,0,0.3897,0.0002554666,5.8455,0
0.3906,-0.0001708705,5.859,0,0.3906,0.0001876554,5.859,0
0.3915,-0.0001701991,5.8725,0,0.3915,4.43122E-05,5.8725,0
0.3924,-0.0001644923,5.886,0,0.3924,-2.014191E-05,5.886,0
0.3933,-6.74754E-05,5.8995,0,0.3933,-1.846342E-05,5.8995,0
0.3942,0.0001279011,5.913,0,0.3942,6.311131E-05,5.913,0
0.3951,0.0001305867,5.9265,0,0.3951,5.337606E-05,5.9265,0
0.396,-6.243992E-05,5.94,0,0.396,5.740444E-05,5.94,0
0.3969,-5.471885E-05,5.9535,0,0.3969,-2.081331E-05,5.9535,0
0.3978,-5.404745E-05,5.967,0,0.3978,-7.721065E-06,5.967,0
0.3987,-1.376364E-05,5.9805,0,0.3987,2.517739E-05,5.9805,0
0.3996,2.584878E-05,5.994,0,0.3996,-0.0001265583,5.994,0
0.4005,-8.224613E-05,6.0075,0,0.4005,-0.000193698,6.0075,0
0.4014,-0.0001456931,6.021,0,0.4014,-0.0002440528,6.021,0
0.4023,-0.0001550927,6.0345,0,0.4023,-0.0003360342,6.0345,0
0.4032,-0.0002239109,6.048,0,0.4032,-0.0003199207,6.048,0
0.4041,-9.298848E-05,6.0615,0,0.4041,-0.0001339437,6.0615,0
0.405,-1.947051E-05,6.075,0,0.405,0.0001483787,6.075,0
0.4059,-2.853437E-05,6.0885,0,0.4059,0.0002453956,6.0885,0
0.4068,7.754635E-05,6.102,0,0.4068,0.0001728847,6.102,0
0.4077,0.0002829938,6.1155,0,0.4077,0.0003172351,6.1155,0
0.4086,0.0003377127,6.129,0,0.4086,0.0003165637,6.129,0
0.4095,0.0001500572,6.1425,0,0.4095,7.351797E-05,6.1425,0
0.4104,5.706874E-06,6.156,0,0.4104,-6.411841E-05,6.156,0
0.4113,-7.888914E-05,6.1695,0,0.4113,-4.53193E-05,6.1695,0
0.4122,-2.920577E-05,6.183,0,0.4122,-0.0001467002,6.183,0
0.4131,-3.189136E-05,6.1965,0,0.4131,-0.0001863127,6.1965,0
0.414,-0.0001258869,6.21,0,0.414,-0.0001084306,6.21,0
0.4149,-0.0001218585,6.2235,0,0.4149,-6.076142E-05,6.2235,0
0.4158,4.028382E-05,6.237,0,0.4158,-0.0001141375,6.237,0
0.4167,5.874724E-05,6.2505,0,0.4167,-6.478981E-05,6.2505,0
0.4176,-0.0001131304,6.264,0,0.4176,7.049668E-06,6.264,0
0.4185,-0.0001399863,6.2775,0,0.4185,-0.0001185016,6.2775,0
0.4194,-0.000102388,6.291,0,0.4194,-0.0001618067,6.291,0
0.4203,1.040665E-05,6.3045,0,0.4203,-0.0001910124,6.3045,0
0.4212,3.759823E-05,6.318,0,0.4212,-0.0001641566,6.318,0
0.4221,-3.793393E-05,6.3315,0,0.4221,-0.00021149,6.3315,0
0.423,7.486076E-05,6.345,0,0.423,-0.0002098116,6.345,0
0.4239,9.433127E-05,6.3585,0,0.4239,-0.0001185016,6.3585,0
0.4248,-6.982528E-05,6.372,0,0.4248,6.042573E-06,6.372,0
0.4257,-9.735256E-06,6.3855,0,0.4257,-7.217517E-05,6.3855,0
0.4266,0.000186984,6.399,0,0.4266,-0.000312871,6.399,0
0.4275,5.874724E-05,6.4125,0,0.4275,-0.000256138,6.4125,0
0.4284,2.014191E-06,6.426,0,0.4284,-0.0003199207,6.426,0
0.4293,7.754635E-05,6.4395,0,0.4293,-0.0001748989,6.4395,0
0.4302,9.365987E-05,6.453,0,0.4302,0.0002007477,6.453,0
0.4311,2.047761E-05,6.4665,0,0.4311,0.000608957,6.4665,0
0.432,0.0001064164,6.48,0,0.432,0.0006361486,6.48,0
0.4329,0.0001111162,6.4935,0,0.4329,0.0002903792,6.4935,0
0.4338,2.517739E-05,6.507,0,0.4338,3.323415E-05,6.507,0
0.4347,-3.659113E-05,6.5205,0,0.4347,3.524834E-05,6.5205,0
0.4356,-6.109713E-05,6.534,0,0.4356,4.666209E-05,6.534,0
0.4365,-9.466698E-05,6.5475,0,0.4365,-6.881819E-05,6.5475,0
0.4374,-0.0001148089,6.561,0,0.4374,-0.0001644923,6.561,0
0.4383,-0.0001493858,6.5745,0,0.4383,-0.0001560998,6.5745,0
0.4392,-0.0001430075,6.588,0,0.4392,-0.0002447242,6.588,0
0.4401,-0.0001070878,6.6015,0,0.4401,-0.0001990692,6.6015,0
0.441,-0.0001433432,6.615,0,0.441,-6.54612E-05,6.615,0
0.4419,-0.0001010452,6.6285,0,0.4419,-2.349889E-06,6.6285,0
0.4428,-2.618448E-05,6.642,0,0.4428,0.0001299153,6.642,0
0.4437,3.289845E-05,6.6555,0,0.4437,0.0001487144,6.6555,0
0.4446,-6.042573E-06,6.669,0,0.4446,5.606165E-05,6.669,0
0.4455,-2.584878E-05,6.6825,0,0.4455,-3.927672E-05,6.6825,0
0.4464,-1.376364E-05,6.696,0,0.4464,-7.821774E-05,6.696,0
0.4473,3.323415E-05,6.7095,0,0.4473,-7.217517E-05,6.7095,0
0.4482,-1.879912E-05,6.723,0,0.4482,-2.819867E-05,6.723,0
0.4491,-3.155566E-05,6.7365,0,0.4491,6.378271E-06,6.7365,0
0.45,-2.954147E-05,6.75,0,0.45,-3.088426E-05,6.75,0
0.4509,-1.644922E-05,6.7635,0,0.4509,-0.000148043,6.7635,0
0.4518,-8.090334E-05,6.777,0,0.4518,-9.063859E-05,6.777,0
0.4527,1.309224E-05,6.7905,0,0.4527,-4.229801E-05,6.7905,0
0.4536,0.0001742275,6.804,0,0.4536,-7.351797E-05,6.804,0
0.4545,1.846342E-05,6.8175,0,0.4545,5.438316E-05,6.8175,0
0.4554,-1.309224E-05,6.831,0,0.4554,1.107805E-05,6.831,0
0.4563,3.323415E-05,6.8445,0,0.4563,-7.821774E-05,6.8445,0
0.4572,-8.627451E-05,6.858,0,0.4572,-0.0001097734,6.858,0
0.4581,-0.0001292439,6.8715,0,0.4581,-0.0002594949,6.8715,0
0.459,5.169757E-05,6.885,0,0.459,-0.0002853437,6.885,0
0.4599,8.157473E-05,6.8985,0,0.4599,-0.0002306248,6.8985,0
0.4608,0.0001326009,6.912,0,0.4608,-0.0001312581,6.912,0
0.4617,9.634547E-05,6.9255,0,0.4617,5.136187E-05,6.9255,0
0.4626,-9.533837E-05,6.939,0,0.4626,0.0001406577,6.939,0
0.4635,-4.061952E-05,6.9525,0,0.4635,0.0001285725,6.9525,0
0.4644,9.768826E-05,6.966,0,0.4644,-5.404745E-05,6.966,0
0.4653,1.376364E-05,6.9795,0,0.4653,-0.0001064164,6.9795,0
0.4662,-7.586786E-05,6.993,0,0.4662,-9.600977E-05,6.993,0
0.4671,1.040665E-05,7.0065,0,0.4671,-0.0001215228,7.0065,0
0.468,-2.383459E-05,7.02,0,0.468,0.0001319295,7.02,0
0.4689,3.692683E-06,7.0335,0,0.4689,0.0004162661,7.0335,0
0.4698,5.337606E-05,7.047,0,0.4698,0.0003524834,7.047,0
0.4707,-5.001907E-05,7.0605,0,0.4707,0.0002386816,7.0605,0
0.4716,-1.846342E-05,7.074,0,0.4716,0.0001953765,7.074,0
0.4725,3.826963E-05,7.0875,0,0.4725,0.0001080949,7.0875,0
0.4734,2.752728E-05,7.101,0,0.4734,3.491264E-05,7.101,0
0.4743,0.0001272297,7.1145,0,0.4743,8.82887E-05,7.1145,0
0.4752,0.000119173,7.128,0,0.4752,4.028382E-05,7.128,0
0.4761,-2.047761E-05,7.1415,0,0.4761,1.040665E-05,7.1415,0
0.477,-0.0001373007,7.155,0,0.477,-6.61326E-05,7.155,0
0.4779,-0.0001705348,7.1685,0,0.4779,-8.392462E-05,7.1685,0
0.4788,-0.0001738918,7.182,0,0.4788,1.342794E-06,7.182,0
0.4797,-0.0001571069,7.1955,0,0.4797,1.577783E-05,7.1955,0
0.4806,-0.0001279011,7.209,0,0.4806,-9.500267E-05,7.209,0
0.4815,-0.0001131304,7.2225,0,0.4815,4.36408E-05,7.2225,0
0.4824,-0.0001013809,7.236,0,0.4824,-5.572595E-05,7.236,0
0.4833,-5.908293E-05,7.2495,0,0.4833,-7.989624E-05,7.2495,0
0.4842,1.846342E-05,7.263,0,0.4842,6.277562E-05,7.263,0
0.4851,-7.888914E-05,7.2765,0,0.4851,3.054856E-05,7.2765,0
0.486,-7.653925E-05,7.29,0,0.486,-4.129091E-05,7.29,0
0.4869,-5.874724E-05,7.3035,0,0.4869,-9.399557E-05,7.3035,0
0.4878,1.443504E-05,7.317,0,0.4878,-6.210422E-05,7.317,0
0.4887,-2.584878E-05,7.3305,0,0.4887,1.947051E-05,7.3305,0
0.4896,-9.298848E-05,7.344,0,0.4896,6.143282E-05,7.344,0
0.4905,-5.706874E-06,7.3575,0,0.4905,5.774014E-05,7.3575,0
0.4914,-7.049668E-06,7.371,0,0.4914,1.107805E-05,7.371,0
0.4923,-7.519646E-05,7.3845,0,0.4923,-2.987716E-05,7.3845,0
0.4932,-5.841154E-05,7.398,0,0.4932,-9.365987E-05,7.398,0
0.4941,2.24918E-05,7.4115,0,0.4941,-0.0001994049,7.4115,0
0.495,9.063859E-06,7.425,0,0.495,-8.426032E-05,7.425,0
0.4959,9.567407E-05,7.4385,0,0.4959,-0.0001174945,7.4385,0
0.4968,0.0001473716,7.452,0,0.4968,3.524834E-05,7.452,0
0.4977,6.411841E-05,7.4655,0,0.4977,0.0002641947,7.4655,0
0.4986,-1.980621E-05,7.479,0,0.4986,0.0001591211,7.479,0
0.4995,2.081331E-05,7.4925,0,0.4995,-1.678492E-06,7.4925,0
0.5004,-0.0001003738,7.506,0,0.5004,-7.888914E-05,7.506,0
0.5013,-0.0001685206,7.5195,0,0.5013,-2.887007E-05,7.5195,0
0.5022,-0.0001265583,7.533,0,0.5022,-5.606165E-05,7.533,0
0.5031,-8.493171E-05,7.5465,0,0.5031,-0.0001050736,7.5465,0
0.504,-0.0001634852,7.56,0,0.504,-6.143282E-05,7.56,0
0.5049,-7.318227E-05,7.5735,0,0.5049,0.0001779202,7.5735,0
0.5058,0.0001688563,7.587,0,0.5058,0.0002265965,7.587,0
0.5067,0.0003461051,7.6005,0,0.5067,8.560311E-05,7.6005,0
0.5076,0.0004746777,7.614,0,0.5076,1.141375E-05,7.614,0
0.5085,0.0003299916,7.6275,0,0.5085,5.539025E-05,7.6275,0
0.5094,0.0002789654,7.641,0,0.5094,-8.89601E-05,7.641,0
0.5103,0.0002594949,7.6545,0,0.5103,-0.0002534524,7.6545,0
0.5112,0.0002178683,7.668,0,0.5112,-0.0002292821,7.668,0
0.5121,3.591974E-05,7.6815,0,0.5121,-0.0002326391,7.6815,0
0.513,-8.761731E-05,7.695,0,0.513,-0.0002356603,7.695,0
0.5139,-2.28275E-05,7.7085,0,0.5139,-0.0001554284,7.7085,0
0.5148,1.846342E-05,7.722,0,0.5148,-0.0001255512,7.722,0
0.5157,-3.558404E-05,7.7355,0,0.5157,-3.793393E-05,7.7355,0
0.5166,1.242084E-05,7.749,0,0.5166,-0.0001242084,7.749,0
0.5175,0.000140322,7.7625,0,0.5175,-0.000257145,7.7625,0
0.5184,6.78111E-05,7.776,0,0.5184,-0.0002574807,7.776,0
0.5193,-2.18204E-05,7.7895,0,0.5193,0,7.7895,0
0.5202,-4.162661E-05,7.803,0,0.5202,0.0001806058,7.803,0
0.5211,-4.263371E-05,7.8165,0,0.5211,7.687495E-05,7.8165,0
0.522,-0.0001097734,7.83,0,0.522,-7.251087E-05,7.83,0
0.5229,-3.793393E-05,7.8435,0,0.5229,-6.713969E-07,7.8435,0
0.5238,1.342794E-06,7.857,0,0.5238,-2.1149E-05,7.857,0
0.5247,-6.378271E-05,7.8705,0,0.5247,-0.0001607996,7.8705,0
0.5256,-3.826963E-05,7.884,0,0.5256,-0.0001413291,7.884,0
0.5265,9.970245E-05,7.8975,0,0.5265,-0.0001000381,7.8975,0
0.5274,0.0001084306,7.911,0,0.5274,-0.0001430075,7.911,0
0.5283,5.404745E-05,7.9245,0,0.5283,-0.0003783322,7.9245,0
0.5292,-2.081331E-05,7.938,0,0.5292,-0.0003081712,7.938,0
0.5301,-2.383459E-05,7.9515,0,0.5301,-7.418937E-05,7.9515,0
0.531,6.411841E-05,7.965,0,0.531,9.567407E-05,7.965,0
0.5319,-6.344701E-05,7.9785,0,0.5319,0.0001832914,7.9785,0
0.5328,-0.0002588235,7.992,0,0.5328,0.0001913481,7.992,0
0.5337,-0.0001782559,8.0055,0,0.5337,0.0001467002,8.0055,0
0.5346,-8.459602E-05,8.019,0,0.5346,-0.000144686,8.019,0
0.5355,-0.0002323034,8.0325,0,0.5355,-0.0002742657,8.0325,0
0.5364,-0.0001393149,8.046,0,0.5364,-0.0002383459,8.046,0
0.5373,1.174945E-05,8.0595,0,0.5373,-0.0002312963,8.0595,0
0.5382,-4.162661E-05,8.073,0,0.5382,-0.0001315938,8.073,0
0.5391,-0.0001389792,8.0865,0,0.5391,0.0001070878,8.0865,0
0.54,-0.0001567712,8.1,0,0.54,0.0002558022,8.1,0
0.5409,-0.0001534142,8.1135,0,0.5409,7.553216E-05,8.1135,0
0.5418,-3.256275E-05,8.127,0,0.5418,7.620356E-05,8.127,0
0.5427,6.411841E-05,8.1405,0,0.5427,0.0002286107,8.1405,0
0.5436,4.934768E-05,8.154,0,0.5436,0.0003427482,8.154,0
0.5445,3.961242E-05,8.1675,0,0.5445,0.000291722,8.1675,0
0.5454,-1.309224E-05,8.181,0,0.5454,0.0003125353,8.181,0
0.5463,0,8.1945,0,0.5463,0.0003716182,8.1945,0
0.5472,7.452507E-05,8.208,0,0.5472,0.0003098497,8.208,0
0.5481,0.0001467002,8.2215,0,0.5481,0.000193698,8.2215,0
0.549,0.0001131304,8.235,0,0.549,0.0001769131,8.235,0
0.5499,3.726253E-05,8.2485,0,0.5499,3.256275E-05,8.2485,0
0.5508,6.042573E-05,8.262,0,0.5508,1.275654E-05,8.262,0
0.5517,0.0001285725,8.2755,0,0.5517,-1.980621E-05,8.2755,0
0.5526,-4.061952E-05,8.289,0,0.5526,-5.136187E-05,8.289,0
0.5535,-5.706874E-05,8.3025,0,0.5535,-0.0001084306,8.3025,0
0.5544,-7.620356E-05,8.316,0,0.5544,-4.968337E-05,8.316,0
0.5553,-7.452507E-05,8.3295,0,0.5553,3.625543E-05,8.3295,0
0.5562,-0.0001255512,8.343,0,0.5562,-2.349889E-06,8.343,0
0.5571,-0.0002306248,8.3565,0,0.5571,6.042573E-06,8.3565,0
0.558,-0.0001205158,8.37,0,0.558,-5.941863E-05,8.37,0
0.5589,-4.162661E-05,8.3835,0,0.5589,-0.000214847,8.3835,0
0.5598,-7.284657E-05,8.397,0,0.5598,-0.0001218585,8.397,0
0.5607,7.049668E-06,8.4105,0,0.5607,-9.231708E-05,8.4105,0
0.5616,0.000235996,8.424,0,0.5616,-0.0003256275,8.424,0
0.5625,0.00033402,8.4375,0,0.5625,-0.0005287251,8.4375,0
0.5634,0.0002923934,8.451,0,0.5634,-0.0004870985,8.451,0
0.5643,0.0001205158,8.4645,0,0.5643,-0.0003843748,8.4645,0
0.5652,-1.577783E-05,8.478,0,0.5652,-0.0003165637,8.478,0
0.5661,1.107805E-05,8.4915,0,0.5661,0.0001094377,8.4915,0
0.567,-0.0001044022,8.505,0,0.567,0.0005139544,8.505,0
0.5679,-0.0003199207,8.5185,0,0.5679,0.0004750133,8.5185,0
0.5688,-0.0002336461,8.532,0,0.5688,0.0002145113,8.532,0
0.5697,-1.107805E-05,8.5455,0,0.5697,0.0002292821,8.5455,0
0.5706,-5.035477E-06,8.559,0,0.5706,0.0004172732,8.559,0
0.5715,2.652018E-05,8.5725,0,0.5715,0.0004817273,8.5725,0
0.5724,7.754635E-05,8.586,0,0.5724,0.0002574807,8.586,0
0.5733,4.632639E-05,8.5995,0,0.5733,7.788205E-05,8.5995,0
0.5742,5.337606E-05,8.613,0,0.5742,3.860533E-05,8.613,0
0.5751,7.922484E-05,8.6265,0,0.5751,-2.719158E-05,8.6265,0
0.576,1.577783E-05,8.64,0,0.576,-5.774014E-05,8.64,0
0.5769,2.584878E-05,8.6535,0,0.5769,-6.948959E-05,8.6535,0
0.5778,8.996719E-05,8.667,0,0.5778,-9.735256E-05,8.667,0
0.5787,9.500267E-05,8.6805,0,0.5787,-0.0001044022,8.6805,0
0.5796,3.726253E-05,8.694,0,0.5796,-0.0001161517,8.694,0
0.5805,9.097429E-05,8.7075,0,0.5805,-0.0001520714,8.7075,0
0.5814,0.0001044022,8.721,0,0.5814,-0.0001916838,8.721,0
0.5823,6.814679E-05,8.7345,0,0.5823,-0.0002648661,8.7345,0
0.5832,3.356985E-07,8.748,0,0.5832,-0.0002581521,8.748,0
0.5841,-0.0001493858,8.7615,0,0.5841,-0.000224918,8.7615,0
0.585,-0.0001748989,8.775,0,0.585,-0.0001514,8.775,0
0.5859,-0.0001685206,8.7885,0,0.5859,-0.0001037308,8.7885,0
0.5868,-0.0001896696,8.802,0,0.5868,-2.1149E-05,8.802,0
0.5877,-0.0001205158,8.8155,0,0.5877,3.726253E-05,8.8155,0
0.5886,8.728161E-06,8.829,0,0.5886,-2.14847E-05,8.829,0
0.5895,0.0001708705,8.8425,0,0.5895,8.426032E-05,8.8425,0
0.5904,0.0002826581,8.856,0,0.5904,0.0001171588,8.856,0
0.5913,0.0001816129,8.8695,0,0.5913,0.0001097734,8.8695,0
0.5922,0.000112459,8.883,0,0.5922,5.270466E-05,8.883,0
0.5931,3.021286E-06,8.8965,0,0.5931,-6.176852E-05,8.8965,0
0.594,-6.109713E-05,8.91,0,0.594,-2.584878E-05,8.91,0
0.5949,-0.0001275654,8.9235,0,0.5949,-5.606165E-05,8.9235,0
0.5958,-7.553216E-05,8.937,0,0.5958,-0.0002232395,8.937,0
0.5967,-0.0001050736,8.9505,0,0.5967,-0.0002615091,8.9505,0
0.5976,-0.0001990692,8.964,0,0.5976,-0.0002645304,8.964,0
0.5985,-0.0001064164,8.9775,0,0.5985,-0.0002947433,8.9775,0
0.5994,-0.0001097734,8.991,0,0.5994,-0.0003011215,8.991,0
0.6003,-0.0001013809,9.0045,0,0.6003,-0.0001963836,9.0045,0
0.6012,1.376364E-05,9.018,0,0.6012,-0.0001064164,9.018,0
0.6021,3.189136E-05,9.0315,0,0.6021,-8.056763E-06,9.0315,0
0.603,-3.826963E-05,9.045,0,0.603,0.0001037308,9.045,0
0.6039,3.692683E-06,9.0585,0,0.6039,0.0001594568,9.0585,0
0.6048,3.054856E-05,9.072001,0,0.6048,0.0001319295,9.072001,0
0.6057,-8.258183E-05,9.0855,0,0.6057,0.0001168231,9.0855,0
0.6066,-0.0001221943,9.099,0,0.6066,1.007095E-06,9.099,0
0.6075,-5.169757E-05,9.1125,0,0.6075,-0.0001373007,9.1125,0
0.6084,-9.063859E-05,9.126,0,0.6084,-0.0001144732,9.126,0
0.6093,-5.001907E-05,9.1395,0,0.6093,-0.0001326009,9.1395,0
0.6102,4.733349E-05,9.153,0,0.6102,0.0001117876,9.153,0
0.6111,-2.18204E-05,9.1665,0,0.6111,0.0002141756,9.1665,0
0.612,-0.0001131304,9.18,0,0.612,-5.035477E-06,9.18,0
0.6129,-0.0001544213,9.1935,0,0.6129,-0.000119173,9.1935,0
0.6138,-0.0002500954,9.207,0,0.6138,-0.0001473716,9.207,0
0.6147,-0.0001769131,9.2205,0,0.6147,-0.0002239109,9.2205,0
0.6156,-9.802396E-05,9.234,0,0.6156,-0.0004629282,9.234,0
0.6165,-0.0001738918,9.2475,0,0.6165,-0.0002887007,9.2475,0
0.6174,-0.0001644923,9.261,0,0.6174,-0.0001560998,9.261,0
0.6183,0.0001225299,9.2745,0,0.6183,-2.618448E-05,9.2745,0
0.6192,0.0003964599,9.288,0,0.6192,1.611353E-05,9.288,0
0.6201,0.0003897459,9.3015,0,0.6201,0.0001930266,9.3015,0
0.621,0.0003900816,9.315,0,0.621,0.0004035096,9.315,0
0.6219,0.0002947433,9.3285,0,0.6219,0.0002964218,9.3285,0
0.6228,0.0001349508,9.342,0,0.6228,0.0002715801,9.342,0
0.6237,5.941863E-05,9.3555,0,0.6237,0.0004924697,9.3555,0
0.6246,1.309224E-05,9.369,0,0.6246,0.0003487907,9.369,0
0.6255,-3.927672E-05,9.3825,0,0.6255,9.768826E-05,9.3825,0
0.6264,-1.577783E-05,9.396,0,0.6264,7.016098E-05,9.396,0
0.6273,-0.0001030594,9.4095,0,0.6273,7.989624E-05,9.4095,0
0.6282,-7.418937E-05,9.423,0,0.6282,6.6804E-05,9.423,0
0.6291,-5.270466E-05,9.4365,0,0.6291,4.39765E-05,9.4365,0
0.63,-0.0001252155,9.45,0,0.63,5.673304E-05,9.45,0
0.6309,-0.0001003738,9.4635,0,0.6309,6.51255E-05,9.4635,0
0.6318,-0.0001225299,9.477,0,0.6318,-5.069047E-05,9.477,0
0.6327,-0.0001607996,9.4905,0,0.6327,-0.0001339437,9.4905,0
0.6336,-0.0001467002,9.504,0,0.6336,-0.000154757,9.504,0
0.6345,-0.0001621424,9.5175,0,0.6345,-0.0001450217,9.5175,0
0.6354,-0.0001285725,9.531,0,0.6354,-0.0001980621,9.531,0
0.6363,-1.376364E-05,9.5445,0,0.6363,-0.0002406958,9.5445,0
0.6372,-5.706874E-06,9.558,0,0.6372,-6.915389E-05,9.558,0
0.6381,-5.404745E-05,9.5715,0,0.6381,0.0001487144,9.5715,0
0.639,-5.572595E-05,9.585,0,0.639,3.323415E-05,9.585,0
0.6399,1.846342E-05,9.5985,0,0.6399,-1.443504E-05,9.5985,0
0.6408,-4.39765E-05,9.612,0,0.6408,-2.954147E-05,9.612,0
0.6417,-4.901198E-05,9.6255,0,0.6417,-0.0001517357,9.6255,0
0.6426,5.069047E-05,9.639,0,0.6426,-0.0001708705,9.639,0
0.6435,2.652018E-05,9.6525,0,0.6435,-8.358892E-05,9.6525,0
0.6444,0.0001584497,9.666,0,0.6444,-7.721065E-05,9.666,0
0.6453,0.0002091402,9.6795,0,0.6453,-0.0001389792,9.6795,0
0.6462,2.887007E-05,9.693,0,0.6462,-0.0001473716,9.693,0
0.6471,7.385367E-06,9.7065,0,0.6471,-5.975433E-05,9.7065,0
0.648,8.157473E-05,9.72,0,0.648,-5.606165E-05,9.72,0
0.6489,0.0001299153,9.7335,0,0.6489,-6.344701E-05,9.7335,0
0.6498,0.0001245441,9.747,0,0.6498,-4.934768E-05,9.747,0
0.6507,7.553216E-05,9.7605,0,0.6507,-8.96315E-05,9.7605,0
0.6516,-4.800488E-05,9.774,0,0.6516,-0.0002940719,9.774,0
0.6525,-9.164568E-05,9.7875,0,0.6525,-0.0003739681,9.7875,0
0.6534,-0.0001329366,9.801,0,0.6534,-0.0003286488,9.801,0
0.6543,-0.0001232013,9.8145,0,0.6543,-0.0002406958,9.8145,0
0.6552,-0.000130251,9.828,0,0.6552,-8.593881E-05,9.828,0
0.6561,-9.903105E-05,9.8415,0,0.6561,0.0004048524,9.8415,0
0.657,-3.021286E-06,9.855,0,0.657,0.0005770657,9.855,0
0.6579,0.0001809415,9.8685,0,0.6579,0.0003951171,9.8685,0
0.6588,0.0001305867,9.882,0,0.6588,0.0001252155,9.882,0
0.6597,-1.678492E-06,9.8955,0,0.6597,3.692683E-06,9.8955,0
0.6606,-8.493171E-05,9.909,0,0.6606,-4.36408E-06,9.909,0
0.6615,-7.687495E-05,9.9225,0,0.6615,-4.834058E-05,9.9225,0
0.6624,-2.584878E-05,9.936,0,0.6624,-0.0001030594,9.936,0
0.6633,-3.793393E-05,9.9495,0,0.6633,-0.000140322,9.9495,0
0.6642,-7.620356E-05,9.963,0,0.6642,-5.706874E-05,9.963,0
0.6651,-6.6804E-05,9.976501,0,0.6651,4.263371E-05,9.976501,0
0.666,3.424125E-05,9.99,0,0.666,4.699779E-06,9.99,0
0.6669,6.848249E-05,10.0035,0,0.6669,-8.69459E-05,10.0035,0
0.6678,-7.418937E-05,10.017,0,0.6678,-8.89601E-05,10.017,0
0.6687,-0.0001943694,10.0305,0,0.6687,-0.0002762798,10.0305,0
0.6696,-0.0001926909,10.044,0,0.6696,-0.0002064546,10.044,0
0.6705,-0.0001795987,10.0575,0,0.6705,0.0001795987,10.0575,0
0.6714,-4.061952E-05,10.071,0,0.6714,0.0001188373,10.071,0
0.6723,9.332418E-05,10.0845,0,0.6723,-0.000193698,10.0845,0
0.6732,0.0001832914,10.098,0,0.6732,-0.0002907149,10.098,0
0.6741,0.0003642329,10.1115,0,0.6741,-4.599069E-05,10.1115,0
0.675,0.0004478218,10.125,0,0.675,-0.0001524071,10.125,0
0.6759,0.0002809796,10.1385,0,0.6759,-0.0001319295,10.1385,0
0.6768,3.659113E-05,10.152,0,0.6768,7.956054E-05,10.152,0
0.6777,-0.0001651637,10.1655,0,0.6777,0.0003400626,10.1655,0
0.6786,-0.0003199207,10.179,0,0.6786,0.0002319677,10.179,0
0.6795,-0.0002289464,10.1925,0,0.6795,0.0001587854,10.1925,0
0.6804,0.0001285725,10.206,0,0.6804,0.0002910506,10.206,0
0.6813,0.0001816129,10.2195,0,0.6813,0.0002880293,10.2195,0
0.6822,0.0001164874,10.233,0,0.6822,0.0002084688,10.233,0
0.6831,0.0001769131,10.2465,0,0.6831,8.493171E-05,10.2465,0
0.684,5.001907E-05,10.26,0,0.684,5.673304E-05,10.26,0
0.6849,5.136187E-05,10.2735,0,0.6849,9.835965E-05,10.2735,0
0.6858,8.560311E-05,10.287,0,0.6858,-1.309224E-05,10.287,0
0.6867,-5.337606E-05,10.3005,0,0.6867,-0.0001423362,10.3005,0
0.6876,-8.090334E-05,10.314,0,0.6876,-0.0001104448,10.314,0
0.6885,-2.517739E-05,10.3275,0,0.6885,-2.417029E-05,10.3275,0
0.6894,4.800488E-05,10.341,0,0.6894,-6.848249E-05,10.341,0
0.6903,-1.644922E-05,10.3545,0,0.6903,-0.0001255512,10.3545,0
0.6912,-8.92958E-05,10.368,0,0.6912,-9.735256E-05,10.368,0
0.6921,-9.600977E-05,10.3815,0,0.6921,-9.567407E-05,10.3815,0
0.693,-4.632639E-05,10.395,0,0.693,-0.0001816129,10.395,0
0.6939,-4.934768E-05,10.4085,0,0.6939,-0.0001678492,10.4085,0
0.6948,-0.0001634852,10.422,0,0.6948,-0.0001080949,10.422,0
0.6957,-0.0001393149,10.4355,0,0.6957,-8.627451E-05,10.4355,0
0.6966,1.644922E-05,10.449,0,0.6966,-0.0001349508,10.449,0
0.6975,-4.196231E-05,10.4625,0,0.6975,-0.000105745,10.4625,0
0.6984,-0.0001164874,10.476,0,0.6984,-7.217517E-05,10.476,0
0.6993,-3.894102E-05,10.4895,0,0.6993,-2.28275E-05,10.4895,0
0.7002,0,10.503,0,0.7002,0.0001171588,10.503,0
0.7011,7.083238E-05,10.5165,0,0.7011,0.0002346532,10.5165,0
0.702,0.0001000381,10.53,0,0.702,0.0002232395,10.53,0
0.7029,-3.021286E-06,10.5435,0,0.7029,7.553216E-05,10.5435,0
0.7038,4.53193E-05,10.557,0,0.7038,4.36408E-06,10.557,0
0.7047,1.644922E-05,10.5705,0,0.7047,-3.524834E-05,10.5705,0
0.7056,9.735256E-06,10.584,0,0.7056,-9.533837E-05,10.584,0
0.7065,9.298848E-05,10.5975,0,0.7065,-0.0001134661,10.5975,0
0.7074,9.869535E-05,10.611,0,0.7074,-6.78111E-05,10.611,0
0.7083,0.0001366293,10.6245,0,0.7083,8.224613E-05,10.6245,0
0.7092,0.0001413291,10.638,0,0.7092,3.927672E-05,10.638,0
0.7101,7.721065E-05,10.6515,0,0.7101,-0.000105745,10.6515,0
0.711,8.728161E-06,10.665,0,0.711,-5.874724E-05,10.665,0
0.7119,5.203327E-05,10.6785,0,0.7119,-4.028382E-05,10.6785,0
0.7128,3.994812E-05,10.692,0,0.7128,4.36408E-06,10.692,0
0.7137,2.014191E-06,10.7055,0,0.7137,7.418937E-05,10.7055,0
0.7146,-1.275654E-05,10.719,0,0.7146,0.0001356222,10.719,0
0.7155,-4.061952E-05,10.7325,0,0.7155,4.867628E-05,10.7325,0
0.7164,-7.016098E-05,10.746,0,0.7164,-0.0001044022,10.746,0
0.7173,-2.719158E-05,10.7595,0,0.7173,-0.0001658351,10.7595,0
0.7182,-0.0001030594,10.773,0,0.7182,-0.0002370031,10.773,0
0.7191,-0.000193698,10.7865,0,0.7191,-8.627451E-05,10.7865,0
0.72,-7.016098E-05,10.8,0,0.72,3.860533E-05,10.8,0
0.7209,0.0001151446,10.8135,0,0.7209,0.000341741,10.8135,0
0.7218,4.061952E-05,10.827,0,0.7218,0.0003810178,10.827,0
0.7227,-6.243992E-05,10.8405,0,0.7227,0.0001258869,10.8405,0
0.7236,-5.069047E-05,10.854,0,0.7236,-4.33051E-05,10.854,0
0.7245,-0.0001097734,10.8675,0,0.7245,-8.023193E-05,10.8675,0
0.7254,-7.821774E-05,10.881,0,0.7254,-0.0001064164,10.881,0
0.7263,-5.572595E-05,10.8945,0,0.7263,-0.0001456931,10.8945,0
0.7272,-7.183947E-05,10.908,0,0.7272,-0.0001346151,10.908,0
0.7281,-0.000109102,10.9215,0,0.7281,-9.835965E-05,10.9215,0
0.729,-5.941863E-05,10.935,0,0.729,-0.0001950408,10.935,0
0.7299,5.807584E-05,10.9485,0,0.7299,-0.0002232395,10.9485,0
0.7308,8.459602E-05,10.962,0,0.7308,-0.0001215228,10.962,0
0.7317,4.36408E-06,10.9755,0,0.7317,1.309224E-05,10.9755,0
0.7326,-9.164568E-05,10.989,0,0.7326,0.0001379721,10.989,0
0.7335,-5.404745E-05,11.0025,0,0.7335,0.0001161517,11.0025,0
0.7344,7.351797E-05,11.016,0,0.7344,3.558404E-05,11.016,0
0.7353,3.692683E-06,11.0295,0,0.7353,2.383459E-05,11.0295,0
0.7362,2.786297E-05,11.043,0,0.7362,-4.129091E-05,11.043,0
0.7371,6.411841E-05,11.0565,0,0.7371,-0.0002044404,11.0565,0
0.738,-4.129091E-05,11.07,0,0.738,-0.0002118257,11.07,0
0.7389,2.1149E-05,11.0835,0,0.7389,-0.0002910506,11.0835,0
0.7398,1.510643E-05,11.097,0,0.7398,-0.0002306248,11.097,0
0.7407,-0.0001185016,11.1105,0,0.7407,-9.835965E-05,11.1105,0
0.7416,-0.0002151827,11.124,0,0.7416,-7.586786E-05,11.124,0
0.7425,-0.0001279011,11.1375,0,0.7425,3.054856E-05,11.1375,0
0.7434,3.860533E-05,11.151,0,0.7434,0.000252781,11.151,0
0.7443,1.376364E-05,11.1645,0,0.7443,0.0002165255,11.1645,0
0.7452,-0.0001530785,11.178,0,0.7452,0.0001070878,11.178,0
0.7461,-0.0001873197,11.1915,0,0.7461,7.620356E-05,11.1915,0
0.747,-5.606165E-05,11.205,0,0.747,4.968337E-05,11.205,0
0.7479,-2.987716E-05,11.2185,0,0.7479,9.063859E-06,11.2185,0
0.7488,-0.0001074235,11.232,0,0.7488,-4.33051E-05,11.232,0
0.7497,-2.383459E-05,11.2455,0,0.7497,-5.069047E-05,11.2455,0
0.7506,6.411841E-05,11.259,0,0.7506,-1.275654E-05,11.259,0
0.7515,-6.109713E-05,11.2725,0,0.7515,-5.941863E-05,11.2725,0
0.7524,-1.040665E-05,11.286,0,0.7524,-0.0001352865,11.286,0
0.7533,7.687495E-05,11.2995,0,0.7533,-0.0001681849,11.2995,0
0.7542,8.728161E-06,11.313,0,0.7542,-0.0001947051,11.313,0
0.7551,-3.390555E-05,11.3265,0,0.7551,-0.0002564736,11.3265,0
0.756,6.51255E-05,11.34,0,0.756,-0.0002447242,11.34,0
0.7569,3.726253E-05,11.3535,0,0.7569,-0.0002178683,11.3535,0
0.7578,5.673304E-05,11.367,0,0.7578,-0.0001050736,11.367,0
0.7587,0.0001782559,11.3805,0,0.7587,0.0001527428,11.3805,0
0.7596,0.0002128328,11.394,0,0.7596,0.0001708705,11.394,0
0.7605,3.021286E-06,11.4075,0,0.7605,2.484169E-05,11.4075,0
0.7614,-7.620356E-05,11.421,0,0.7614,-0.0001577783,11.421,0
0.7623,-0.0001181659,11.4345,0,0.7623,-0.0001577783,11.4345,0
0.7632,-3.659113E-05,11.448,0,0.7632,-8.96315E-05,11.448,0
0.7641,0.0001668421,11.4615,0,0.7641,8.224613E-05,11.4615,0
0.765,7.016098E-05,11.475,0,0.765,0.0002766156,11.475,0
0.7659,-0.0001312581,11.4885,0,0.7659,7.284657E-05,11.4885,0
0.7668,-0.0001346151,11.502,0,0.7668,-0.0001275654,11.502,0
0.7677,-8.392462E-06,11.5155,0,0.7677,-0.0001832914,11.5155,0
0.7686,-2.383459E-05,11.529,0,0.7686,-0.0001896696,11.529,0
0.7695,7.150377E-05,11.5425,0,0.7695,-0.0001611353,11.5425,0
0.7704,6.143282E-05,11.556,0,0.7704,9.063859E-06,11.556,0
0.7713,0.0001520714,11.5695,0,0.7713,0.0001121233,11.5695,0
0.7722,0.0001309224,11.583,0,0.7722,8.89601E-05,11.583,0
0.7731,0.000102388,11.5965,0,0.7731,7.687495E-05,11.5965,0
0.774,4.867628E-05,11.61,0,0.774,0.0002326391,11.61,0
0.7749,-2.484169E-05,11.6235,0,0.7749,0.0004427863,11.6235,0
0.7758,-3.558404E-05,11.637,0,0.7758,0.0002621805,11.637,0
0.7767,-1.040665E-05,11.6505,0,0.7767,0.0001017166,11.6505,0
0.7776,-9.265278E-05,11.664,0,0.7776,0.0001305867,11.664,0
0.7785,-0.0001816129,11.6775,0,0.7785,0.0001094377,11.6775,0
0.7794,-0.0001514,11.691,0,0.7794,2.618448E-05,11.691,0
0.7803,-0.0001514,11.7045,0,0.7803,5.035477E-06,11.7045,0
0.7812,7.385367E-06,11.718,0,0.7812,-1.577783E-05,11.718,0
0.7821,0.0001198444,11.7315,0,0.7821,7.855344E-05,11.7315,0
0.783,7.922484E-05,11.745,0,0.783,2.920577E-05,11.745,0
0.7839,6.411841E-05,11.7585,0,0.7839,-6.57969E-05,11.7585,0
0.7848,5.874724E-05,11.772,0,0.7848,-3.591974E-05,11.772,0
0.7857,-4.599069E-05,11.7855,0,0.7857,-1.309224E-05,11.7855,0
0.7866,-8.023193E-05,11.799,0,0.7866,-7.586786E-05,11.799,0
0.7875,-1.174945E-05,11.8125,0,0.7875,-0.0001638209,11.8125,0
0.7884,-3.524834E-05,11.826,0,0.7884,-0.0002574807,11.826,0
0.7893,-0.0001161517,11.8395,0,0.7893,-0.0002413672,11.8395,0
0.7902,-4.129091E-05,11.853,0,0.7902,-0.000239353,11.853,0
0.7911,5.841154E-05,11.8665,0,0.7911,-0.0001467002,11.8665,0
0.792,-4.699779E-05,11.88,0,0.792,2.987716E-05,11.88,0
0.7929,-0.0001198444,11.8935,0,0.7929,-8.426032E-05,11.8935,0
0.7938,-0.0001097734,11.907,0,0.7938,-0.0003158923,11.907,0
0.7947,-2.719158E-05,11.9205,0,0.7947,-0.0001802701,11.9205,0
0.7956,-3.860533E-05,11.934,0,0.7956,2.853437E-05,11.934,0
0.7965,-1.947051E-05,11.9475,0,0.7965,0.0001775845,11.9475,0
0.7974,-7.049668E-06,11.961,0,0.7974,0.0002722515,11.961,0
0.7983,-2.21561E-05,11.9745,0,0.7983,0.0003575189,11.9745,0
0.7992,-3.424125E-05,11.988,0,0.7992,0.0002813153,11.988,0
0.8001,-0.0001044022,12.0015,0,0.8001,0.0001044022,12.0015,0
0.801,-4.934768E-05,12.015,0,0.801,-1.275654E-05,12.015,0
0.8019,9.567407E-05,12.0285,0,0.8019,-5.673304E-05,12.0285,0
0.8028,4.028382E-05,12.042,0,0.8028,-5.471885E-05,12.042,0
0.8037,4.800488E-05,12.0555,0,0.8037,-0.0001171588,12.0555,0
0.8046,0.0001386435,12.069,0,0.8046,-0.0001450217,12.069,0
0.8055,9.701686E-05,12.0825,0,0.8055,-0.0001144732,12.0825,0
0.8064,6.51255E-05,12.096,0,0.8064,-0.000130251,12.096,0
0.8073,0.0001151446,12.1095,0,0.8073,-0.0001443503,12.1095,0
0.8082,0.0001070878,12.123,0,0.8082,-0.0001171588,12.123,0
0.8091,0.0001013809,12.1365,0,0.8091,-5.001907E-05,12.1365,0
0.81,8.761731E-05,12.15,0,0.81,-1.275654E-05,12.15,0
0.8109,1.712062E-05,12.1635,0,0.8109,1.040665E-05,12.1635,0
0.8118,-2.349889E-05,12.177,0,0.8118,-1.980621E-05,12.177,0
0.8127,-5.572595E-05,12.1905,0,0.8127,-6.344701E-05,12.1905,0
0.8136,-2.383459E-05,12.204,0,0.8136,-0.0002292821,12.204,0
0.8145,-3.155566E-05,12.2175,0,0.8145,-0.0003326772,12.2175,0
0.8154,9.433127E-05,12.231,0,0.8154,-0.0003078355,12.231,0
0.8163,0.0001473716,12.2445,0,0.8163,-0.0002776226,12.2445,0
0.8172,0.0001205158,12.258,0,0.8172,-0.0001594568,12.258,0
0.8181,-0.0001030594,12.2715,0,0.8181,0.0001440146,12.2715,0
0.819,-0.0002185397,12.285,0,0.819,0.000542153,12.285,0
0.8199,-0.0001701991,12.2985,0,0.8199,0.0004179446,12.2985,0
0.8208,-0.0001738918,12.312,0,0.8208,0.0002390173,12.312,0
0.8217,-0.0002702373,12.3255,0,0.8217,7.284657E-05,12.3255,0
0.8226,-1.309224E-05,12.339,0,0.8226,-0.0001510643,12.339,0
0.8235,0.0003581903,12.3525,0,0.8235,-8.82887E-05,12.3525,0
0.8244,0.0004095522,12.366,0,0.8244,4.699779E-05,12.366,0
0.8253,0.0002974289,12.3795,0,0.8253,-2.383459E-05,12.3795,0
0.8262,0.0001003738,12.393,0,0.8262,5.035477E-06,12.393,0
0.8271,-6.713969E-06,12.4065,0,0.8271,9.768826E-05,12.4065,0
0.828,6.378271E-06,12.42,0,0.828,5.169757E-05,12.42,0
0.8289,-1.712062E-05,12.4335,0,0.8289,1.309224E-05,12.4335,0
0.8298,-0.0001017166,12.447,0,0.8298,-5.706874E-06,12.447,0
0.8307,-6.210422E-05,12.4605,0,0.8307,-2.24918E-05,12.4605,0
0.8316,4.968337E-05,12.474,0,0.8316,-2.316319E-05,12.474,0
0.8325,-4.699779E-06,12.4875,0,0.8325,4.095522E-05,12.4875,0
0.8334,-1.812772E-05,12.501,0,0.8334,2.853437E-05,12.501,0
0.8343,1.174945E-05,12.5145,0,0.8343,-9.433127E-05,12.5145,0
0.8352,6.378271E-06,12.528,0,0.8352,-8.661021E-05,12.528,0
0.8361,-0.0001467002,12.5415,0,0.8361,-4.39765E-05,12.5415,0
0.837,-0.0001225299,12.555,0,0.837,1.913481E-05,12.555,0
0.8379,-0.00024271,12.5685,0,0.8379,5.941863E-05,12.5685,0
0.8388,-0.0003914244,12.582,0,0.8388,-6.042573E-05,12.582,0
0.8397,-0.0004014954,12.5955,0,0.8397,-3.457694E-05,12.5955,0
0.8406,-0.0003501335,12.609,0,0.8406,-6.277562E-05,12.609,0
0.8415,-0.0003054856,12.6225,0,0.8415,-0.0003121996,12.6225,0
0.8424,-0.0002776226,12.636,0,0.8424,-0.0004911269,12.636,0
0.8433,-0.0003101854,12.6495,0,0.8433,-0.0004421149,12.6495,0
0.8442,-0.0002323034,12.663,0,0.8442,-0.0001211871,12.663,0
0.8451,-0.0002944076,12.6765,0,0.8451,-5.035477E-06,12.6765,0
0.846,-0.0003266346,12.69,0,0.846,0.0001326009,12.69,0
0.8469,-4.196231E-05,12.7035,0,0.8469,0.0004682994,12.7035,0
0.8478,0.0003434196,12.717,0,0.8478,0.0004213016,12.717,0
0.8487,0.0004766918,12.7305,0,0.8487,0.0001285725,12.7305,0
0.8496,0.0002077974,12.744,0,0.8496,0.0001540856,12.744,0
0.8505,4.699779E-05,12.7575,0,0.8505,0.0001634852,12.7575,0
0.8514,0.000126894,12.771,0,0.8514,0.000249424,12.771,0
0.8523,0.0002769512,12.7845,0,0.8523,0.0003246204,12.7845,0
0.8532,0.0001178302,12.798,0,0.8532,0.000179263,12.798,0
0.8541,0.0001675135,12.8115,0,0.8541,0.000133608,12.8115,0
0.855,0.0003534905,12.825,0,0.855,5.337606E-05,12.825,0
0.8559,0.0002104829,12.8385,0,0.8559,-8.358892E-05,12.8385,0
0.8568,7.620356E-05,12.852,0,0.8568,-0.0001258869,12.852,0
0.8577,8.72816E-05,12.8655,0,0.8577,-0.0001960479,12.8655,0
0.8586,0.0001178302,12.879,0,0.8586,-0.0002265965,12.879,0
0.8595001,5.001907E-05,12.8925,0,0.8595001,-0.0001500572,12.8925,0
0.8604,1.141375E-05,12.906,0,0.8604,-0.0001326009,12.906,0
0.8613,3.927672E-05,12.9195,0,0.8613,-0.0001822843,12.9195,0
0.8622,-3.189136E-05,12.933,0,0.8622,-0.0001443503,12.933,0
0.8631,-7.855344E-05,12.9465,0,0.8631,-0.0001420005,12.9465,0
0.864,-9.063859E-06,12.96,0,0.864,-0.0001560998,12.96,0
0.8649,4.36408E-06,12.9735,0,0.8649,-1.376364E-05,12.9735,0
0.8658,9.735256E-06,12.987,0,0.8658,4.934768E-05,12.987,0
0.8667,3.390555E-05,13.0005,0,0.8667,7.150377E-05,13.0005,0
0.8676,-2.24918E-05,13.014,0,0.8676,5.471885E-05,13.014,0
0.8685,-4.800488E-05,13.0275,0,0.8685,4.196231E-05,13.0275,0
0.8694,3.356985E-06,13.041,0,0.8694,-0.0001211871,13.041,0
0.8703,-6.009003E-05,13.0545,0,0.8703,-0.0001285725,13.0545,0
0.8712,-7.821774E-05,13.068,0,0.8712,-0.000186984,13.068,0
0.8721,3.189136E-05,13.0815,0,0.8721,-0.0002098116,13.0815,0
0.873,-4.867628E-05,13.095,0,0.873,-0.0001728847,13.095,0
0.8739,-1.510643E-05,13.1085,0,0.8739,-0.0001164874,13.1085,0
0.8748,0.0001201801,13.122,0,0.8748,-5.639734E-05,13.122,0
0.8757,-1.309224E-05,13.1355,0,0.8757,-9.835965E-05,13.1355,0
0.8766,-9.466698E-05,13.149,0,0.8766,-0.0001178302,13.149,0
0.8775,-3.256275E-05,13.1625,0,0.8775,-6.71397E-05,13.1625,0
0.8784,-2.887007E-05,13.176,0,0.8784,-8.627451E-05,13.176,0
0.8793,-1.846342E-05,13.1895,0,0.8793,-0.0001638209,13.1895,0
0.8802,-5.404745E-05,13.203,0,0.8802,-1.141375E-05,13.203,0
0.8811,-5.706874E-06,13.2165,0,0.8811,0.0002195468,13.2165,0
0.882,-7.318227E-05,13.23,0,0.882,2.786297E-05,13.23,0
0.8829,-0.0001077592,13.2435,0,0.8829,-0.0001554284,13.2435,0
0.8838,-0.000161471,13.257,0,0.8838,-0.0002487526,13.257,0
0.8847,-0.0002722515,13.2705,0,0.8847,-0.0005260395,13.2705,0
0.8856,-9.567407E-05,13.284,0,0.8856,-0.0005213398,13.284,0
0.8865,3.625543E-05,13.2975,0,0.8865,-0.0001876554,13.2975,0
0.8874,0.0001950408,13.311,0,0.8874,0.0003387198,13.311,0
0.8883,0.0003595331,13.3245,0,0.8883,0.0004897841,13.3245,0
0.8892,0.0003575189,13.338,0,0.8892,0.0004478218,13.338,0
0.8901,0.0002440528,13.3515,0,0.8901,0.0004897841,13.3515,0
0.891,9.365987E-05,13.365,0,0.891,0.0004307012,13.365,0
0.8919,-2.349889E-06,13.3785,0,0.8919,0.0003558404,13.3785,0
0.8928,6.109713E-05,13.392,0,0.8928,0.0002380102,13.392,0
0.8937,2.819867E-05,13.4055,0,0.8937,0.0001514,13.4055,0
0.8946,8.426032E-05,13.419,0,0.8946,0.0001003738,13.419,0
0.8955,0.0001164874,13.4325,0,0.8955,5.673304E-05,13.4325,0
0.8964,0.0001349508,13.446,0,0.8964,3.256275E-05,13.446,0
0.8973,-1.107805E-05,13.4595,0,0.8973,3.524834E-05,13.4595,0
0.8982,-4.39765E-05,13.473,0,0.8982,-6.74754E-05,13.473,0
0.8991,4.699779E-06,13.4865,0,0.8991,-0.0002151827,13.4865,0
0.9,-7.586786E-05,13.5,0,0.9,-0.0002232395,13.5,0
0.9009,-9.231708E-05,13.5135,0,0.9009,-0.000295079,13.5135,0
0.9018,-2.551309E-05,13.527,0,0.9018,-0.0003766537,13.527,0
0.9027,-0.0001138018,13.5405,0,0.9027,-0.0002635233,13.5405,0
0.9036,-0.0001205158,13.554,0,0.9036,-0.0001379721,13.554,0
0.9045,4.800488E-05,13.5675,0,0.9045,-3.927672E-05,13.5675,0
0.9054,8.761731E-05,13.581,0,0.9054,-3.021286E-06,13.581,0
0.9063,0.0002088045,13.5945,0,0.9063,1.678492E-06,13.5945,0
0.9072,0.0002890364,13.608,0,0.9072,3.860533E-05,13.608,0
0.9081,0.0001490501,13.6215,0,0.9081,-8.493171E-05,13.6215,0
0.909,-4.867628E-05,13.635,0,0.909,-0.0002218967,13.635,0
0.9099,-0.0001292439,13.6485,0,0.9099,-0.0002829938,13.6485,0
0.9108,-0.0002547952,13.662,0,0.9108,-0.0001829557,13.662,0
0.9117,-0.0003048142,13.6755,0,0.9117,-0.0002286107,13.6755,0
0.9126,-0.0002652018,13.689,0,0.9126,-0.0001225299,13.689,0
0.9135,-9.399557E-05,13.7025,0,0.9135,0.0001534142,13.7025,0
0.9144,0.0001876554,13.716,0,0.9144,0.0003971313,13.716,0
0.9153,9.936675E-05,13.7295,0,0.9153,0.0002171969,13.7295,0
0.9162,-6.243992E-05,13.743,0,0.9162,0.0002292821,13.743,0
0.9171,-0.0001205158,13.7565,0,0.9171,0.0003165637,13.7565,0
0.918,-0.000179263,13.77,0,0.918,0.0002937362,13.77,0
0.9189,-0.0001886625,13.7835,0,0.9189,0.0002514381,13.7835,0
0.9198,-0.0002232395,13.797,0,0.9198,9.768826E-05,13.797,0
0.9207,-0.0001816129,13.8105,0,0.9207,-3.860533E-05,13.8105,0
0.9216,-0.0001641566,13.824,0,0.9216,-7.351797E-05,13.824,0
0.9225,-0.0001671778,13.8375,0,0.9225,-0.0002920577,13.8375,0
0.9234,-5.874724E-05,13.851,0,0.9234,-0.000322942,13.851,0
0.9243,-0.0001255512,13.8645,0,0.9243,-0.0002907149,13.8645,0
0.9252,-0.0001534142,13.878,0,0.9252,-0.0003118639,13.878,0
0.9261,-5.404745E-05,13.8915,0,0.9261,-6.848249E-05,13.8915,0
0.927,-0.0001131304,13.905,0,0.927,9.097429E-05,13.905,0
0.9279,-6.210422E-05,13.9185,0,0.9279,0.0001819486,13.9185,0
0.9288,-0.0001040665,13.932,0,0.9288,4.36408E-06,13.932,0
0.9297,-0.0001728847,13.9455,0,0.9297,-0.0001540856,13.9455,0
0.9306,-0.0001913481,13.959,0,0.9306,-0.0001748989,13.959,0
0.9315,-0.0001920195,13.9725,0,0.9315,-0.0001809415,13.9725,0
0.9324,-0.0002124971,13.986,0,0.9324,7.888914E-05,13.986,0
0.9333,-0.000172549,13.9995,0,0.9333,0.000312871,13.9995,0
0.9342,7.251087E-05,14.013,0,0.9342,0.0003259632,14.013,0
0.9351,0.0003568475,14.0265,0,0.9351,2.1149E-05,14.0265,0
0.936,0.0005777371,14.04,0,0.936,-8.96315E-05,14.04,0
0.9369,0.0005797513,14.0535,0,0.9369,5.774014E-05,14.0535,0
0.9378,0.0002719158,14.067,0,0.9378,-2.21561E-05,14.067,0
0.9387,0.0001185016,14.0805,0,0.9387,-8.291753E-05,14.0805,0
0.9396001,0.0001564355,14.094,0,0.9396001,-0.0001604639,14.094,0
0.9405,-6.713969E-07,14.1075,0,0.9405,2.349889E-06,14.1075,0
0.9414001,-4.33051E-05,14.121,0,0.9414001,-6.076142E-05,14.121,0
0.9423,-1.007095E-05,14.1345,0,0.9423,-0.0002208896,14.1345,0
0.9432001,8.157473E-05,14.148,0,0.9432001,-0.0001829557,14.148,0
0.9441,0.0001117876,14.1615,0,0.9441,-0.0002057832,14.1615,0
0.9450001,0.0001198444,14.175,0,0.9450001,-0.0001111162,14.175,0
0.9459,4.028382E-05,14.1885,0,0.9459,-2.987716E-05,14.1885,0
0.9468,-4.699779E-06,14.202,0,0.9468,-3.726253E-05,14.202,0
0.9477,6.378271E-06,14.2155,0,0.9477,1.812772E-05,14.2155,0
0.9486,-1.644922E-05,14.229,0,0.9486,4.666209E-05,14.229,0
0.9495,-3.524834E-05,14.2425,0,0.9495,6.143282E-05,14.2425,0
0.9504,-3.054856E-05,14.256,0,0.9504,9.500267E-05,14.256,0
0.9513,-7.049668E-05,14.2695,0,0.9513,0.0002222324,14.2695,0
0.9522,-6.042573E-05,14.283,0,0.9522,0.0003125353,14.283,0
0.9531,-3.994812E-05,14.2965,0,0.9531,0.0001366293,14.2965,0
0.954,-5.404745E-05,14.31,0,0.954,0.0001064164,14.31,0
0.9549,-0.000105745,14.3235,0,0.9549,6.6804E-05,14.3235,0
0.9558,-6.210422E-05,14.337,0,0.9558,-3.289845E-05,14.337,0
0.9567,-0.0001174945,14.3505,0,0.9567,6.378271E-06,14.3505,0
0.9576,-0.0001641566,14.364,0,0.9576,6.210422E-05,14.364,0
0.9585,-0.0001017166,14.3775,0,0.9585,1.678492E-06,14.3775,0
0.9594,-3.726253E-05,14.391,0,0.9594,-0.0001544213,14.391,0
0.9603,2.652018E-05,14.4045,0,0.9603,-0.0002034333,14.4045,0
0.9612,-1.678492E-05,14.418,0,0.9612,-0.000158114,14.418,0
0.9621,-1.510643E-05,14.4315,0,0.9621,-0.000126894,14.4315,0
0.963,3.088426E-05,14.445,0,0.963,-0.000161471,14.445,0
0.9639,7.049668E-06,14.4585,0,0.9639,-3.558404E-05,14.4585,0
0.9648,-3.021286E-06,14.472,0,0.9648,8.89601E-05,14.472,0
0.9657,6.009003E-05,14.4855,0,0.9657,-9.567407E-05,14.4855,0
0.9666,3.793393E-05,14.499,0,0.9666,-0.0001802701,14.499,0
0.9675,-9.735256E-06,14.5125,0,0.9675,-8.090334E-05,14.5125,0
0.9684,6.713969E-07,14.526,0,0.9684,7.049668E-06,14.526,0
0.9693,8.157473E-05,14.5395,0,0.9693,3.659113E-05,14.5395,0
0.9702,8.358892E-05,14.553,0,0.9702,-1.644922E-05,14.553,0
0.9711,3.356985E-07,14.5665,0,0.9711,-5.740444E-05,14.5665,0
0.972,-3.021286E-06,14.58,0,0.972,-7.956054E-05,14.58,0
0.9729,2.584878E-05,14.5935,0,0.9729,-8.627451E-05,14.5935,0
0.9738,4.263371E-05,14.607,0,0.9738,-0.0001198444,14.607,0
0.9747,8.358892E-05,14.6205,0,0.9747,1.007095E-06,14.6205,0
0.9756,-4.39765E-05,14.634,0,0.9756,3.894102E-05,14.634,0
0.9765,-7.418937E-05,14.6475,0,0.9765,-0.0001688563,14.6475,0
0.9774,-6.143282E-05,14.661,0,0.9774,-0.0001285725,14.661,0
0.9783,-0.0001258869,14.6745,0,0.9783,0.0001735561,14.6745,0
0.9792,-0.0001131304,14.688,0,0.9792,-4.565499E-05,14.688,0
0.9801,-3.894102E-05,14.7015,0,0.9801,-0.0002635233,14.7015,0
0.981,-0.0001634852,14.715,0,0.981,0.0001205158,14.715,0
0.9819,-2.584878E-05,14.7285,0,0.9819,0.0002984359,14.7285,0
0.9828,0.0001930266,14.742,0,0.9828,0.0002124971,14.742,0
0.9837,8.123904E-05,14.7555,0,0.9837,0.0001174945,14.7555,0
0.9846,7.721065E-06,14.769,0,0.9846,-3.692683E-06,14.769,0
0.9855,0.0001067521,14.7825,0,0.9855,-9.097429E-05,14.7825,0
0.9864,0.0003028,14.796,0,0.9864,-0.0001074235,14.796,0
0.9873,0.0003252918,14.8095,0,0.9873,-6.344701E-05,14.8095,0
0.9882,0.0001527428,14.823,0,0.9882,3.927672E-05,14.823,0
0.9891,4.095522E-05,14.8365,0,0.9891,6.378271E-05,14.8365,0
0.99,1.443504E-05,14.85,0,0.99,0.0001205158,14.85,0
0.9909,-2.685588E-06,14.8635,0,0.9909,8.291753E-05,14.8635,0
0.9918,-6.277562E-05,14.877,0,0.9918,0.0001144732,14.877,0
0.9927,-9.835965E-05,14.8905,0,0.9927,4.766919E-05,14.8905,0
0.9936,-8.426032E-05,14.904,0,0.9936,-0.0001463645,14.904,0
0.9945,-0.0001326009,14.9175,0,0.9945,-0.0001849699,14.9175,0
0.9954,-0.0001534142,14.931,0,0.9954,-0.000172549,14.931,0
0.9963,-0.0001346151,14.9445,0,0.9963,-0.0001960479,14.9445,0
0.9972,-0.0001426719,14.958,0,0.9972,-5.706874E-05,14.958,0
0.9981,-0.0001574426,14.9715,0,0.9981,0.0001373007,14.9715,0
0.999,-0.0001453574,14.985,0,0.999,8.96315E-05,14.985,0
0.9999,-9.365987E-05,14.9985,0,0.9999,9.265278E-05,14.9985,0
1.0008,6.478981E-05,15.012,0,1.0008,-1.409934E-05,15.012,0
1.0017,2.21561E-05,15.0255,0,1.0017,-5.874724E-05,15.0255,0
1.0026,-2.047761E-05,15.039,0,1.0026,-9.130999E-05,15.039,0
1.0035,3.323415E-05,15.0525,0,1.0035,-0.0001188373,15.0525,0
1.0044,4.129091E-05,15.066,0,1.0044,-0.0001168231,15.066,0
1.0053,-9.735256E-06,15.0795,0,1.0053,-8.157473E-05,15.0795,0
1.0062,-8.224613E-05,15.093,0,1.0062,-7.956054E-05,15.093,0
1.0071,-0.0001540856,15.1065,0,1.0071,-9.030289E-05,15.1065,0
1.008,-0.0002903792,15.12,0,1.008,-3.256275E-05,15.12,0
1.0089,-0.000433051,15.1335,0,1.0089,-0.0001527428,15.1335,0
1.0098,-0.0003934386,15.147,0,1.0098,-0.0003675898,15.147,0
1.0107,-0.0001436789,15.1605,0,1.0107,-0.0004360723,15.1605,0
1.0116,0.0001715419,15.174,0,1.0116,-0.0002853437,15.174,0
1.0125,0.0001483787,15.1875,0,1.0125,-0.0001980621,15.1875,0
1.0134,4.666209E-05,15.201,0,1.0134,-0.0001493858,15.201,0
1.0143,0.0001607996,15.2145,0,1.0143,5.001907E-05,15.2145,0
1.0152,0.0001715419,15.228,0,1.0152,0.0003014572,15.228,0
1.0161,0.0001366293,15.2415,0,1.0161,0.0004122377,15.2415,0
1.017,8.023193E-05,15.255,0,1.017,0.0002756084,15.255,0
1.0179,0.0001285725,15.2685,0,1.0179,9.634547E-05,15.2685,0
1.0188,-4.028382E-06,15.282,0,1.0188,0.0001044022,15.282,0
1.0197,4.028382E-06,15.2955,0,1.0197,7.721065E-05,15.2955,0
1.0206,7.653925E-05,15.309,0,1.0206,5.539025E-05,15.309,0
1.0215,3.155566E-05,15.3225,0,1.0215,9.970245E-05,15.3225,0
1.0224,-4.36408E-06,15.336,0,1.0224,1.443504E-05,15.336,0
1.0233,-1.174945E-05,15.3495,0,1.0233,-7.418937E-05,15.3495,0
1.0242,-9.970245E-05,15.363,0,1.0242,1.040665E-05,15.363,0
1.0251,-0.0001453574,15.3765,0,1.0251,3.323415E-05,15.3765,0
1.026,-0.0001205158,15.39,0,1.026,-8.728161E-06,15.39,0
1.0269,-3.860533E-05,15.4035,0,1.0269,4.632639E-05,15.4035,0
1.0278,-9.063859E-06,15.417,0,1.0278,5.908293E-05,15.417,0
1.0287,5.807584E-05,15.4305,0,1.0287,3.591974E-05,15.4305,0
1.0296,0.0001252155,15.444,0,1.0296,2.014191E-06,15.444,0
1.0305,7.956054E-05,15.4575,0,1.0305,-6.277562E-05,15.4575,0
1.0314,7.418937E-05,15.471,0,1.0314,-0.0002490883,15.471,0
1.0323,2.954147E-05,15.4845,0,1.0323,-0.0002645304,15.4845,0
1.0332,-1.678492E-06,15.498,0,1.0332,-0.0001661708,15.498,0
1.0341,3.793393E-05,15.5115,0,1.0341,-2.584878E-05,15.5115,0
1.035,1.779202E-05,15.525,0,1.035,0.0001926909,15.525,0
1.0359,5.438316E-05,15.5385,0,1.0359,0.0001997406,15.5385,0
1.0368,1.443504E-05,15.552,0,1.0368,5.874724E-05,15.552,0
1.0377,1.678492E-05,15.5655,0,1.0377,4.53193E-05,15.5655,0
1.0386,-1.678492E-06,15.579,0,1.0386,6.009003E-05,15.579,0
1.0395,-2.484169E-05,15.5925,0,1.0395,2.1149E-05,15.5925,0
1.0404,-9.735256E-06,15.606,0,1.0404,-4.028382E-06,15.606,0
1.0413,5.136187E-05,15.6195,0,1.0413,-5.102617E-05,15.6195,0
1.0422,3.659113E-05,15.633,0,1.0422,-1.040665E-05,15.633,0
1.0431,9.365987E-05,15.6465,0,1.0431,7.922484E-05,15.6465,0
1.044,0.0001232013,15.66,0,1.044,0.0001708705,15.66,0
1.0449,-6.378271E-06,15.6735,0,1.0449,-0.000164828,15.6735,0
1.0458,-0.0001352865,15.687,0,1.0458,-0.0002635233,15.687,0
1.0467,-1.074235E-05,15.7005,0,1.0467,-0.00024271,15.7005,0
1.0476,8.426032E-05,15.714,0,1.0476,-0.0002742657,15.714,0
1.0485,1.174945E-05,15.7275,0,1.0485,-0.000105745,15.7275,0
1.0494,3.994812E-05,15.741,0,1.0494,-2.887007E-05,15.741,0
1.0503,0.000109102,15.7545,0,1.0503,-3.591974E-05,15.7545,0
1.0512,0.0001215228,15.768,0,1.0512,0.0001312581,15.768,0
1.0521,4.49836E-05,15.7815,0,1.0521,0.000291722,15.7815,0
1.053,2.383459E-05,15.795,0,1.053,0.0001460288,15.795,0
1.0539,-1.376364E-05,15.8085,0,1.0539,-5.371176E-06,15.8085,0
1.0548,2.517739E-05,15.822,0,1.0548,-8.96315E-05,15.822,0
1.0557,1.007095E-05,15.8355,0,1.0557,-4.46479E-05,15.8355,0
1.0566,5.438316E-05,15.849,0,1.0566,-4.733349E-05,15.849,0
1.0575,5.471885E-05,15.8625,0,1.0575,-4.53193E-05,15.8625,0
1.0584,5.874724E-05,15.876,0,1.0584,1.510643E-05,15.876,0
1.0593,1.644922E-05,15.8895,0,1.0593,9.567407E-05,15.8895,0
1.0602,2.081331E-05,15.903,0,1.0602,8.157473E-05,15.903,0
1.0611,2.349889E-05,15.9165,0,1.0611,1.342794E-06,15.9165,0
1.062,-0.0001450217,15.93,0,1.062,6.713969E-07,15.93,0
1.0629,-0.0002554666,15.9435,0,1.0629,-2.047761E-05,15.9435,0
1.0638,-0.000169192,15.957,0,1.0638,-8.325322E-05,15.957,0
1.0647,-0.0001420005,15.9705,0,1.0647,-8.258183E-05,15.9705,0
1.0656,-0.0002245823,15.984,0,1.0656,-6.57969E-05,15.984,0
1.0665,-8.72816E-05,15.9975,0,1.0665,-7.284657E-05,15.9975,0
1.0674,0.0001876554,16.011,0,1.0674,-4.36408E-05,16.011,0
1.0683,0.0001537499,16.0245,0,1.0683,-4.867628E-05,16.0245,0
1.0692,-1.342794E-05,16.038,0,1.0692,-5.203327E-05,16.038,0
1.0701,-7.284657E-05,16.0515,0,1.0701,-4.53193E-05,16.0515,0
1.071,-5.404745E-05,16.065,0,1.071,-5.941863E-05,16.065,0
1.0719,-2.853437E-05,16.0785,0,1.0719,-6.57969E-05,16.0785,0
1.0728,-6.344701E-05,16.092,0,1.0728,-7.553216E-05,16.092,0
1.0737,-1.510643E-05,16.1055,0,1.0737,-7.620356E-05,16.1055,0
1.0746,2.081331E-05,16.119,0,1.0746,-6.243992E-05,16.119,0
1.0755,1.712062E-05,16.1325,0,1.0755,3.457694E-05,16.1325,0
1.0764,4.263371E-05,16.146,0,1.0764,5.471885E-05,16.146,0
1.0773,7.150377E-05,16.1595,0,1.0773,3.524834E-05,16.1595,0
1.0782,8.82887E-05,16.173,0,1.0782,1.678492E-06,16.173,0
1.0791,1.242084E-05,16.1865,0,1.0791,-1.544213E-05,16.1865,0
1.08,-5.035477E-06,16.2,0,1.08,-2.24918E-05,16.2,0
1.0809,-1.309224E-05,16.2135,0,1.0809,-5.807584E-05,16.2135,0
1.0818,8.728161E-06,16.227,0,1.0818,-6.74754E-05,16.227,0
1.0827,3.356985E-06,16.2405,0,1.0827,-8.392462E-06,16.2405,0
1.0836,-0.0001218585,16.254,0,1.0836,1.678492E-06,16.254,0
1.0845,-6.64683E-05,16.2675,0,1.0845,-4.666209E-05,16.2675,0
1.0854,-5.035477E-06,16.281,0,1.0854,-5.102617E-05,16.281,0
1.0863,-8.224613E-05,16.2945,0,1.0863,-6.143282E-05,16.2945,0
1.0872,-7.888914E-05,16.308,0,1.0872,-5.035477E-05,16.308,0
1.0881,6.042573E-06,16.3215,0,1.0881,-3.256275E-05,16.3215,0
1.089,-6.076142E-05,16.335,0,1.089,5.337606E-05,16.335,0
1.0899,7.385367E-06,16.3485,0,1.0899,0.0001389792,16.3485,0
1.0908,4.934768E-05,16.362,0,1.0908,0.0001527428,16.362,0
1.0917,-9.399558E-06,16.3755,0,1.0917,0.0001352865,16.3755,0
1.0926,-2.652018E-05,16.389,0,1.0926,6.6804E-05,16.389,0
1.0935,-1.309224E-05,16.4025,0,1.0935,0,16.4025,0
1.0944,-1.577783E-05,16.416,0,1.0944,5.706874E-06,16.416,0
1.0953,-4.36408E-06,16.4295,0,1.0953,-3.189136E-05,16.4295,0
1.0962,-8.392462E-06,16.443,0,1.0962,-4.196231E-05,16.443,0
1.0971,5.270466E-05,16.4565,0,1.0971,-5.304036E-05,16.4565,0
1.098,7.385367E-05,16.47,0,1.098,6.378271E-06,16.47,0
1.0989,7.586786E-05,16.4835,0,1.0989,3.994812E-05,16.4835,0
1.0998,6.042573E-06,16.497,0,1.0998,-8.392462E-06,16.497,0
1.1007,-5.236896E-05,16.5105,0,1.1007,-5.740444E-05,16.5105,0
1.1016,1.409934E-05,16.524,0,1.1016,-9.365987E-05,16.524,0
1.1025,1.577783E-05,16.5375,0,1.1025,-8.661021E-05,16.5375,0
1.1034,-8.493171E-05,16.551,0,1.1034,-8.82887E-05,16.551,0
1.1043,-5.505455E-05,16.5645,0,1.1043,-0.0001007095,16.5645,0
1.1052,5.874724E-05,16.578,0,1.1052,-0.0001050736,16.578,0
1.1061,3.692683E-06,16.5915,0,1.1061,-6.948959E-05,16.5915,0
1.107,6.378271E-06,16.605,0,1.107,-6.009003E-05,16.605,0
1.1079,3.894102E-05,16.6185,0,1.1079,-9.903105E-05,16.6185,0
1.1088,7.318227E-05,16.632,0,1.1088,-0.0001440146,16.632,0
1.1097,-3.356985E-07,16.6455,0,1.1097,-6.74754E-05,16.6455,0
1.1106,-4.934768E-05,16.659,0,1.1106,-2.954147E-05,16.659,0
1.1115,3.961242E-05,16.6725,0,1.1115,-5.270466E-05,16.6725,0
1.1124,1.477073E-05,16.686,0,1.1124,-3.793393E-05,16.686,0
1.1133,-5.203327E-05,16.6995,0,1.1133,3.860533E-05,16.6995,0
1.1142,-4.934768E-05,16.713,0,1.1142,3.491264E-05,16.713,0
1.1151,1.443504E-05,16.7265,0,1.1151,2.954147E-05,16.7265,0
1.116,-6.478981E-05,16.74,0,1.116,0.0001151446,16.74,0
1.1169,3.356985E-07,16.7535,0,1.1169,0.0001225299,16.7535,0
1.1178,4.666209E-05,16.767,0,1.1178,4.800488E-05,16.767,0
1.1187,-1.712062E-05,16.7805,0,1.1187,1.309224E-05,16.7805,0
1.1196,-5.270466E-05,16.794,0,1.1196,2.987716E-05,16.794,0
1.1205,1.678492E-06,16.8075,0,1.1205,1.678492E-05,16.8075,0
1.1214,-5.001907E-05,16.821,0,1.1214,3.927672E-05,16.821,0
1.1223,-6.713969E-06,16.8345,0,1.1223,7.083238E-05,16.8345,0
1.1232,-2.1149E-05,16.848,0,1.1232,5.270466E-05,16.848,0
1.1241,-3.289845E-05,16.8615,0,1.1241,1.342794E-05,16.8615,0
1.125,-2.24918E-05,16.875,0,1.125,-2.1149E-05,16.875,0
1.1259,-3.256275E-05,16.8885,0,1.1259,-5.371176E-06,16.8885,0
1.1268,-0.0001067521,16.902,0,1.1268,9.399558E-06,16.902,0
1.1277,-2.786297E-05,16.9155,0,1.1277,-5.706874E-06,16.9155,0
1.1286,0.0001876554,16.929,0,1.1286,-1.376364E-05,16.929,0
1.1295,0.0002299535,16.9425,0,1.1295,2.920577E-05,16.9425,0
1.1304,0.0001688563,16.956,0,1.1304,4.934768E-05,16.956,0
1.1313,0.0001571069,16.9695,0,1.1313,-4.800488E-05,16.9695,0
1.1322,3.927672E-05,16.983,0,1.1322,-6.948959E-05,16.983,0
1.1331,-0.0001299153,16.9965,0,1.1331,-6.78111E-05,16.9965,0
1.134,-0.0001846342,17.01,0,1.134,-7.620356E-05,17.01,0
1.1349,-0.0002547952,17.0235,0,1.1349,-6.109713E-05,17.0235,0
1.1358,-0.0002396887,17.037,0,1.1358,-0.000119173,17.037,0
1.1367,-0.0001842985,17.0505,0,1.1367,-0.0001037308,17.0505,0
1.1376,-0.0001839628,17.064,0,1.1376,-0.0001101091,17.064,0
1.1385,-0.0002222324,17.0775,0,1.1385,-0.0001131304,17.0775,0
1.1394,-0.0001601282,17.091,0,1.1394,-0.000123537,17.091,0
1.1403,-0.0001802701,17.1045,0,1.1403,-0.0001000381,17.1045,0
1.1412,-0.0001873197,17.118,0,1.1412,-0.0001164874,17.118,0
1.1421,-0.0001007095,17.1315,0,1.1421,-0.0001406577,17.1315,0
1.143,-0.0001178302,17.145,0,1.143,-9.298848E-05,17.145,0
1.1439,1.242084E-05,17.1585,0,1.1439,-8.157473E-05,17.1585,0
1.1448,0.0001138018,17.172,0,1.1448,-0.0001322652,17.172,0
1.1457,9.365987E-05,17.1855,0,1.1457,-8.358892E-05,17.1855,0
1.1466,7.385367E-06,17.199,0,1.1466,-2.450599E-05,17.199,0
1.1475,-4.36408E-06,17.2125,0,1.1475,6.713969E-06,17.2125,0
1.1484,8.224613E-05,17.226,0,1.1484,3.356985E-07,17.226,0
1.1493,0.0001020523,17.2395,0,1.1493,-3.591974E-05,17.2395,0
1.1502,4.196231E-05,17.253,0,1.1502,-2.450599E-05,17.253,0
1.1511,3.524834E-05,17.2665,0,1.1511,-3.692683E-05,17.2665,0
1.152,7.083238E-05,17.28,0,1.152,-3.256275E-05,17.28,0
1.1529,6.814679E-05,17.2935,0,1.1529,-3.927672E-05,17.2935,0
1.1538,-6.713969E-07,17.307,0,1.1538,-2.014191E-05,17.307,0
1.1547,7.721065E-05,17.3205,0,1.1547,-4.33051E-05,17.3205,0
1.1556,0.0002007477,17.334,0,1.1556,-5.136187E-05,17.334,0
1.1565,0.0001007095,17.3475,0,1.1565,3.121996E-05,17.3475,0
1.1574,9.970245E-05,17.361,0,1.1574,3.961242E-05,17.361,0
1.1583,4.699779E-05,17.3745,0,1.1583,1.779202E-05,17.3745,0
1.1592,-1.846342E-05,17.388,0,1.1592,7.855344E-05,17.388,0
1.1601,-3.323415E-05,17.4015,0,1.1601,0.0001104448,17.4015,0
1.161,9.735256E-06,17.415,0,1.161,0.0001003738,17.415,0
1.1619,-1.242084E-05,17.4285,0,1.1619,8.493171E-05,17.4285,0
1.1628,2.920577E-05,17.442,0,1.1628,9.735256E-06,17.442,0
1.1637,1.846342E-05,17.4555,0,1.1637,-2.316319E-05,17.4555,0
1.1646,6.311131E-05,17.469,0,1.1646,-1.275654E-05,17.469,0
1.1655,4.46479E-05,17.4825,0,1.1655,-4.968337E-05,17.4825,0
1.1664,6.848249E-05,17.496,0,1.1664,-1.275654E-05,17.496,0
1.1673,3.994812E-05,17.5095,0,1.1673,0.0001144732,17.5095,0
1.1682,6.54612E-05,17.523,0,1.1682,0.0001715419,17.523,0
1.1691,0.0001245441,17.5365,0,1.1691,0.0001027237,17.5365,0
1.17,-1.174945E-05,17.55,0,1.17,3.289845E-05,17.55,0
1.1709,-2.1149E-05,17.5635,0,1.1709,-3.659113E-05,17.5635,0
1.1718,9.768826E-05,17.577,0,1.1718,-7.385367E-05,17.577,0
1.1727,8.258183E-05,17.5905,0,1.1727,-1.040665E-05,17.5905,0
1.1736,-3.625543E-05,17.604,0,1.1736,2.685588E-06,17.604,0
1.1745,-4.800488E-05,17.6175,0,1.1745,2.584878E-05,17.6175,0
1.1754,4.36408E-06,17.631,0,1.1754,5.270466E-05,17.631,0
1.1763,-2.081331E-05,17.6445,0,1.1763,-2.618448E-05,17.6445,0
1.1772,-6.277562E-05,17.658,0,1.1772,-6.814679E-05,17.658,0
1.1781,-1.644922E-05,17.6715,0,1.1781,-5.471885E-05,17.6715,0
1.179,5.706874E-06,17.685,0,1.179,-9.701686E-05,17.685,0
1.1799,-2.450599E-05,17.6985,0,1.1799,-0.000115816,17.6985,0
1.1808,-6.344701E-05,17.712,0,1.1808,-8.89601E-05,17.712,0
1.1817,-2.517739E-05,17.7255,0,1.1817,-7.251087E-05,17.7255,0
1.1826,8.392462E-06,17.739,0,1.1826,-0.0001154803,17.739,0
1.1835,-5.069047E-05,17.7525,0,1.1835,-8.627451E-05,17.7525,0
1.1844,-7.586786E-05,17.766,0,1.1844,-0.0001198444,17.766,0
1.1853,-3.793393E-05,17.7795,0,1.1853,-0.0001752346,17.7795,0
1.1862,-7.855344E-05,17.793,0,1.1862,-0.0001218585,17.793,0
1.1871,-7.888914E-05,17.8065,0,1.1871,-7.083238E-05,17.8065,0
1.188,-9.130999E-05,17.82,0,1.188,7.721065E-06,17.82,0
1.1889,-8.392462E-05,17.8335,0,1.1889,0.0001178302,17.8335,0
1.1898,-1.477073E-05,17.847,0,1.1898,0.0001433432,17.847,0
1.1907,-5.136187E-05,17.8605,0,1.1907,8.560311E-05,17.8605,0
1.1916,-4.39765E-05,17.874,0,1.1916,5.774014E-05,17.874,0
1.1925,2.349889E-05,17.8875,0,1.1925,1.745632E-05,17.8875,0
1.1934,-1.409934E-05,17.901,0,1.1934,6.378271E-06,17.901,0
1.1943,-8.392462E-06,17.9145,0,1.1943,6.948959E-05,17.9145,0
1.1952,0.000109102,17.928,0,1.1952,6.210422E-05,17.928,0
1.1961,0.0001433432,17.9415,0,1.1961,3.323415E-05,17.9415,0
1.197,1.577783E-05,17.955,0,1.197,7.956054E-05,17.955,0
1.1979,-6.6804E-05,17.9685,0,1.1979,4.39765E-05,17.9685,0
1.1988,-3.860533E-05,17.982,0,1.1988,-4.196231E-05,17.982,0
1.1997,-6.78111E-05,17.9955,0,1.1997,-2.484169E-05,17.9955,0
1.2006,-0.0001473716,18.009,0,1.2006,-2.987716E-05,18.009,0
1.2015,-5.941863E-05,18.0225,0,1.2015,-4.36408E-05,18.0225,0
1.2024,-4.565499E-05,18.036,0,1.2024,3.356985E-07,18.036,0
1.2033,-1.510643E-05,18.0495,0,1.2033,-2.18204E-05,18.0495,0
1.2042,9.735256E-06,18.063,0,1.2042,-4.129091E-05,18.063,0
1.2051,-1.779202E-05,18.0765,0,1.2051,-7.888914E-05,18.0765,0
1.206,4.028382E-06,18.09,0,1.206,-8.493171E-05,18.09,0
1.2069,4.599069E-05,18.1035,0,1.2069,-7.183947E-05,18.1035,0
1.2078,2.349889E-06,18.117,0,1.2078,-4.867628E-05,18.117,0
1.2087,1.443504E-05,18.1305,0,1.2087,-3.793393E-05,18.1305,0
1.2096,8.493171E-05,18.144,0,1.2096,-2.18204E-05,18.144,0
1.2105,-8.392462E-06,18.1575,0,1.2105,6.210422E-05,18.1575,0
1.2114,1.007095E-06,18.171,0,1.2114,3.289845E-05,18.171,0
1.2123,6.344701E-05,18.1845,0,1.2123,-5.539025E-05,18.1845,0
1.2132,9.097429E-05,18.198,0,1.2132,-3.994812E-05,18.198,0
1.2141,8.358892E-05,18.2115,0,1.2141,-1.040665E-05,18.2115,0
1.215,8.023193E-05,18.225,0,1.215,-3.457694E-05,18.225,0
1.2159,8.258183E-05,18.2385,0,1.2159,-5.539025E-05,18.2385,0
1.2168,7.049668E-06,18.252,0,1.2168,-0.0001094377,18.252,0
1.2177,-0.0001242084,18.2655,0,1.2177,-9.433127E-05,18.2655,0
1.2186,-0.0001550927,18.279,0,1.2186,-8.291753E-05,18.279,0
1.2195,-0.0001856413,18.2925,0,1.2195,-0.0001205158,18.2925,0
1.2204,-0.0002077974,18.306,0,1.2204,-0.000126894,18.306,0
1.2213,-0.0002252537,18.3195,0,1.2213,-8.090334E-05,18.3195,0
1.2222,-0.0001668421,18.333,0,1.2222,-7.821774E-05,18.333,0
1.2231,-4.733349E-05,18.3465,0,1.2231,-8.224613E-05,18.3465,0
1.224,-1.577783E-05,18.36,0,1.224,3.356985E-07,18.36,0
1.2249,2.517739E-05,18.3735,0,1.2249,3.424125E-05,18.3735,0
1.2258,5.337606E-05,18.387,0,1.2258,1.309224E-05,18.387,0
1.2267,-7.553216E-05,18.4005,0,1.2267,3.994812E-05,18.4005,0
1.2276,-4.29694E-05,18.414,0,1.2276,4.33051E-05,18.414,0
1.2285,1.577783E-05,18.4275,0,1.2285,-1.376364E-05,18.4275,0
1.2294,-2.383459E-05,18.441,0,1.2294,-4.53193E-05,18.441,0
1.2303,3.524834E-05,18.4545,0,1.2303,-5.908293E-05,18.4545,0
1.2312,-2.786297E-05,18.468,0,1.2312,-1.174945E-05,18.468,0
1.2321,-9.365987E-05,18.4815,0,1.2321,2.349889E-06,18.4815,0
1.233,-5.740444E-05,18.495,0,1.233,-3.994812E-05,18.495,0
1.2339,-9.600977E-05,18.5085,0,1.2339,-4.867628E-05,18.5085,0
1.2348,-0.0001748989,18.522,0,1.2348,-1.107805E-05,18.522,0
1.2357,-8.96315E-05,18.5355,0,1.2357,-1.007095E-05,18.5355,0
1.2366,8.392462E-06,18.549,0,1.2366,-7.418937E-05,18.549,0
1.2375,1.544213E-05,18.5625,0,1.2375,-5.102617E-05,18.5625,0
1.2384,6.74754E-05,18.576,0,1.2384,-5.941863E-05,18.576,0
1.2393,0.000144686,18.5895,0,1.2393,-8.593881E-05,18.5895,0
1.2402,0.0001779202,18.603,0,1.2402,-7.284657E-05,18.603,0
1.2411,0.0001258869,18.6165,0,1.2411,-5.471885E-05,18.6165,0
1.242,0.0002010834,18.63,0,1.242,-4.766919E-05,18.63,0
1.2429,0.0001688563,18.6435,0,1.2429,4.028382E-06,18.6435,0
1.2438,0.0001332723,18.657,0,1.2438,3.323415E-05,18.657,0
1.2447,8.493171E-05,18.6705,0,1.2447,0.0001070878,18.6705,0
1.2456,3.558404E-05,18.684,0,1.2456,0.0001242084,18.684,0
1.2465,8.157473E-05,18.6975,0,1.2465,6.478981E-05,18.6975,0
1.2474,0.0001520714,18.711,0,1.2474,3.994812E-05,18.711,0
1.2483,0.0001144732,18.7245,0,1.2483,6.277562E-05,18.7245,0
1.2492,4.53193E-05,18.738,0,1.2492,3.189136E-05,18.738,0
1.2501,9.298848E-05,18.7515,0,1.2501,-1.107805E-05,18.7515,0
1.251,1.980621E-05,18.765,0,1.251,1.678492E-06,18.765,0
1.2519,-3.021286E-06,18.7785,0,1.2519,-1.812772E-05,18.7785,0
1.2528,8.325322E-05,18.792,0,1.2528,-8.224613E-05,18.792,0
1.2537,6.54612E-05,18.8055,0,1.2537,-4.46479E-05,18.8055,0
1.2546,2.551309E-05,18.819,0,1.2546,1.913481E-05,18.819,0
1.2555,-5.706874E-06,18.8325,0,1.2555,2.047761E-05,18.8325,0
1.2564,-6.042573E-06,18.846,0,1.2564,2.819867E-05,18.846,0
1.2573,6.713969E-06,18.8595,0,1.2573,4.800488E-05,18.8595,0
1.2582,-2.719158E-05,18.873,0,1.2582,9.970245E-05,18.873,0
1.2591,-0.0001221943,18.8865,0,1.2591,8.526741E-05,18.8865,0
1.26,-4.599069E-05,18.9,0,1.26,5.941863E-05,18.9,0
1.2609,-7.418937E-05,18.9135,0,1.2609,2.047761E-05,18.9135,0
1.2618,-0.000133608,18.927,0,1.2618,3.121996E-05,18.927,0
1.2627,-7.183947E-05,18.9405,0,1.2627,6.042573E-06,18.9405,0
1.2636,-5.606165E-05,18.954,0,1.2636,-6.210422E-05,18.954,0
1.2645,-0.0001550927,18.9675,0,1.2645,-3.256275E-05,18.9675,0
1.2654,-9.298848E-05,18.981,0,1.2654,4.733349E-05,18.981,0
1.2663,-8.224613E-05,18.9945,0,1.2663,7.721065E-06,18.9945,0
1.2672,-6.51255E-05,19.008,0,1.2672,2.21561E-05,19.008,0
1.2681,-5.203327E-05,19.0215,0,1.2681,3.793393E-05,19.0215,0
1.269,-7.083238E-05,19.035,0,1.269,2.24918E-05,19.035,0
1.2699,-8.056764E-05,19.0485,0,1.2699,-1.544213E-05,19.0485,0
1.2708,-5.673304E-05,19.062,0,1.2708,-6.478981E-05,19.062,0
1.2717,-8.325322E-05,19.0755,0,1.2717,-3.927672E-05,19.0755,0
1.2726,-0.0001087663,19.089,0,1.2726,-7.754635E-05,19.089,0
1.2735,-7.049668E-05,19.1025,0,1.2735,-0.0001409934,19.1025,0
1.2744,2.014191E-06,19.116,0,1.2744,-0.0001473716,19.116,0
1.2753,-2.21561E-05,19.1295,0,1.2753,-9.903105E-05,19.1295,0
1.2762,-5.706874E-06,19.143,0,1.2762,-7.620356E-05,19.143,0
1.2771,5.606165E-05,19.1565,0,1.2771,-0.0001225299,19.1565,0
1.278,-5.874724E-05,19.17,0,1.278,-7.083238E-05,19.17,0
1.2789,-5.035477E-06,19.1835,0,1.2789,-4.733349E-05,19.1835,0
1.2798,6.948959E-05,19.197,0,1.2798,-9.903105E-05,19.197,0
1.2807,-1.846342E-05,19.2105,0,1.2807,-8.661021E-05,19.2105,0
1.2816,-7.721065E-05,19.224,0,1.2816,-1.242084E-05,19.224,0
1.2825,-1.242084E-05,19.2375,0,1.2825,-1.745632E-05,19.2375,0
1.2834,4.36408E-06,19.251,0,1.2834,-2.853437E-05,19.251,0
1.2843,-1.510643E-05,19.2645,0,1.2843,-5.740444E-05,19.2645,0
1.2852,-5.035477E-06,19.278,0,1.2852,-3.659113E-05,19.278,0
1.2861,6.042573E-06,19.2915,0,1.2861,-2.24918E-05,19.2915,0
1.287,3.726253E-05,19.305,0,1.287,-6.277562E-05,19.305,0
1.2879,0.0001426719,19.3185,0,1.2879,-5.740444E-05,19.3185,0
1.2888,0.0001003738,19.332,0,1.2888,-2.484169E-05,19.332,0
1.2897,8.560311E-05,19.3455,0,1.2897,-3.625543E-05,19.3455,0
1.2906,0.0001084306,19.359,0,1.2906,-4.061952E-05,19.359,0
1.2915,8.191043E-05,19.3725,0,1.2915,1.510643E-05,19.3725,0
1.2924,0.000154757,19.386,0,1.2924,7.721065E-06,19.386,0
1.2933,0.0002064546,19.3995,0,1.2933,1.040665E-05,19.3995,0
1.2942,6.478981E-05,19.413,0,1.2942,3.692683E-05,19.413,0
1.2951,3.189136E-05,19.4265,0,1.2951,3.424125E-05,19.4265,0
1.296,-5.404745E-05,19.44,0,1.296,2.383459E-05,19.44,0
1.2969,-9.298848E-05,19.4535,0,1.2969,1.712062E-05,19.4535,0
1.2978,-9.500267E-05,19.467,0,1.2978,1.242084E-05,19.467,0
1.2987,-0.0001769131,19.4805,0,1.2987,2.551309E-05,19.4805,0
1.2996,-0.0002192111,19.494,0,1.2996,-9.063859E-06,19.494,0
1.3005,-0.0001745632,19.5075,0,1.3005,-3.659113E-05,19.5075,0
1.3014,-0.0001460288,19.521,0,1.3014,-3.994812E-05,19.521,0
1.3023,-0.0001816129,19.5345,0,1.3023,-2.316319E-05,19.5345,0
1.3032,-0.0001077592,19.548,0,1.3032,-6.344701E-05,19.548,0
1.3041,-7.150377E-05,19.5615,0,1.3041,-0.0001013809,19.5615,0
1.305,-7.217517E-05,19.575,0,1.305,-7.083238E-05,19.575,0
1.3059,3.323415E-05,19.5885,0,1.3059,-4.599069E-05,19.5885,0
1.3068,9.466698E-05,19.602,0,1.3068,4.36408E-06,19.602,0
1.3077,8.392462E-06,19.6155,0,1.3077,7.620356E-05,19.6155,0
1.3086,-3.356985E-07,19.629,0,1.3086,8.526741E-05,19.629,0
1.3095,0.0001003738,19.6425,0,1.3095,0.0001151446,19.6425,0
1.3104,0.000158114,19.656,0,1.3104,7.620356E-05,19.656,0
1.3113,0.0001728847,19.6695,0,1.3113,3.021286E-06,19.6695,0
1.3122,0.0001879911,19.683,0,1.3122,4.666209E-05,19.683,0
1.3131,0.0001138018,19.6965,0,1.3131,6.411841E-05,19.6965,0
1.314,0.0001597925,19.71,0,1.314,4.901198E-05,19.71,0
1.3149,0.0002252537,19.7235,0,1.3149,6.915389E-05,19.7235,0
1.3158,9.365987E-05,19.737,0,1.3158,0.0001161517,19.737,0
1.3167,6.57969E-05,19.7505,0,1.3167,0.0001017166,19.7505,0
1.3176,0.0001376364,19.764,0,1.3176,3.591974E-05,19.764,0
1.3185,2.24918E-05,19.7775,0,1.3185,4.934768E-05,19.7775,0
1.3194,-1.812772E-05,19.791,0,1.3194,5.136187E-05,19.791,0
1.3203,1.846342E-05,19.8045,0,1.3203,-3.054856E-05,19.8045,0
1.3212,6.277562E-05,19.818,0,1.3212,-5.001907E-05,19.818,0
1.3221,-2.853437E-05,19.8315,0,1.3221,-4.565499E-05,19.8315,0
1.323,2.853437E-05,19.845,0,1.323,-5.706874E-05,19.845,0
1.3239,5.505455E-05,19.8585,0,1.3239,-6.57969E-05,19.8585,0
1.3248,3.591974E-05,19.872,0,1.3248,-2.584878E-05,19.872,0
1.3257,-1.242084E-05,19.8855,0,1.3257,6.74754E-05,19.8855,0
1.3266,-0.0001017166,19.899,0,1.3266,2.853437E-05,19.899,0
1.3275,-0.0001037308,19.9125,0,1.3275,-7.788205E-05,19.9125,0
1.3284,-5.035477E-05,19.926,0,1.3284,-8.761731E-05,19.926,0
1.3293,-4.867628E-05,19.9395,0,1.3293,-7.452507E-05,19.9395,0
1.3302,-1.712062E-05,19.953,0,1.3302,-8.89601E-05,19.953,0
1.3311,1.208515E-05,19.9665,0,1.3311,-9.399557E-05,19.9665,0
1.332,-1.712062E-05,19.98,0,1.332,-4.733349E-05,19.98,0
1.3329,1.846342E-05,19.9935,0,1.3329,-5.774014E-05,19.9935,0
1.3338,6.076142E-05,20.007,0,1.3338,-9.970245E-05,20.007,0
1.3347,1.678492E-05,20.0205,0,1.3347,-6.478981E-05,20.0205,0
1.3356,-5.774014E-05,20.034,0,1.3356,-5.069047E-05,20.034,0
1.3365,-8.996719E-05,20.0475,0,1.3365,-9.533837E-05,20.0475,0
1.3374,-3.927672E-05,20.061,0,1.3374,-8.72816E-05,20.061,0
1.3383,1.275654E-05,20.0745,0,1.3383,-7.351797E-05,20.0745,0
1.3392,-9.735256E-05,20.088,0,1.3392,-4.733349E-05,20.088,0
1.3401,-0.0001359579,20.1015,0,1.3401,-8.258183E-05,20.1015,0
1.341,-8.291753E-05,20.115,0,1.341,-0.0001030594,20.115,0
1.3419,-1.846342E-05,20.1285,0,1.3419,-8.358892E-05,20.1285,0
1.3428,-9.231708E-05,20.142,0,1.3428,-3.491264E-05,20.142,0
1.3437,-7.821774E-05,20.1555,0,1.3437,-5.606165E-05,20.1555,0
1.3446,-2.786297E-05,20.169,0,1.3446,-0.0001111162,20.169,0
1.3455,-9.332418E-05,20.1825,0,1.3455,-5.471885E-05,20.1825,0
1.3464,-5.572595E-05,20.196,0,1.3464,-4.733349E-05,20.196,0
1.3473,-9.735256E-06,20.2095,0,1.3473,-8.090334E-05,20.2095,0
1.3482,-0.0001161517,20.223,0,1.3482,-5.471885E-05,20.223,0
1.3491,-0.0001560998,20.2365,0,1.3491,-3.021286E-05,20.2365,0
1.35,-8.157473E-05,20.25,0,1.35,-4.666209E-05,20.25,0
1.3509,-8.761731E-05,20.2635,0,1.3509,-6.243992E-05,20.2635,0
1.3518,-5.941863E-05,20.277,0,1.3518,-0.0001064164,20.277,0
1.3527,-9.869535E-05,20.2905,0,1.3527,-9.500267E-05,20.2905,0
1.3536,-7.418937E-05,20.304,0,1.3536,-6.478981E-05,20.304,0
1.3545,-4.867628E-05,20.3175,0,1.3545,-6.54612E-05,20.3175,0
1.3554,-3.155566E-05,20.331,0,1.3554,1.342794E-05,20.331,0
1.3563,-2.887007E-05,20.3445,0,1.3563,6.109713E-05,20.3445,0
1.3572,-9.063859E-06,20.358,0,1.3572,3.256275E-05,20.358,0
1.3581,8.325322E-05,20.3715,0,1.3581,3.088426E-05,20.3715,0
1.359,8.090334E-05,20.385,0,1.359,0.0001490501,20.385,0
1.3599,3.021286E-05,20.3985,0,1.3599,0.0001463645,20.3985,0
1.3608,8.69459E-05,20.412,0,1.3608,6.042573E-05,20.412,0
1.3617,5.606165E-05,20.4255,0,1.3617,4.901198E-05,20.4255,0
1.3626,-2.21561E-05,20.439,0,1.3626,5.706874E-05,20.439,0
1.3635,-3.054856E-05,20.4525,0,1.3635,2.853437E-05,20.4525,0
1.3644,-5.874724E-05,20.466,0,1.3644,1.712062E-05,20.466,0
1.3653,-9.500267E-05,20.4795,0,1.3653,1.174945E-05,20.4795,0
1.3662,-0.0001164874,20.493,0,1.3662,4.263371E-05,20.493,0
1.3671,-0.0001520714,20.5065,0,1.3671,4.53193E-05,20.5065,0
1.368,-9.634547E-05,20.52,0,1.368,6.378271E-06,20.52,0
1.3689,-9.433127E-05,20.5335,0,1.3689,-4.162661E-05,20.5335,0
1.3698,-7.083238E-05,20.547,0,1.3698,-9.063859E-06,20.547,0
1.3707,2.853437E-05,20.5605,0,1.3707,-4.968337E-05,20.5605,0
1.3716,7.418937E-05,20.574,0,1.3716,-0.0001211871,20.574,0
1.3725,-1.477073E-05,20.5875,0,1.3725,-0.0001114519,20.5875,0
1.3734,3.860533E-05,20.601,0,1.3734,-0.0001349508,20.601,0
1.3743,0.0001661708,20.6145,0,1.3743,-0.0001376364,20.6145,0
1.3752,0.00024271,20.628,0,1.3752,-5.740444E-05,20.628,0
1.3761,0.0002541238,20.6415,0,1.3761,-4.699779E-06,20.6415,0
1.377,0.0001963836,20.655,0,1.377,1.242084E-05,20.655,0
1.3779,0.000148043,20.6685,0,1.3779,1.040665E-05,20.6685,0
1.3788,9.097429E-05,20.682,0,1.3788,-4.36408E-06,20.682,0
1.3797,4.36408E-06,20.6955,0,1.3797,7.318227E-05,20.6955,0
1.3806,-7.284657E-05,20.709,0,1.3806,0.0001064164,20.709,0
1.3815,-0.0001520714,20.7225,0,1.3815,6.6804E-05,20.7225,0
1.3824,-0.0001701991,20.736,0,1.3824,3.692683E-05,20.736,0
1.3833,-0.0002517739,20.7495,0,1.3833,4.766919E-05,20.7495,0
1.3842,-0.0002024262,20.763,0,1.3842,2.18204E-05,20.763,0
1.3851,-0.0001044022,20.7765,0,1.3851,-2.047761E-05,20.7765,0
1.386,-0.0001426719,20.79,0,1.386,3.356985E-05,20.79,0
1.3869,-6.915389E-05,20.8035,0,1.3869,1.712062E-05,20.8035,0
1.3878,2.316319E-05,20.817,0,1.3878,-4.666209E-05,20.817,0
1.3887,-0.0001198444,20.8305,0,1.3887,-3.826963E-05,20.8305,0
1.3896,-0.0001104448,20.844,0,1.3896,-3.088426E-05,20.844,0
1.3905,-2.719158E-05,20.8575,0,1.3905,-5.270466E-05,20.8575,0
1.3914,-3.591974E-05,20.871,0,1.3914,-6.243992E-05,20.871,0
1.3923,-6.814679E-05,20.8845,0,1.3923,-0.0001037308,20.8845,0
1.3932,-8.526741E-05,20.898,0,1.3932,-0.0001030594,20.898,0
1.3941,-8.795301E-05,20.9115,0,1.3941,-9.164568E-05,20.9115,0
1.395,-0.0001168231,20.925,0,1.395,-0.0001373007,20.925,0
1.3959,-8.258183E-05,20.9385,0,1.3959,-0.0001621424,20.9385,0
1.3968,-7.150377E-05,20.952,0,1.3968,-0.0001117876,20.952,0
1.3977,-4.49836E-05,20.9655,0,1.3977,-0.000109102,20.9655,0
1.3986,1.712062E-05,20.979,0,1.3986,-0.0001279011,20.979,0
1.3995,-4.095522E-05,20.9925,0,1.3995,-8.023193E-05,20.9925,0
1.4004,6.713969E-06,21.006,0,1.4004,-5.740444E-05,21.006,0
1.4013,5.874724E-05,21.0195,0,1.4013,-6.61326E-05,21.0195,0
1.4022,9.735256E-05,21.033,0,1.4022,-1.510643E-05,21.033,0
1.4031,6.54612E-05,21.0465,0,1.4031,6.378271E-06,21.0465,0
1.404,5.404745E-05,21.06,0,1.404,-1.409934E-05,21.06,0
1.4049,0.0001007095,21.0735,0,1.4049,-1.712062E-05,21.0735,0
1.4058,0.0001507286,21.087,0,1.4058,-2.014191E-06,21.087,0
1.4067,7.922484E-05,21.1005,0,1.4067,3.625543E-05,21.1005,0
1.4076,8.560311E-05,21.114,0,1.4076,6.61326E-05,21.114,0
1.4085,0.0001077592,21.1275,0,1.4085,7.049668E-05,21.1275,0
1.4094,9.433127E-05,21.141,0,1.4094,6.042573E-05,21.141,0
1.4103,2.1149E-05,21.1545,0,1.4103,0.0001064164,21.1545,0
1.4112,4.095522E-05,21.168,0,1.4112,0.0001003738,21.168,0
1.4121,5.136187E-05,21.1815,0,1.4121,4.934768E-05,21.1815,0
1.413,7.049668E-06,21.195,0,1.413,7.519646E-05,21.195,0
1.4139,2.652018E-05,21.2085,0,1.4139,6.78111E-05,21.2085,0
1.4148,0.0001215228,21.222,0,1.4148,1.040665E-05,21.222,0
1.4157,2.517739E-05,21.2355,0,1.4157,3.356985E-07,21.2355,0
1.4166,4.263371E-05,21.249,0,1.4166,2.014191E-06,21.249,0
1.4175,0.0001111162,21.2625,0,1.4175,-1.007095E-06,21.2625,0
1.4184,8.82887E-05,21.276,0,1.4184,-1.007095E-05,21.276,0
1.4193,0.000112459,21.2895,0,1.4193,-1.477073E-05,21.2895,0
1.4202,9.600977E-05,21.303,0,1.4202,-1.342794E-06,21.303,0
1.4211,-1.510643E-05,21.3165,0,1.4211,-3.793393E-05,21.3165,0
1.422,4.095522E-05,21.33,0,1.422,-7.989624E-05,21.33,0
1.4229,9.164568E-05,21.3435,0,1.4229,-0.0001047379,21.3435,0
1.4238,-3.860533E-05,21.357,0,1.4238,-9.701686E-05,21.357,0
1.4247,-1.174945E-05,21.3705,0,1.4247,-0.0001087663,21.3705,0
1.4256,9.500267E-05,21.384,0,1.4256,-9.567407E-05,21.384,0
1.4265,1.745632E-05,21.3975,0,1.4265,-3.927672E-05,21.3975,0
1.4274,3.054856E-05,21.411,0,1.4274,-7.016098E-05,21.411,0
1.4283,8.291753E-05,21.4245,0,1.4283,-0.0001413291,21.4245,0
1.4292,3.961242E-05,21.438,0,1.4292,-9.567407E-05,21.438,0
1.4301,-3.994812E-05,21.4515,0,1.4301,-3.927672E-05,21.4515,0
1.431,3.591974E-05,21.465,0,1.431,-3.189136E-05,21.465,0
1.4319,8.358892E-05,21.4785,0,1.4319,-3.021286E-06,21.4785,0
1.4328,9.634547E-05,21.492,0,1.4328,-9.063859E-06,21.492,0
1.4337,6.109713E-05,21.5055,0,1.4337,1.980621E-05,21.5055,0
1.4346,-1.007095E-06,21.519,0,1.4346,5.505455E-05,21.519,0
1.4355,5.572595E-05,21.5325,0,1.4355,5.102617E-05,21.5325,0
1.4364,0.0001080949,21.546,0,1.4364,4.53193E-05,21.546,0
1.4373,4.162661E-05,21.5595,0,1.4373,0.0001037308,21.5595,0
1.4382,4.800488E-05,21.573,0,1.4382,0.000112459,21.573,0
1.4391,4.36408E-05,21.5865,0,1.4391,7.721065E-06,21.5865,0
1.44,-6.411841E-05,21.6,0,1.44,2.987716E-05,21.6,0
1.4409,-2.24918E-05,21.6135,0,1.4409,4.46479E-05,21.6135,0
1.4418,-8.728161E-06,21.627,0,1.4418,-5.706874E-06,21.627,0
1.4427,1.040665E-05,21.6405,0,1.4427,-2.383459E-05,21.6405,0
1.4436,-6.243992E-05,21.654,0,1.4436,1.678492E-05,21.654,0
1.4445,-6.478981E-05,21.6675,0,1.4445,7.049668E-06,21.6675,0
1.4454,-6.311131E-05,21.681,0,1.4454,4.36408E-06,21.681,0
1.4463,-4.43122E-05,21.6945,0,1.4463,-2.18204E-05,21.6945,0
1.4472,-0.000126894,21.708,0,1.4472,-1.007095E-06,21.708,0
1.4481,-0.0002017548,21.7215,0,1.4481,6.378271E-06,21.7215,0
1.449,-0.0001386435,21.735,0,1.449,-3.659113E-05,21.735,0
1.4499,-9.164568E-05,21.7485,0,1.4499,-4.867628E-05,21.7485,0
1.4508,-0.0002077974,21.762,0,1.4508,-1.913481E-05,21.762,0
1.4517,-0.000119173,21.7755,0,1.4517,-2.047761E-05,21.7755,0
1.4526,-5.471885E-05,21.789,0,1.4526,-6.076142E-05,21.789,0
1.4535,-0.0001668421,21.8025,0,1.4535,-1.040665E-05,21.8025,0
1.4544,-0.0001433432,21.816,0,1.4544,-2.28275E-05,21.816,0
1.4553,-0.000136965,21.8295,0,1.4553,-5.941863E-05,21.8295,0
1.4562,-0.0002521096,21.843,0,1.4562,-5.270466E-05,21.843,0
1.4571,-0.0002030976,21.8565,0,1.4571,-3.256275E-05,21.8565,0
1.458,-0.0001037308,21.87,0,1.458,-4.263371E-05,21.87,0
1.4589,-7.016098E-05,21.8835,0,1.4589,-5.270466E-05,21.8835,0
1.4598,1.879912E-05,21.897,0,1.4598,-7.754635E-05,21.897,0
1.4607,8.191043E-05,21.9105,0,1.4607,-7.888914E-05,21.9105,0
1.4616,3.961242E-05,21.924,0,1.4616,-7.486076E-05,21.924,0
1.4625,2.920577E-05,21.9375,0,1.4625,-0.0001164874,21.9375,0
1.4634,8.761731E-05,21.951,0,1.4634,-0.0001138018,21.951,0
1.4643,9.063859E-06,21.9645,0,1.4643,-8.795301E-05,21.9645,0
1.4652,1.309224E-05,21.978,0,1.4652,-0.0001010452,21.978,0
1.4661,0.0001017166,21.9915,0,1.4661,-0.0001050736,21.9915,0
1.467,3.860533E-05,22.005,0,1.467,-3.894102E-05,22.005,0
1.4679,6.54612E-05,22.0185,0,1.4679,-2.584878E-05,22.0185,0
1.4688,0.0001258869,22.032,0,1.4688,-5.673304E-05,22.032,0
1.4697,-3.692683E-06,22.0455,0,1.4697,-3.323415E-05,22.0455,0
1.4706,1.779202E-05,22.059,0,1.4706,2.21561E-05,22.059,0
1.4715,6.54612E-05,22.0725,0,1.4715,2.349889E-05,22.0725,0
1.4724,4.46479E-05,22.086,0,1.4724,5.035477E-06,22.086,0
1.4733,2.484169E-05,22.0995,0,1.4733,-4.36408E-06,22.0995,0
1.4742,-2.786297E-05,22.113,0,1.4742,3.457694E-05,22.113,0
1.4751,9.063859E-06,22.1265,0,1.4751,6.948959E-05,22.1265,0
1.476,-1.678492E-06,22.14,0,1.476,3.726253E-05,22.14,0
1.4769,9.063859E-06,22.1535,0,1.4769,2.752728E-05,22.1535,0
1.4778,6.713969E-07,22.167,0,1.4778,7.016098E-05,22.167,0
1.4787,-4.095522E-05,22.1805,0,1.4787,5.270466E-05,22.1805,0
1.4796,4.263371E-05,22.194,0,1.4796,1.376364E-05,22.194,0
1.4805,2.853437E-05,22.2075,0,1.4805,5.606165E-05,22.2075,0
1.4814,3.457694E-05,22.221,0,1.4814,8.090334E-05,22.221,0
1.4823,4.968337E-05,22.2345,0,1.4823,6.74754E-05,22.2345,0
1.4832,-5.740444E-05,22.248,0,1.4832,8.96315E-05,22.248,0
1.4841,-0.0001003738,22.2615,0,1.4841,0.0001164874,22.2615,0
1.485,-4.901198E-05,22.275,0,1.485,9.164568E-05,22.275,0
1.4859,-7.150377E-05,22.2885,0,1.4859,4.129091E-05,22.2885,0
1.4868,1.947051E-05,22.302,0,1.4868,-3.356985E-06,22.302,0
1.4877,2.450599E-05,22.3155,0,1.4877,3.054856E-05,22.3155,0
1.4886,2.383459E-05,22.329,0,1.4886,3.021286E-05,22.329,0
1.4895,6.210422E-05,22.3425,0,1.4895,7.049668E-06,22.3425,0
1.4904,7.049668E-06,22.356,0,1.4904,-3.021286E-06,22.356,0
1.4913,-8.493171E-05,22.3695,0,1.4913,-3.692683E-06,22.3695,0
1.4922,-5.337606E-05,22.383,0,1.4922,-8.69459E-05,22.383,0
1.4931,8.392462E-06,22.3965,0,1.4931,-0.0001473716,22.3965,0
1.494,-8.72816E-05,22.41,0,1.494,-0.0001322652,22.41,0
1.4949,-6.344701E-05,22.4235,0,1.4949,-0.0001829557,22.4235,0
1.4958,-1.376364E-05,22.437,0,1.4958,-0.0002487526,22.437,0
1.4967,6.713969E-06,22.4505,0,1.4967,-0.0001876554,22.4505,0
1.4976,-1.007095E-05,22.464,0,1.4976,-0.0001047379,22.464,0
1.4985,3.289845E-05,22.4775,0,1.4985,-8.560311E-05,22.4775,0
1.4994,-1.644922E-05,22.491,0,1.4994,-7.418937E-05,22.491,0
1.5003,3.323415E-05,22.5045,0,1.5003,-7.217517E-05,22.5045,0
1.5012,8.157473E-05,22.518,0,1.5012,-6.478981E-05,22.518,0
1.5021,5.001907E-05,22.5315,0,1.5021,-0.0001104448,22.5315,0
1.503,-1.174945E-05,22.545,0,1.503,-8.627451E-05,22.545,0
1.5039,7.721065E-06,22.5585,0,1.5039,-3.927672E-05,22.5585,0
1.5048,-1.309224E-05,22.572,0,1.5048,1.510643E-05,22.572,0
1.5057,-4.934768E-05,22.5855,0,1.5057,-2.685588E-06,22.5855,0
1.5066,-7.049668E-06,22.599,0,1.5066,-4.061952E-05,22.599,0
1.5075,-0.0001134661,22.6125,0,1.5075,6.713969E-06,22.6125,0
1.5084,-0.0001473716,22.626,0,1.5084,3.625543E-05,22.626,0
1.5093,-0.0001178302,22.6395,0,1.5093,1.376364E-05,22.6395,0
1.5102,-0.0001077592,22.653,0,1.5102,6.277562E-05,22.653,0
1.5111,-0.0001218585,22.6665,0,1.5111,8.82887E-05,22.6665,0
1.512,-0.0001252155,22.68,0,1.512,4.666209E-05,22.68,0
1.5129,-5.673304E-05,22.6935,0,1.5129,9.063859E-06,22.6935,0
1.5138,-5.035477E-06,22.707,0,1.5138,-2.316319E-05,22.707,0
1.5147,-6.210422E-05,22.7205,0,1.5147,-3.021286E-06,22.7205,0
1.5156,-4.699779E-05,22.734,0,1.5156,3.356985E-06,22.734,0
1.5165,3.927672E-05,22.7475,0,1.5165,-1.443504E-05,22.7475,0
1.5174,8.82887E-05,22.761,0,1.5174,-3.356985E-06,22.761,0
1.5183,6.143282E-05,22.7745,0,1.5183,7.318227E-05,22.7745,0
1.5192,6.243992E-05,22.788,0,1.5192,6.009003E-05,22.788,0
1.5201,7.620356E-05,22.8015,0,1.5201,3.457694E-05,22.8015,0
1.521,2.1149E-05,22.815,0,1.521,6.948959E-05,22.815,0
1.5219,2.047761E-05,22.8285,0,1.5219,8.560311E-05,22.8285,0
1.5228,9.903105E-05,22.842,0,1.5228,5.606165E-05,22.842,0
1.5237,-2.920577E-05,22.8555,0,1.5237,5.941863E-05,22.8555,0
1.5246,1.443504E-05,22.869,0,1.5246,6.478981E-05,22.869,0
1.5255,6.57969E-05,22.8825,0,1.5255,4.129091E-05,22.8825,0
1.5264,6.51255E-05,22.896,0,1.5264,-6.713969E-07,22.896,0
1.5273,0.0001406577,22.9095,0,1.5273,-5.136187E-05,22.9095,0
1.5282,0.0001366293,22.923,0,1.5282,-5.035477E-05,22.923,0
1.5291,0.0001379721,22.9365,0,1.5291,-5.203327E-05,22.9365,0
1.53,0.000140322,22.95,0,1.53,-8.191043E-05,22.95,0
1.5309,0.0001795987,22.9635,0,1.5309,-0.0001013809,22.9635,0
1.5318,5.539025E-05,22.977,0,1.5318,-8.661021E-05,22.977,0
1.5327,7.083238E-05,22.9905,0,1.5327,-0.0001010452,22.9905,0
1.5336,0.0001487144,23.004,0,1.5336,-0.0001413291,23.004,0
1.5345,2.28275E-05,23.0175,0,1.5345,-0.0001017166,23.0175,0
1.5354,5.035477E-06,23.031,0,1.5354,-7.956054E-05,23.031,0
1.5363,8.82887E-05,23.0445,0,1.5363,-0.000115816,23.0445,0
1.5372,4.49836E-05,23.058,0,1.5372,-0.0001094377,23.058,0
1.5381,1.812772E-05,23.0715,0,1.5381,-5.404745E-05,23.0715,0
1.539,6.311131E-05,23.085,0,1.539,-3.390555E-05,23.085,0
1.5399,5.975433E-05,23.0985,0,1.5399,-2.853437E-05,23.0985,0
1.5408,1.107805E-05,23.112,0,1.5408,-2.551309E-05,23.112,0
1.5417,-4.129091E-05,23.1255,0,1.5417,1.107805E-05,23.1255,0
1.5426,-0.0001027237,23.139,0,1.5426,4.229801E-05,23.139,0
1.5435,-9.701686E-05,23.1525,0,1.5435,-1.007095E-06,23.1525,0
1.5444,-0.0001299153,23.166,0,1.5444,-1.644922E-05,23.166,0
1.5453,-0.000161471,23.1795,0,1.5453,2.014191E-05,23.1795,0
1.5462,-0.0001507286,23.193,0,1.5462,0,23.193,0
1.5471,-0.0001080949,23.2065,0,1.5471,-2.081331E-05,23.2065,0
1.548,-0.0001527428,23.22,0,1.548,1.007095E-05,23.22,0
1.5489,-0.0001540856,23.2335,0,1.5489,-7.721065E-06,23.2335,0
1.5498,-0.0001386435,23.247,0,1.5498,-4.196231E-05,23.247,0
1.5507,-0.0001406577,23.2605,0,1.5507,-3.222705E-05,23.2605,0
1.5516,-0.0001671778,23.274,0,1.5516,-1.678492E-06,23.274,0
1.5525,-9.063859E-05,23.2875,0,1.5525,-2.652018E-05,23.2875,0
1.5534,-3.189136E-05,23.301,0,1.5534,-3.189136E-05,23.301,0
1.5543,-3.189136E-05,23.3145,0,1.5543,-6.74754E-05,23.3145,0
1.5552,-8.258183E-05,23.328,0,1.5552,-5.941863E-05,23.328,0
1.5561,-0.0001554284,23.3415,0,1.5561,-3.692683E-05,23.3415,0
1.557,-0.0001205158,23.355,0,1.557,-5.001907E-05,23.355,0
1.5579,-5.203327E-05,23.3685,0,1.5579,-4.834058E-05,23.3685,0
1.5588,-9.634547E-05,23.382,0,1.5588,1.309224E-05,23.382,0
1.5597,-1.107805E-05,23.3955,0,1.5597,-1.007095E-06,23.3955,0
1.5606,7.687495E-05,23.409,0,1.5606,-2.786297E-05,23.409,0
1.5615,-2.853437E-05,23.4225,0,1.5615,3.424125E-05,23.4225,0
1.5624,1.174945E-05,23.436,0,1.5624,2.786297E-05,23.436,0
1.5633,3.726253E-05,23.4495,0,1.5633,6.713969E-07,23.4495,0
1.5642,-3.155566E-05,23.463,0,1.5642,1.846342E-05,23.463,0
1.5651,-3.591974E-05,23.4765,0,1.5651,1.443504E-05,23.4765,0
1.566,-6.713969E-06,23.49,0,1.566,-7.049668E-06,23.49,0
1.5669,-4.53193E-05,23.5035,0,1.5669,-3.591974E-05,23.5035,0
1.5678,6.042573E-06,23.517,0,1.5678,-7.956054E-05,23.517,0
1.5687,4.800488E-05,23.5305,0,1.5687,-7.687495E-05,23.5305,0
1.5696,2.719158E-05,23.544,0,1.5696,-8.090334E-05,23.544,0
1.5705,6.814679E-05,23.5575,0,1.5705,-9.835965E-05,23.5575,0
1.5714,0.0001305867,23.571,0,1.5714,-8.96315E-05,23.571,0
1.5723,3.591974E-05,23.5845,0,1.5723,-3.994812E-05,23.5845,0
1.5732,4.901198E-05,23.598,0,1.5732,-2.719158E-05,23.598,0
1.5741,0.0001634852,23.6115,0,1.5741,-3.659113E-05,23.6115,0
1.575,8.92958E-05,23.625,0,1.575,2.517739E-05,23.625,0
1.5759,5.404745E-05,23.6385,0,1.5759,2.417029E-05,23.6385,0
1.5768,0.0001020523,23.652,0,1.5768,-1.242084E-05,23.652,0
1.5777,6.378271E-06,23.6655,0,1.5777,1.644922E-05,23.6655,0
1.5786,-1.376364E-05,23.679,0,1.5786,3.189136E-05,23.679,0
1.5795,4.666209E-05,23.6925,0,1.5795,2.349889E-06,23.6925,0
1.5804,0.0001010452,23.706,0,1.5804,-1.947051E-05,23.706,0
1.5813,8.96315E-05,23.7195,0,1.5813,-1.477073E-05,23.7195,0
1.5822,6.61326E-05,23.733,0,1.5822,1.644922E-05,23.733,0
1.5831,3.591974E-05,23.7465,0,1.5831,2.987716E-05,23.7465,0
1.584,2.21561E-05,23.76,0,1.584,-4.36408E-06,23.76,0
1.5849,-2.316319E-05,23.7735,0,1.5849,-1.644922E-05,23.7735,0
1.5858,-8.795301E-05,23.787,0,1.5858,1.443504E-05,23.787,0
1.5867,-6.74754E-05,23.8005,0,1.5867,-2.920577E-05,23.8005,0
1.5876,-1.745632E-05,23.814,0,1.5876,-7.956054E-05,23.814,0
1.5885,-5.673304E-05,23.8275,0,1.5885,-5.975433E-05,23.8275,0
1.5894,-7.183947E-05,23.841,0,1.5894,-8.627451E-05,23.841,0
1.5903,-5.606165E-05,23.8545,0,1.5903,-9.600977E-05,23.8545,0
1.5912,-5.673304E-05,23.868,0,1.5912,-3.323415E-05,23.868,0
1.5921,-5.807584E-05,23.8815,0,1.5921,4.53193E-05,23.8815,0
1.593,-2.752728E-05,23.895,0,1.593,0.0001037308,23.895,0
1.5939,-5.203327E-05,23.9085,0,1.5939,0.0001044022,23.9085,0
1.5948,-1.510643E-05,23.922,0,1.5948,2.719158E-05,23.922,0
1.5957,-7.016098E-05,23.9355,0,1.5957,2.21561E-05,23.9355,0
1.5966,-8.627451E-05,23.949,0,1.5966,4.666209E-05,23.949,0
1.5975,3.692683E-06,23.9625,0,1.5975,4.800488E-05,23.9625,0
1.5984,-5.035477E-06,23.976,0,1.5984,4.766919E-05,23.976,0
1.5993,-2.584878E-05,23.9895,0,1.5993,5.807584E-05,23.9895,0
1.6002,5.404745E-05,24.003,0,1.6002,1.913481E-05,24.003,0
1.6011,7.049668E-05,24.0165,0,1.6011,-1.913481E-05,24.0165,0
1.602,-4.196231E-05,24.03,0,1.602,1.644922E-05,24.03,0
1.6029,7.855344E-05,24.0435,0,1.6029,1.040665E-05,24.0435,0
1.6038,0.0001842985,24.057,0,1.6038,-3.927672E-05,24.057,0
1.6047,4.733349E-05,24.0705,0,1.6047,-5.807584E-05,24.0705,0
1.6056,1.745632E-05,24.084,0,1.6056,-1.443504E-05,24.084,0
1.6065,8.090334E-05,24.0975,0,1.6065,-1.644922E-05,24.0975,0
1.6074,3.121996E-05,24.111,0,1.6074,3.356985E-07,24.111,0
1.6083,3.558404E-05,24.1245,0,1.6083,-3.826963E-05,24.1245,0
1.6092,-3.692683E-06,24.138,0,1.6092,-2.081331E-05,24.138,0
1.6101,-3.692683E-05,24.1515,0,1.6101,-2.685588E-06,24.1515,0
1.611,-1.644922E-05,24.165,0,1.611,-1.510643E-05,24.165,0
1.6119,-7.721065E-06,24.1785,0,1.6119,-2.786297E-05,24.1785,0
1.6128,-8.627451E-05,24.192,0,1.6128,3.692683E-06,24.192,0
1.6137,-5.673304E-05,24.2055,0,1.6137,-1.040665E-05,24.2055,0
1.6146,2.584878E-05,24.219,0,1.6146,-4.934768E-05,24.219,0
1.6155,-2.28275E-05,24.2325,0,1.6155,-1.712062E-05,24.2325,0
1.6164,-9.835965E-05,24.246,0,1.6164,-1.141375E-05,24.246,0
1.6173,-4.800488E-05,24.2595,0,1.6173,-4.49836E-05,24.2595,0
1.6182,-8.72816E-05,24.273,0,1.6182,-5.169757E-05,24.273,0
1.6191,-0.0001285725,24.2865,0,1.6191,-9.063859E-06,24.2865,0
1.62,-7.855344E-05,24.3,0,1.62,-2.517739E-05,24.3,0
1.6209,-6.57969E-05,24.3135,0,1.6209,-2.551309E-05,24.3135,0
1.6218,-5.941863E-05,24.327,0,1.6218,-3.424125E-05,24.327,0
1.6227,-5.673304E-05,24.3405,0,1.6227,-2.652018E-05,24.3405,0
1.6236,-7.083238E-05,24.354,0,1.6236,-3.356985E-05,24.354,0
1.6245,-5.471885E-05,24.3675,0,1.6245,-6.64683E-05,24.3675,0
1.6254,-2.450599E-05,24.381,0,1.6254,-7.183947E-05,24.381,0
1.6263,-8.157473E-05,24.3945,0,1.6263,-3.524834E-05,24.3945,0
1.6272,-2.685588E-06,24.408,0,1.6272,-4.46479E-05,24.408,0
1.6281,7.150377E-05,24.4215,0,1.6281,-4.229801E-05,24.4215,0
1.629,3.356985E-07,24.435,0,1.629,-1.779202E-05,24.435,0
1.6299,4.095522E-05,24.4485,0,1.6299,-4.061952E-05,24.4485,0
1.6308,3.961242E-05,24.462,0,1.6308,-7.217517E-05,24.462,0
1.6317,5.673304E-05,24.4755,0,1.6317,-3.524834E-05,24.4755,0
1.6326,3.994812E-05,24.489,0,1.6326,-1.644922E-05,24.489,0
1.6335,1.309224E-05,24.5025,0,1.6335,-1.510643E-05,24.5025,0
1.6344,4.162661E-05,24.516,0,1.6344,-1.510643E-05,24.516,0
1.6353,8.761731E-05,24.5295,0,1.6353,-4.129091E-05,24.5295,0
1.6362,1.510643E-05,24.543,0,1.6362,-1.376364E-05,24.543,0
1.6371,-3.356985E-06,24.5565,0,1.6371,1.577783E-05,24.5565,0
1.638,1.644922E-05,24.57,0,1.638,5.706874E-06,24.57,0
1.6389,1.712062E-05,24.5835,0,1.6389,-2.819867E-05,24.5835,0
1.6398,-2.987716E-05,24.597,0,1.6398,-5.706874E-06,24.597,0
1.6407,-5.639734E-05,24.6105,0,1.6407,-1.443504E-05,24.6105,0
1.6416,-4.565499E-05,24.624,0,1.6416,-5.438316E-05,24.624,0
1.6425,-0.0001695277,24.6375,0,1.6425,-2.920577E-05,24.6375,0
1.6434,-0.0002020905,24.651,0,1.6434,-2.652018E-05,24.651,0
1.6443,-0.0001245441,24.6645,0,1.6443,-7.821774E-05,24.6645,0
1.6452,-0.0001467002,24.678,0,1.6452,-6.57969E-05,24.678,0
1.6461,-0.0001906767,24.6915,0,1.6461,-5.136187E-05,24.6915,0
1.647,-0.0001305867,24.705,0,1.647,-6.814679E-05,24.705,0
1.6479,-0.0001379721,24.7185,0,1.6479,-7.284657E-05,24.7185,0
1.6488,-0.0001178302,24.732,0,1.6488,-7.486076E-05,24.732,0
1.6497,-8.358892E-05,24.7455,0,1.6497,-4.061952E-05,24.7455,0
1.6506,-6.143282E-05,24.759,0,1.6506,-2.450599E-05,24.759,0
1.6515,-2.349889E-05,24.7725,0,1.6515,-4.733349E-05,24.7725,0
1.6524,-1.980621E-05,24.786,0,1.6524,-4.733349E-05,24.786,0
1.6533,-3.054856E-05,24.7995,0,1.6533,-8.392462E-06,24.7995,0
1.6542,-2.383459E-05,24.813,0,1.6542,-3.021286E-05,24.813,0
1.6551,5.270466E-05,24.8265,0,1.6551,-5.069047E-05,24.8265,0
1.656,2.081331E-05,24.84,0,1.656,-1.007095E-05,24.84,0
1.6569,4.162661E-05,24.8535,0,1.6569,-6.042573E-06,24.8535,0
1.6578,0.0001010452,24.867,0,1.6578,-9.735256E-06,24.867,0
1.6587,9.365987E-05,24.8805,0,1.6587,2.450599E-05,24.8805,0
1.6596,4.46479E-05,24.894,0,1.6596,5.203327E-05,24.894,0
1.6605,8.023193E-05,24.9075,0,1.6605,4.196231E-05,24.9075,0
1.6614,0.0001607996,24.921,0,1.6614,4.867628E-05,24.921,0
1.6623,0.0001567712,24.9345,0,1.6623,6.143282E-05,24.9345,0
1.6632,0.0001218585,24.948,0,1.6632,8.358892E-05,24.948,0
1.6641,4.061952E-05,24.9615,0,1.6641,6.54612E-05,24.9615,0
1.665,0.0001067521,24.975,0,1.665,2.28275E-05,24.975,0
1.6659,0.0001117876,24.9885,0,1.6659,1.309224E-05,24.9885,0
1.6668,-3.021286E-06,25.002,0,1.6668,3.860533E-05,25.002,0
1.6677,3.356985E-07,25.0155,0,1.6677,1.208515E-05,25.0155,0
1.6686,5.136187E-05,25.029,0,1.6686,-4.666209E-05,25.029,0
1.6695,-3.356985E-06,25.0425,0,1.6695,-1.376364E-05,25.0425,0
1.6704,2.517739E-05,25.056,0,1.6704,-2.954147E-05,25.056,0
1.6713,-3.524834E-05,25.0695,0,1.6713,-7.687495E-05,25.0695,0
1.6722,-5.706874E-05,25.083,0,1.6722,-4.095522E-05,25.083,0
1.6731,-4.46479E-05,25.0965,0,1.6731,-2.584878E-05,25.0965,0
1.674,9.063859E-06,25.11,0,1.674,-4.39765E-05,25.11,0
1.6749,2.1149E-05,25.1235,0,1.6749,-5.941863E-05,25.1235,0
1.6758,7.183947E-05,25.137,0,1.6758,-8.627451E-05,25.137,0
1.6767,0.0001064164,25.1505,0,1.6767,-7.418937E-05,25.1505,0
1.6776,3.860533E-05,25.164,0,1.6776,-7.687495E-05,25.164,0
1.6785,6.378271E-05,25.1775,0,1.6785,-0.0001027237,25.1775,0
1.6794,0.0001265583,25.191,0,1.6794,-0.000109102,25.191,0
1.6803,6.277562E-05,25.2045,0,1.6803,-5.941863E-05,25.2045,0
1.6812,9.768826E-05,25.218,0,1.6812,-7.016098E-05,25.218,0
1.6821,0.0001470359,25.2315,0,1.6821,-8.96315E-05,25.2315,0
1.683,3.659113E-05,25.245,0,1.683,-1.745632E-05,25.245,0
1.6839,4.733349E-05,25.2585,0,1.6839,-1.510643E-05,25.2585,0
1.6848,8.157473E-05,25.272,0,1.6848,-3.726253E-05,25.272,0
1.6857,-3.692683E-06,25.2855,0,1.6857,3.356985E-07,25.2855,0
1.6866,-6.71397E-05,25.299,0,1.6866,1.678492E-05,25.299,0
1.6875,-2.786297E-05,25.3125,0,1.6875,2.652018E-05,25.3125,0
1.6884,3.256275E-05,25.326,0,1.6884,3.927672E-05,25.326,0
1.6893,4.36408E-06,25.3395,0,1.6893,4.162661E-05,25.3395,0
1.6902,-2.14847E-05,25.353,0,1.6902,6.411841E-05,25.353,0
1.6911,-9.063859E-06,25.3665,0,1.6911,9.600977E-05,25.3665,0
1.692,3.692683E-06,25.38,0,1.692,6.54612E-05,25.38,0
1.6929,2.014191E-06,25.3935,0,1.6929,4.632639E-05,25.3935,0
1.6938,1.678492E-06,25.407,0,1.6938,8.358892E-05,25.407,0
1.6947,2.21561E-05,25.4205,0,1.6947,6.378271E-05,25.4205,0
1.6956,8.358892E-05,25.434,0,1.6956,1.040665E-05,25.434,0
1.6965,3.155566E-05,25.4475,0,1.6965,3.860533E-05,25.4475,0
1.6974,-4.599069E-05,25.461,0,1.6974,4.162661E-05,25.461,0
1.6983,1.577783E-05,25.4745,0,1.6983,-3.021286E-06,25.4745,0
1.6992,-1.913481E-05,25.488,0,1.6992,1.040665E-05,25.488,0
1.7001,-4.699779E-05,25.5015,0,1.7001,3.390555E-05,25.5015,0
1.701,-4.733349E-05,25.515,0,1.701,1.879912E-05,25.515,0
1.7019,-3.591974E-05,25.5285,0,1.7019,-2.349889E-06,25.5285,0
1.7028,4.666209E-05,25.542,0,1.7028,-1.510643E-05,25.542,0
1.7037,2.987716E-05,25.5555,0,1.7037,-1.745632E-05,25.5555,0
1.7046,-1.913481E-05,25.569,0,1.7046,-2.719158E-05,25.569,0
1.7055,3.591974E-05,25.5825,0,1.7055,-5.371176E-05,25.5825,0
1.7064,5.001907E-05,25.596,0,1.7064,-5.841154E-05,25.596,0
1.7073,2.316319E-05,25.6095,0,1.7073,-1.980621E-05,25.6095,0
1.7082,8.459602E-05,25.623,0,1.7082,-3.591974E-05,25.623,0
1.7091,7.620356E-05,25.6365,0,1.7091,-5.505455E-05,25.6365,0
1.71,-1.309224E-05,25.65,0,1.71,5.706874E-06,25.65,0
1.7109,4.263371E-05,25.6635,0,1.7109,-1.342794E-06,25.6635,0
1.7118,4.733349E-05,25.677,0,1.7118,-7.385367E-06,25.677,0
1.7127,-6.57969E-05,25.6905,0,1.7127,1.477073E-05,25.6905,0
1.7136,-5.941863E-05,25.704,0,1.7136,2.047761E-05,25.704,0
1.7145,-7.049668E-06,25.7175,0,1.7145,-4.36408E-06,25.7175,0
1.7154,-4.934768E-05,25.731,0,1.7154,-4.028382E-06,25.731,0
1.7163,-4.36408E-05,25.7445,0,1.7163,-5.740444E-05,25.7445,0
1.7172,-4.263371E-05,25.758,0,1.7172,-5.136187E-05,25.758,0
1.7181,-7.351797E-05,25.7715,0,1.7181,-5.270466E-05,25.7715,0
1.719,-3.121996E-05,25.785,0,1.719,-9.500267E-05,25.785,0
1.7199,-1.376364E-05,25.7985,0,1.7199,-0.0001242084,25.7985,0
1.7208,-6.143282E-05,25.812,0,1.7208,-0.000105745,25.812,0
1.7217,-2.18204E-05,25.8255,0,1.7217,-0.0001131304,25.8255,0
1.7226,7.049668E-06,25.839,0,1.7226,-0.0001299153,25.839,0
1.7235,-5.807584E-05,25.8525,0,1.7235,-5.774014E-05,25.8525,0
1.7244,-9.903105E-05,25.866,0,1.7244,-3.659113E-05,25.866,0
1.7253,-2.786297E-05,25.8795,0,1.7253,-3.591974E-05,25.8795,0
1.7262,-3.625543E-05,25.893,0,1.7262,-3.356985E-05,25.893,0
1.7271,-0.0001292439,25.9065,0,1.7271,-1.644922E-05,25.9065,0
1.728,-0.0001003738,25.92,0,1.728,-4.699779E-05,25.92,0
1.7289,-7.150377E-05,25.9335,0,1.7289,-5.606165E-05,25.9335,0
1.7298,-3.793393E-05,25.947,0,1.7298,-5.505455E-05,25.947,0
1.7307,-5.471885E-05,25.9605,0,1.7307,-4.834058E-05,25.9605,0
1.7316,-4.33051E-05,25.974,0,1.7316,-4.934768E-05,25.974,0
1.7325,-2.786297E-05,25.9875,0,1.7325,-6.311131E-05,25.9875,0
1.7334,-2.685588E-06,26.001,0,1.7334,-7.486076E-05,26.001,0
1.7343,-4.39765E-05,26.0145,0,1.7343,-3.826963E-05,26.0145,0
1.7352,-3.356985E-07,26.028,0,1.7352,-5.136187E-05,26.028,0
1.7361,2.786297E-05,26.0415,0,1.7361,-7.553216E-05,26.0415,0
1.737,-6.78111E-05,26.055,0,1.737,-2.1149E-05,26.055,0
1.7379,-7.553216E-05,26.0685,0,1.7379,-2.819867E-05,26.0685,0
1.7388,-2.652018E-05,26.082,0,1.7388,-5.807584E-05,26.082,0
1.7397,-3.726253E-05,26.0955,0,1.7397,-6.277562E-05,26.0955,0
1.7406,-4.800488E-05,26.109,0,1.7406,-1.443504E-05,26.109,0
1.7415,-8.157473E-05,26.1225,0,1.7415,-2.752728E-05,26.1225,0
1.7424,-7.083238E-05,26.136,0,1.7424,-1.779202E-05,26.136,0
1.7433,1.174945E-05,26.1495,0,1.7433,-1.846342E-05,26.1495,0
1.7442,-8.090334E-05,26.163,0,1.7442,2.920577E-05,26.163,0
1.7451,-0.0001027237,26.1765,0,1.7451,6.109713E-05,26.1765,0
1.746,-2.551309E-05,26.19,0,1.746,4.666209E-05,26.19,0
1.7469,-4.867628E-05,26.2035,0,1.7469,3.860533E-05,26.2035,0
1.7478,-9.634547E-05,26.217,0,1.7478,7.183947E-05,26.217,0
1.7487,-3.356985E-06,26.2305,0,1.7487,8.157473E-05,26.2305,0
1.7496,4.901198E-05,26.244,0,1.7496,4.800488E-05,26.244,0
1.7505,-6.311131E-05,26.2575,0,1.7505,9.701686E-05,26.2575,0
1.7514,-4.49836E-05,26.271,0,1.7514,8.82887E-05,26.271,0
1.7523,1.376364E-05,26.2845,0,1.7523,4.733349E-05,26.2845,0
1.7532,-1.812772E-05,26.298,0,1.7532,6.61326E-05,26.298,0
1.7541,-3.826963E-05,26.3115,0,1.7541,7.922484E-05,26.3115,0
1.755,-4.36408E-06,26.325,0,1.755,8.82887E-05,26.325,0
1.7559,-1.242084E-05,26.3385,0,1.7559,8.661021E-05,26.3385,0
1.7568,4.129091E-05,26.352,0,1.7568,6.881819E-05,26.352,0
1.7577,7.687495E-05,26.3655,0,1.7577,8.224613E-05,26.3655,0
1.7586,9.365987E-05,26.379,0,1.7586,6.78111E-05,26.379,0
1.7595,5.673304E-05,26.3925,0,1.7595,3.323415E-05,26.3925,0
1.7604,9.231708E-05,26.406,0,1.7604,1.712062E-05,26.406,0
1.7613,3.826963E-05,26.4195,0,1.7613,5.337606E-05,26.4195,0
1.7622,4.800488E-05,26.433,0,1.7622,2.316319E-05,26.433,0
1.7631,0.0001275654,26.4465,0,1.7631,-3.457694E-05,26.4465,0
1.764,-1.376364E-05,26.46,0,1.764,-3.256275E-05,26.46,0
1.7649,-4.699779E-05,26.4735,0,1.7649,-2.853437E-05,26.4735,0
1.7658,5.572595E-05,26.487,0,1.7658,-7.418937E-05,26.487,0
1.7667,1.846342E-05,26.5005,0,1.7667,-7.452507E-05,26.5005,0
1.7676,-3.289845E-05,26.514,0,1.7676,-8.090334E-05,26.514,0
1.7685,3.457694E-05,26.5275,0,1.7685,-0.0001292439,26.5275,0
1.7694,4.800488E-05,26.541,0,1.7694,-0.0001601282,26.541,0
1.7703,0.0001017166,26.5545,0,1.7703,-0.0001742275,26.5545,0
1.7712,8.157473E-05,26.568,0,1.7712,-0.0001846342,26.568,0
1.7721,4.800488E-05,26.5815,0,1.7721,-0.0001675135,26.5815,0
1.773,5.069047E-05,26.595,0,1.773,-0.0001601282,26.595,0
1.7739,6.51255E-05,26.6085,0,1.7739,-0.0001460288,26.6085,0
1.7748,3.558404E-05,26.622,0,1.7748,-7.821774E-05,26.622,0
1.7757,4.934768E-05,26.6355,0,1.7757,-9.835965E-05,26.6355,0
1.7766,6.411841E-05,26.649,0,1.7766,-0.0001332723,26.649,0
1.7775,1.443504E-05,26.6625,0,1.7775,-8.358892E-05,26.6625,0
1.7784,4.36408E-05,26.676,0,1.7784,-8.023193E-05,26.676,0
1.7793,-3.356985E-07,26.6895,0,1.7793,-0.0001195087,26.6895,0
1.7802,-5.740444E-05,26.703,0,1.7802,-9.735256E-05,26.703,0
1.7811,-0.0001195087,26.7165,0,1.7811,-7.385367E-05,26.7165,0
1.782,-9.365987E-05,26.73,0,1.782,-7.150377E-05,26.73,0
1.7829,-9.634547E-05,26.7435,0,1.7829,-8.023193E-05,26.7435,0
1.7838,-7.821774E-05,26.757,0,1.7838,-0.0001064164,26.757,0
1.7847,-0.0001188373,26.7705,0,1.7847,-6.411841E-05,26.7705,0
1.7856,-0.0001201801,26.784,0,1.7856,-4.599069E-05,26.784,0
1.7865,-8.69459E-05,26.7975,0,1.7865,-3.826963E-05,26.7975,0
1.7874,-8.82887E-05,26.811,0,1.7874,-1.913481E-05,26.811,0
1.7883,-0.0001809415,26.8245,0,1.7883,3.054856E-05,26.8245,0
1.7892,-0.0001232013,26.838,0,1.7892,2.1149E-05,26.838,0
1.7901,-2.987716E-05,26.8515,0,1.7901,5.035477E-06,26.8515,0
1.791,-0.000148043,26.865,0,1.791,4.766919E-05,26.865,0
1.7919,-0.0001497215,26.8785,0,1.7919,2.887007E-05,26.8785,0
1.7928,-9.164568E-05,26.892,0,1.7928,-2.685588E-06,26.892,0
1.7937,-0.0001896696,26.9055,0,1.7937,2.752728E-05,26.9055,0
1.7946,-0.0001957122,26.919,0,1.7946,5.337606E-05,26.919,0
1.7955,-0.0001453574,26.9325,0,1.7955,6.61326E-05,26.9325,0
1.7964,-0.0001292439,26.946,0,1.7964,5.606165E-05,26.946,0
1.7973,-0.0001228656,26.9595,0,1.7973,4.766919E-05,26.9595,0
1.7982,-5.941863E-05,26.973,0,1.7982,8.426032E-05,26.973,0
1.7991,6.74754E-05,26.9865,0,1.7991,9.634547E-05,26.9865,0
1.8,7.318227E-05,27,0,1.8,3.591974E-05,27,0
1.8009,0.0001044022,27.0135,0,1.8009,3.692683E-06,27.0135,0
1.8018,6.210422E-05,27.027,0,1.8018,2.383459E-05,27.027,0
1.8027,5.606165E-05,27.0405,0,1.8027,1.040665E-05,27.0405,0
1.8036,0.000109102,27.054,0,1.8036,-5.069047E-05,27.054,0
1.8045,3.054856E-05,27.0675,0,1.8045,-1.510643E-05,27.0675,0
1.8054,3.356985E-07,27.081,0,1.8054,-2.584878E-05,27.081,0
1.8063,7.754635E-05,27.0945,0,1.8063,-7.754635E-05,27.0945,0
1.8072,2.920577E-05,27.108,0,1.8072,-7.385367E-05,27.108,0
1.8081,-3.692683E-06,27.1215,0,1.8081,-3.390555E-05,27.1215,0
1.809,-9.399558E-06,27.135,0,1.809,-3.826963E-05,27.135,0
1.8099,1.980621E-05,27.1485,0,1.8099,-4.968337E-05,27.1485,0
1.8108,3.054856E-05,27.162,0,1.8108,-5.539025E-05,27.162,0
1.8117,7.721065E-06,27.1755,0,1.8117,-2.987716E-05,27.1755,0
1.8126,1.913481E-05,27.189,0,1.8126,-3.356985E-06,27.189,0
1.8135,5.606165E-05,27.2025,0,1.8135,-3.558404E-05,27.2025,0
1.8144,2.484169E-05,27.216,0,1.8144,-3.256275E-05,27.216,0
1.8153,1.309224E-05,27.2295,0,1.8153,-5.706874E-06,27.2295,0
1.8162,9.433127E-05,27.243,0,1.8162,-1.544213E-05,27.243,0
1.8171,6.51255E-05,27.2565,0,1.8171,-4.968337E-05,27.2565,0
1.818,2.047761E-05,27.27,0,1.818,-6.713969E-07,27.27,0
1.8189,3.054856E-05,27.2835,0,1.8189,-7.385367E-06,27.2835,0
1.8198,4.33051E-05,27.297,0,1.8198,-2.887007E-05,27.297,0
1.8207,9.063859E-05,27.3105,0,1.8207,-1.074235E-05,27.3105,0
