X[s],"Trigno IM sensor 3: EMG 3 (IM)",X[s],"Trigno IM sensor 3: Mag 3.Z (IM)",X[s],"Trigno IM sensor 4: EMG 4 (IM)",X[s],"Trigno IM sensor 4: Mag 4.Z (IM)"
0.000000,5.673304E-05,0.000000,40,0.000000,0.0001846342,0.000000,104
0.0009,0.0001097734,0.0135,40,0.0009,0.0001983978,0.0135,104
0.0018,0.0001272297,0.027,40,0.0018,0.0001084306,0.027,102
0.0027,0.0001715419,0.0405,40,0.0027,3.323415E-05,0.0405,103
0.0036,0.0001279011,0.054,39,0.0036,-4.028382E-06,0.054,105
0.0045,0.0001242084,0.0675,38,0.0045,-2.987716E-05,0.0675,100
0.0054,0.0001346151,0.081,40,0.0054,-3.021286E-05,0.081,98
0.0063,0.0001373007,0.0945,39,0.0063,-6.344701E-05,0.0945,100
0.0072,9.970245E-05,0.108,39,0.0072,-8.661021E-05,0.108,103
0.0081,9.903105E-05,0.1215,39,0.0081,-0.0001080949,0.1215,102
0.009000001,0.0001352865,0.135,39,0.009000001,-0.0001292439,0.135,103
0.0099,0.0001762417,0.1485,40,0.0099,-0.0001409934,0.1485,101
0.0108,0.0001943694,0.162,39,0.0108,-0.0001530785,0.162,98
0.0117,0.0001681849,0.1755,40,0.0117,-0.0001386435,0.1755,100
0.0126,0.0001591211,0.189,39,0.0126,-0.000123537,0.189,101
0.0135,0.0001084306,0.2025,39,0.0135,-0.0001101091,0.2025,103
0.0144,0.0001426719,0.216,38,0.0144,-9.668116E-05,0.216,99
0.0153,0.0001188373,0.2295,40,0.0153,-4.968337E-05,0.2295,102
0.0162,1.678492E-06,0.243,38,0.0162,-6.210422E-05,0.243,97
0.0171,-7.821774E-05,0.2565,40,0.0171,-5.740444E-05,0.2565,103
0.018,-1.846342E-05,0.27,39,0.018,-4.36408E-05,0.27,101
0.0189,-4.733349E-05,0.2835,39,0.0189,-6.915389E-05,0.2835,103
0.0198,-4.129091E-05,0.297,40,0.0198,-5.841154E-05,0.297,101
0.0207,3.356985E-05,0.3105,40,0.0207,0,0.3105,104
0.0216,-1.947051E-05,0.324,40,0.0216,-1.544213E-05,0.324,101
0.0225,-5.941863E-05,0.3375,41,0.0225,-5.740444E-05,0.3375,103
0.0234,-1.510643E-05,0.351,40,0.0234,-2.618448E-05,0.351,102
0.0243,-5.337606E-05,0.3645,41,0.0243,-3.289845E-05,0.3645,104
0.0252,-3.524834E-05,0.378,39,0.0252,-1.678492E-05,0.378,102
0.0261,-6.478981E-05,0.3915,41,0.0261,1.040665E-05,0.3915,102
0.027,-4.162661E-05,0.405,40,0.027,6.411841E-05,0.405,99
0.0279,-7.956054E-05,0.4185,41,0.0279,8.090334E-05,0.4185,102
0.0288,-2.047761E-05,0.432,41,0.0288,1.275654E-05,0.432,100
0.0297,1.510643E-05,0.4455,40,0.0297,9.063859E-06,0.4455,103
0.0306,-2.551309E-05,0.459,39,0.0306,3.692683E-06,0.459,104
0.0315,2.652018E-05,0.4725,39,0.0315,-1.174945E-05,0.4725,102
0.0324,5.572595E-05,0.486,40,0.0324,-4.33051E-05,0.486,102
0.0333,-2.584878E-05,0.4995,39,0.0333,-8.392462E-06,0.4995,103
0.0342,-2.18204E-05,0.513,41,0.0342,-1.107805E-05,0.513,102
0.0351,4.934768E-05,0.5265,40,0.0351,-4.39765E-05,0.5265,100
0.036,1.980621E-05,0.54,40,0.036,1.309224E-05,0.54,102
0.0369,-4.834058E-05,0.5535,41,0.0369,1.980621E-05,0.5535,107
0.0378,-1.107805E-05,0.567,41,0.0378,-1.779202E-05,0.567,102
0.0387,6.814679E-05,0.5805,40,0.0387,-2.987716E-05,0.5805,103
0.0396,-2.21561E-05,0.594,39,0.0396,1.040665E-05,0.594,102
0.0405,-4.867628E-05,0.6075,40,0.0405,-1.074235E-05,0.6075,98
0.0414,-3.860533E-05,0.621,39,0.0414,-3.961242E-05,0.621,102
0.0423,-2.24918E-05,0.6345,38,0.0423,-7.553216E-05,0.6345,98
0.0432,-5.069047E-05,0.648,39,0.0432,-8.090334E-05,0.648,102
0.0441,-0.0001164874,0.6615,40,0.0441,-8.157473E-05,0.6615,105
0.045,-5.774014E-05,0.675,40,0.045,-0.0001185016,0.675,103
0.0459,1.174945E-05,0.6885,39,0.0459,-0.0001584497,0.6885,102
0.0468,-4.901198E-05,0.702,40,0.0468,-0.0001245441,0.702,102
0.0477,-1.007095E-06,0.7155,40,0.0477,-0.0001010452,0.7155,101
0.0486,5.035477E-06,0.729,39,0.0486,-9.298848E-05,0.729,103
0.0495,-0.0001084306,0.7425,39,0.0495,-9.198138E-05,0.7425,106
0.0504,-1.980621E-05,0.756,40,0.0504,-4.36408E-05,0.756,103
0.0513,3.189136E-05,0.7695,40,0.0513,1.745632E-05,0.7695,103
0.0522,-3.088426E-05,0.783,39,0.0522,7.183947E-05,0.783,104
0.0531,-9.903105E-05,0.7965,38,0.0531,7.888914E-05,0.7965,102
0.054,-0.0001070878,0.81,39,0.054,3.826963E-05,0.81,103
0.0549,-6.076142E-05,0.8235,40,0.0549,2.652018E-05,0.8235,104
0.0558,4.162661E-05,0.837,40,0.0558,1.577783E-05,0.837,103
0.0567,-4.33051E-05,0.8505,39,0.0567,2.1149E-05,0.8505,102
0.0576,-4.36408E-06,0.864,40,0.0576,5.035477E-05,0.864,103
0.0585,4.968337E-05,0.8775,40,0.0585,2.719158E-05,0.8775,105
0.0594,-1.141375E-05,0.891,39,0.0594,5.774014E-05,0.891,101
0.0603,-0.0001104448,0.9045,39,0.0603,0.0001003738,0.9045,100
0.0612,-4.666209E-05,0.918,39,0.0612,5.807584E-05,0.918,104
0.0621,-4.36408E-06,0.9315,38,0.0621,2.349889E-06,0.9315,103
0.063,-0.0001517357,0.945,38,0.063,5.069047E-05,0.945,100
0.0639,-0.0001104448,0.9585,39,0.0639,2.618448E-05,0.9585,104
0.0648,2.014191E-06,0.972,39,0.0648,-5.673304E-05,0.972,106
0.0657,-4.901198E-05,0.9855,38,0.0657,-5.236896E-05,0.9855,105
0.0666,-0.0001134661,0.999,38,0.0666,-4.129091E-05,0.999,103
0.0675,-6.076142E-05,1.0125,38,0.0675,-5.841154E-05,1.0125,102
0.0684,-1.577783E-05,1.026,39,0.0684,-7.821774E-05,1.026,104
0.0693,3.591974E-05,1.0395,39,0.0693,-9.567407E-05,1.0395,102
0.0702,-1.644922E-05,1.053,39,0.0702,-5.404745E-05,1.053,106
0.0711,-9.903105E-05,1.0665,38,0.0711,2.1149E-05,1.0665,102
0.072,-9.634547E-05,1.08,38,0.072,-2.517739E-05,1.08,104
0.0729,-3.256275E-05,1.0935,37,0.0729,0,1.0935,105
0.07380001,-5.673304E-05,1.107,37,0.07380001,6.948959E-05,1.107,103
0.07470001,-2.987716E-05,1.1205,38,0.07470001,6.915389E-05,1.1205,103
0.0756,0.0001131304,1.134,37,0.0756,4.46479E-05,1.134,104
0.0765,8.560311E-05,1.1475,38,0.0765,8.82887E-05,1.1475,101
0.0774,0.0001017166,1.161,37,0.0774,8.090334E-05,1.161,102
0.0783,0.0001232013,1.1745,39,0.0783,2.24918E-05,1.1745,103
0.0792,5.471885E-05,1.188,37,0.0792,8.92958E-05,1.188,103
0.0801,-5.874724E-05,1.2015,37,0.0801,0.0001151446,1.2015,101
0.081,1.007095E-06,1.215,39,0.081,4.46479E-05,1.215,102
0.0819,2.349889E-06,1.2285,37,0.0819,-2.887007E-05,1.2285,103
0.0828,4.39765E-05,1.242,38,0.0828,-8.761731E-05,1.242,102
0.0837,1.275654E-05,1.2555,37,0.0837,-6.378271E-05,1.2555,102
0.0846,-2.887007E-05,1.269,37,0.0846,-5.438316E-05,1.269,102
0.0855,-2.517739E-05,1.2825,38,0.0855,-7.284657E-05,1.2825,100
0.0864,3.860533E-05,1.296,36,0.0864,-3.692683E-06,1.296,103
0.0873,3.323415E-05,1.3095,36,0.0873,5.069047E-05,1.3095,102
0.0882,5.975433E-05,1.323,38,0.0882,-4.599069E-05,1.323,103
0.0891,8.82887E-05,1.3365,37,0.0891,-8.996719E-05,1.3365,104
0.09,3.323415E-05,1.35,36,0.09,-3.726253E-05,1.35,102
0.0909,0.0001131304,1.3635,38,0.0909,-4.46479E-05,1.3635,105
0.0918,0.0001188373,1.377,38,0.0918,-9.433127E-05,1.377,100
0.0927,9.634547E-05,1.3905,37,0.0927,-1.376364E-05,1.3905,103
0.0936,8.560311E-05,1.404,37,0.0936,2.24918E-05,1.404,104
0.09450001,1.510643E-05,1.4175,38,0.09450001,-2.786297E-05,1.4175,103
0.09540001,-1.745632E-05,1.431,38,0.09540001,-4.196231E-05,1.431,101
0.09630001,7.486076E-05,1.4445,37,0.09630001,-6.881819E-05,1.4445,101
0.0972,6.378271E-06,1.458,37,0.0972,-6.277562E-05,1.458,101
0.0981,-2.349889E-06,1.4715,38,0.0981,-6.344701E-05,1.4715,103
0.099,7.486076E-05,1.485,37,0.099,-7.620356E-05,1.485,101
0.0999,5.606165E-05,1.4985,38,0.0999,-6.948959E-05,1.4985,103
0.1008,-1.678492E-06,1.512,38,0.1008,-2.014191E-05,1.512,103
0.1017,9.164568E-05,1.5255,36,0.1017,1.174945E-05,1.5255,101
0.1026,0.0001205158,1.539,39,0.1026,-5.740444E-05,1.539,104
0.1035,1.007095E-05,1.5525,38,0.1035,-3.826963E-05,1.5525,104
0.1044,-7.049668E-06,1.566,38,0.1044,-2.786297E-05,1.566,102
0.1053,3.894102E-05,1.5795,37,0.1053,-4.901198E-05,1.5795,101
0.1062,-5.673304E-05,1.593,37,0.1062,-4.666209E-05,1.593,106
0.1071,-0.0001027237,1.6065,38,0.1071,-2.24918E-05,1.6065,101
0.108,-7.620356E-05,1.62,37,0.108,-1.913481E-05,1.62,102
0.1089,-7.553216E-05,1.6335,37,0.1089,-1.980621E-05,1.6335,105
0.1098,-2.18204E-05,1.647,37,0.1098,-2.1149E-05,1.647,100
0.1107,1.577783E-05,1.6605,37,0.1107,1.678492E-06,1.6605,101
0.1116,-5.438316E-05,1.674,38,0.1116,-1.913481E-05,1.674,104
0.1125,-2.21561E-05,1.6875,37,0.1125,-4.666209E-05,1.6875,105
0.1134,-8.728161E-06,1.701,37,0.1134,-6.61326E-05,1.701,104
0.1143,-0.0001211871,1.7145,37,0.1143,-1.074235E-05,1.7145,102
0.1152,-0.0001349508,1.728,37,0.1152,-8.056763E-06,1.728,101
0.1161,-3.591974E-05,1.7415,37,0.1161,-4.229801E-05,1.7415,103
0.117,-0.000119173,1.755,38,0.117,5.706874E-06,1.755,103
0.1179,-0.0001030594,1.7685,37,0.1179,-1.510643E-05,1.7685,103
0.1188,-6.982528E-05,1.782,37,0.1188,-3.860533E-05,1.782,100
0.1197,-8.86244E-05,1.7955,37,0.1197,-5.001907E-05,1.7955,103
0.1206,-0.0001520714,1.809,39,0.1206,-5.069047E-05,1.809,103
0.1215,-0.0001164874,1.8225,38,0.1215,-1.174945E-05,1.8225,103
0.1224,-5.069047E-05,1.836,39,0.1224,9.332418E-05,1.836,103
0.1233,-4.129091E-05,1.8495,38,0.1233,0.0001285725,1.8495,98
0.1242,-7.956054E-05,1.863,38,0.1242,6.411841E-05,1.863,99
0.1251,-7.385367E-05,1.8765,39,0.1251,3.591974E-05,1.8765,104
0.126,-3.524834E-05,1.89,38,0.126,-1.544213E-05,1.89,103
0.1269,7.385367E-06,1.9035,38,0.1269,-5.069047E-05,1.9035,102
0.1278,1.712062E-05,1.917,39,0.1278,-2.719158E-05,1.917,106
0.1287,8.761731E-05,1.9305,39,0.1287,-6.74754E-05,1.9305,105
0.1296,9.634547E-05,1.944,38,0.1296,-0.0001534142,1.944,101
0.1305,2.1149E-05,1.9575,38,0.1305,-0.0001211871,1.9575,104
0.1314,8.560311E-05,1.971,39,0.1314,-0.0001265583,1.971,104
0.1323,6.277562E-05,1.9845,41,0.1323,-0.0001701991,1.9845,100
0.1332,2.517739E-05,1.998,43,0.1332,-0.0001161517,1.998,98
0.1341,-3.860533E-05,2.0115,42,0.1341,-8.82887E-05,2.0115,98
0.135,-4.800488E-05,2.025,42,0.135,-8.258183E-05,2.025,102
0.1359,-7.586786E-05,2.0385,41,0.1359,-7.418937E-05,2.0385,103
0.1368,-1.577783E-05,2.052,42,0.1368,-5.807584E-05,2.052,103
0.1377,-3.524834E-05,2.0655,42,0.1377,2.584878E-05,2.0655,101
0.1386,-7.687495E-05,2.079,42,0.1386,2.1149E-05,2.079,102
0.1395,2.349889E-06,2.0925,42,0.1395,-4.968337E-05,2.0925,104
0.1404,1.007095E-06,2.106,43,0.1404,-2.1149E-05,2.106,101
0.1413,-8.89601E-05,2.1195,43,0.1413,3.625543E-05,2.1195,99
0.1422,-9.097429E-05,2.133,42,0.1422,1.208515E-05,2.133,103
0.1431,-4.599069E-05,2.1465,42,0.1431,5.941863E-05,2.1465,96
0.144,-0.0001171588,2.16,42,0.144,9.903105E-05,2.16,99
0.1449,-0.0001443503,2.1735,43,0.1449,7.486076E-05,2.1735,100
0.1458,-6.478981E-05,2.187,42,0.1458,2.887007E-05,2.187,98
0.1467,-4.934768E-05,2.2005,45,0.1467,2.316319E-05,2.2005,100
0.1476,-0.0001339437,2.214,45,0.1476,7.351797E-05,2.214,101
0.1485,-7.049668E-05,2.2275,44,0.1485,0.000105745,2.2275,103
0.1494,-3.256275E-05,2.241,43,0.1494,5.505455E-05,2.241,102
0.1503,-2.24918E-05,2.2545,43,0.1503,-6.344701E-05,2.2545,103
0.1512,-3.424125E-05,2.268,44,0.1512,-3.558404E-05,2.268,103
0.1521,-9.231708E-05,2.2815,43,0.1521,-4.699779E-05,2.2815,102
0.153,-0.0001033951,2.295,43,0.153,-9.097429E-05,2.295,100
0.1539,-6.57969E-05,2.3085,44,0.1539,-0.0001399863,2.3085,102
0.1548,-4.095522E-05,2.322,44,0.1548,-2.987716E-05,2.322,103
0.1557,8.560311E-05,2.3355,46,0.1557,-8.761731E-05,2.3355,97
0.1566,9.063859E-05,2.349,45,0.1566,-9.500267E-05,2.349,106
0.1575,2.954147E-05,2.3625,44,0.1575,-7.721065E-06,2.3625,105
0.1584,5.169757E-05,2.376,43,0.1584,4.800488E-05,2.376,103
0.1593,2.786297E-05,2.3895,42,0.1593,0.0001013809,2.3895,103
0.1602,1.007095E-05,2.403,43,0.1602,0.0001131304,2.403,105
0.1611,-4.53193E-05,2.4165,44,0.1611,0.0001252155,2.4165,103
0.162,-6.54612E-05,2.43,44,0.162,8.090334E-05,2.43,103
0.1629,-2.987716E-05,2.4435,44,0.1629,9.198138E-05,2.4435,104
0.1638,2.349889E-06,2.457,44,0.1638,8.89601E-05,2.457,107
0.1647,-5.203327E-05,2.4705,44,0.1647,0.0001205158,2.4705,104
0.1656,4.36408E-06,2.484,43,0.1656,0.000105745,2.484,103
0.1665,4.129091E-05,2.4975,43,0.1665,3.994812E-05,2.4975,102
0.1674,7.049668E-06,2.511,44,0.1674,2.450599E-05,2.511,104
0.1683,-2.954147E-05,2.5245,43,0.1683,3.726253E-05,2.5245,102
0.1692,8.560311E-05,2.538,42,0.1692,-2.517739E-05,2.538,105
0.1701,0.0001607996,2.5515,42,0.1701,-7.855344E-05,2.5515,106
0.171,2.450599E-05,2.565,42,0.171,-4.599069E-05,2.565,104
0.1719,-3.793393E-05,2.5785,43,0.1719,-4.666209E-05,2.5785,104
0.1728,-9.735256E-06,2.592,42,0.1728,-6.176852E-05,2.592,103
0.1737,-6.277562E-05,2.6055,41,0.1737,-8.090334E-05,2.6055,103
0.1746,-6.109713E-05,2.619,44,0.1746,-6.344701E-05,2.619,103
0.1755,6.042573E-06,2.6325,44,0.1755,-4.46479E-05,2.6325,104
0.1764,5.069047E-05,2.646,42,0.1764,-3.356985E-07,2.646,105
0.1773,0.0001195087,2.6595,43,0.1773,5.035477E-06,2.6595,103
0.1782,0.000136965,2.673,43,0.1782,-3.390555E-05,2.673,105
0.1791,0.0001111162,2.6865,43,0.1791,-6.009003E-05,2.6865,105
0.18,0.0001097734,2.7,42,0.18,-6.74754E-05,2.7,102
0.1809,0.0001215228,2.7135,43,0.1809,-5.606165E-05,2.7135,102
0.1818,1.007095E-05,2.727,42,0.1818,-7.721065E-06,2.727,106
0.1827,-2.719158E-05,2.7405,42,0.1827,-6.713969E-06,2.7405,107
0.1836,4.968337E-05,2.754,42,0.1836,-7.687495E-05,2.754,104
0.1845,-3.659113E-05,2.7675,42,0.1845,-9.231708E-05,2.7675,105
0.1854,-3.021286E-06,2.781,43,0.1854,-8.560311E-05,2.781,106
0.1863,0.0001574426,2.7945,41,0.1863,-0.0001151446,2.7945,106
0.1872,0.0001822843,2.808,42,0.1872,-5.539025E-05,2.808,108
0.1881,0.0001490501,2.8215,43,0.1881,-2.081331E-05,2.8215,107
0.189,0.0001473716,2.835,42,0.189,-2.719158E-05,2.835,104
0.1899,0.0001215228,2.8485,43,0.1899,-7.385367E-06,2.8485,108
0.1908,8.96315E-05,2.862,41,0.1908,-0.000115816,2.862,105
0.1917,-3.356985E-07,2.8755,43,0.1917,-7.452507E-05,2.8755,107
0.1926,2.484169E-05,2.889,42,0.1926,-7.888914E-05,2.889,105
0.1935,6.814679E-05,2.9025,42,0.1935,-0.0001070878,2.9025,104
0.1944,6.61326E-05,2.916,44,0.1944,-0.0001174945,2.916,105
0.1953,2.383459E-05,2.9295,43,0.1953,-8.358892E-05,2.9295,106
0.1962,-2.081331E-05,2.943,42,0.1962,-0.0001010452,2.943,105
0.1971,2.24918E-05,2.9565,43,0.1971,-0.0001366293,2.9565,105
0.198,-2.18204E-05,2.97,43,0.198,-8.86244E-05,2.97,107
0.1989,-8.627451E-05,2.9835,42,0.1989,-6.61326E-05,2.9835,103
0.1998,-9.869535E-05,2.997,42,0.1998,-8.89601E-05,2.997,105
0.2007,-3.289845E-05,3.0105,42,0.2007,-5.270466E-05,3.0105,107
0.2016,-6.009003E-05,3.024,41,0.2016,-2.450599E-05,3.024,103
0.2025,-8.92958E-05,3.0375,42,0.2025,-3.424125E-05,3.0375,110
0.2034,-4.699779E-05,3.051,44,0.2034,-1.577783E-05,3.051,110
0.2043,6.814679E-05,3.0645,0,0.2043,-3.189136E-05,3.0645,0
0.2052,2.18204E-05,3.078,0,0.2052,2.24918E-05,3.078,0
0.2061,-6.478981E-05,3.0915,0,0.2061,3.726253E-05,3.0915,0
0.207,5.035477E-06,3.105,0,0.207,-2.450599E-05,3.105,0
0.2079,5.438316E-05,3.1185,0,0.2079,-7.284657E-05,3.1185,0
0.2088,3.961242E-05,3.132,0,0.2088,3.692683E-05,3.132,0
0.2097,0.000144686,3.1455,0,0.2097,7.956054E-05,3.1455,0
0.2106,0.0001554284,3.159,0,0.2106,-4.46479E-05,3.159,0
0.2115,6.277562E-05,3.1725,0,0.2115,1.309224E-05,3.1725,0
0.2124,0.0001164874,3.186,0,0.2124,0.0001409934,3.186,0
0.2133,0.0001366293,3.1995,0,0.2133,0.0001221943,3.1995,0
0.2142,2.551309E-05,3.213,0,0.2142,0.000119173,3.213,0
0.2151,-1.980621E-05,3.2265,0,0.2151,0.0001467002,3.2265,0
0.216,2.786297E-05,3.24,0,0.216,0.0001514,3.24,0
0.2169,-4.36408E-06,3.2535,0,0.2169,0.0001131304,3.2535,0
0.2178,-2.719158E-05,3.267,0,0.2178,5.874724E-05,3.267,0
0.2187,-9.735256E-06,3.2805,0,0.2187,6.814679E-05,3.2805,0
0.2196,-1.107805E-05,3.294,0,0.2196,2.954147E-05,3.294,0
0.2205,-9.063859E-06,3.3075,0,0.2205,-6.378271E-06,3.3075,0
0.2214,8.056763E-06,3.321,0,0.2214,-5.706874E-06,3.321,0
0.2223,-0.0001232013,3.3345,0,0.2223,6.378271E-06,3.3345,0
0.2232,-0.000123537,3.348,0,0.2232,1.678492E-06,3.348,0
0.2241,-4.46479E-05,3.3615,0,0.2241,-3.054856E-05,3.3615,0
0.225,-0.0001013809,3.375,0,0.225,1.980621E-05,3.375,0
0.2259,-4.800488E-05,3.3885,0,0.2259,1.141375E-05,3.3885,0
0.2268,-3.021286E-05,3.402,0,0.2268,-5.606165E-05,3.402,0
0.2277,-0.0001510643,3.4155,0,0.2277,-7.351797E-05,3.4155,0
0.2286,-0.0001802701,3.429,0,0.2286,-7.217517E-05,3.429,0
0.2295,-9.600977E-05,3.4425,0,0.2295,-7.486076E-05,3.4425,0
0.2304,-2.551309E-05,3.456,0,0.2304,-8.560311E-05,3.456,0
0.2313,-2.987716E-05,3.4695,0,0.2313,-0.000119173,3.4695,0
0.2322,-2.450599E-05,3.483,0,0.2322,-0.0001272297,3.483,0
0.2331,-2.719158E-05,3.4965,0,0.2331,-0.0001225299,3.4965,0
0.234,-4.39765E-05,3.51,0,0.234,-0.0001554284,3.51,0
0.2349,-7.620356E-05,3.5235,0,0.2349,-0.0002229038,3.5235,0
0.2358,-0.0001631495,3.537,0,0.2358,-0.0001963836,3.537,0
0.2367,-0.000119173,3.5505,0,0.2367,-0.0001735561,3.5505,0
0.2376,-0.0001087663,3.564,0,0.2376,-0.0001661708,3.564,0
0.2385,-0.0001379721,3.5775,0,0.2385,-2.987716E-05,3.5775,0
0.2394,1.913481E-05,3.591,0,0.2394,0.0001003738,3.591,0
0.2403,4.46479E-05,3.6045,0,0.2403,-5.706874E-06,3.6045,0
0.2412,-1.242084E-05,3.618,0,0.2412,-6.61326E-05,3.618,0
0.2421,5.035477E-05,3.6315,0,0.2421,1.309224E-05,3.6315,0
0.243,9.835965E-05,3.645,0,0.243,5.203327E-05,3.645,0
0.2439,7.687495E-05,3.6585,0,0.2439,2.1149E-05,3.6585,0
0.2448,0.0001097734,3.672,0,0.2448,1.577783E-05,3.672,0
0.2457,2.24918E-05,3.6855,0,0.2457,3.155566E-05,3.6855,0
0.2466,5.505455E-05,3.699,0,0.2466,6.78111E-05,3.699,0
0.2475,4.766919E-05,3.7125,0,0.2475,2.24918E-05,3.7125,0
0.2484,6.344701E-05,3.726,0,0.2484,-2.786297E-05,3.726,0
0.2493,-2.047761E-05,3.7395,0,0.2493,3.356985E-07,3.7395,0
0.2502,1.678492E-06,3.753,0,0.2502,-2.081331E-05,3.753,0
0.2511,5.874724E-05,3.7665,0,0.2511,-3.894102E-05,3.7665,0
0.252,-4.53193E-05,3.78,0,0.252,1.913481E-05,3.78,0
0.2529,-2.1149E-05,3.7935,0,0.2529,-8.056763E-06,3.7935,0
0.2538,3.524834E-05,3.807,0,0.2538,-4.196231E-05,3.807,0
0.2547,-0.0001309224,3.8205,0,0.2547,-3.256275E-05,3.8205,0
0.2556,-0.0001524071,3.834,0,0.2556,-7.083238E-05,3.834,0
0.2565,-6.64683E-05,3.8475,0,0.2565,-9.265278E-05,3.8475,0
0.2574,-0.0001080949,3.861,0,0.2574,-9.399557E-05,3.861,0
0.2583,-4.867628E-05,3.8745,0,0.2583,-0.0001332723,3.8745,0
0.2592,-6.478981E-05,3.888,0,0.2592,-8.090334E-05,3.888,0
0.2601,-6.277562E-05,3.9015,0,0.2601,-1.443504E-05,3.9015,0
0.261,-5.304036E-05,3.915,0,0.261,3.826963E-05,3.915,0
0.2619,-3.289845E-05,3.9285,0,0.2619,1.141375E-05,3.9285,0
0.2628,-8.72816E-05,3.942,0,0.2628,6.948959E-05,3.942,0
0.2637,-6.848249E-05,3.9555,0,0.2637,7.888914E-05,3.9555,0
0.2646,8.392462E-06,3.969,0,0.2646,3.356985E-07,3.969,0
0.2655,3.457694E-05,3.9825,0,0.2655,5.673304E-05,3.9825,0
0.2664,5.404745E-05,3.996,0,0.2664,2.383459E-05,3.996,0
0.2673,8.89601E-05,4.0095,0,0.2673,-3.323415E-05,4.0095,0
0.2682,0.0001144732,4.023,0,0.2682,-2.685588E-06,4.023,0
0.2691,3.189136E-05,4.0365,0,0.2691,9.500267E-05,4.0365,0
0.27,1.779202E-05,4.05,0,0.27,0.0001352865,4.05,0
0.2709,-2.18204E-05,4.0635,0,0.2709,0.0001252155,4.0635,0
0.2718,-1.913481E-05,4.077,0,0.2718,8.123904E-05,4.077,0
0.2727,-6.74754E-05,4.0905,0,0.2727,7.452507E-05,4.0905,0
0.2736,-0.0001215228,4.104,0,0.2736,6.51255E-05,4.104,0
0.2745,-5.539025E-05,4.1175,0,0.2745,6.713969E-07,4.1175,0
0.2754,-4.632639E-05,4.131,0,0.2754,-7.150377E-05,4.131,0
0.2763,-4.968337E-05,4.1445,0,0.2763,-4.666209E-05,4.1445,0
0.2772,0.0001198444,4.158,0,0.2772,-6.076142E-05,4.158,0
0.2781,0.0001178302,4.1715,0,0.2781,-0.0001037308,4.1715,0
0.279,-4.162661E-05,4.185,0,0.279,-4.733349E-05,4.185,0
0.2799,3.793393E-05,4.1985,0,0.2799,-4.666209E-05,4.1985,0
0.2808,6.61326E-05,4.212,0,0.2808,-0.0001077592,4.212,0
0.2817,-3.424125E-05,4.2255,0,0.2817,-8.090334E-05,4.2255,0
0.2826,-6.881819E-05,4.239,0,0.2826,-3.927672E-05,4.239,0
0.2835,-5.539025E-05,4.2525,0,0.2835,-3.457694E-05,4.2525,0
0.2844,-6.210422E-05,4.266,0,0.2844,-1.510643E-05,4.266,0
0.2853,-4.061952E-05,4.2795,0,0.2853,-1.242084E-05,4.2795,0
0.2862,-3.323415E-05,4.293,0,0.2862,3.726253E-05,4.293,0
0.2871,-0.0001550927,4.3065,0,0.2871,2.349889E-05,4.3065,0
0.288,-7.788205E-05,4.32,0,0.288,1.376364E-05,4.32,0
0.2889,-3.390555E-05,4.3335,0,0.2889,-5.706874E-05,4.3335,0
0.2898,-0.0001520714,4.347,0,0.2898,-7.351797E-05,4.347,0
0.2907,-0.0001534142,4.3605,0,0.2907,-6.64683E-05,4.3605,0
0.2916,-2.014191E-05,4.374,0,0.2916,-9.500267E-05,4.374,0
0.2925,-7.385367E-05,4.3875,0,0.2925,-5.673304E-05,4.3875,0
0.2934,1.577783E-05,4.401,0,0.2934,-6.54612E-05,4.401,0
0.2943,0.0001138018,4.4145,0,0.2943,-7.284657E-05,4.4145,0
0.2952,2.349889E-06,4.428,0,0.2952,-2.383459E-05,4.428,0
0.2961,2.484169E-05,4.4415,0,0.2961,6.076142E-05,4.4415,0
0.297,8.92958E-05,4.455,0,0.297,2.551309E-05,4.455,0
0.2979,0.0001017166,4.4685,0,0.2979,-4.36408E-06,4.4685,0
0.2988,0.0001138018,4.482,0,0.2988,-3.021286E-06,4.482,0
0.2997,0.000109102,4.4955,0,0.2997,4.901198E-05,4.4955,0
0.3006,0.0001215228,4.509,0,0.3006,7.318227E-05,4.509,0
0.3015,7.653925E-05,4.5225,0,0.3015,2.484169E-05,4.5225,0
0.3024,8.157473E-05,4.536,0,0.3024,5.035477E-06,4.536,0
0.3033,6.143282E-05,4.5495,0,0.3033,1.443504E-05,4.5495,0
0.3042,7.721065E-06,4.563,0,0.3042,-6.6804E-05,4.563,0
0.3051,4.565499E-05,4.5765,0,0.3051,-7.553216E-05,4.5765,0
0.306,5.035477E-06,4.59,0,0.306,-4.36408E-05,4.59,0
0.3069,-9.332418E-05,4.6035,0,0.3069,-5.841154E-05,4.6035,0
0.3078,-9.936675E-05,4.617,0,0.3078,-8.89601E-05,4.617,0
0.3087,-0.0001205158,4.6305,0,0.3087,-6.378271E-06,4.6305,0
0.3096,-0.0001416648,4.644,0,0.3096,1.980621E-05,4.644,0
0.3105,-7.083238E-05,4.6575,0,0.3105,7.049668E-06,4.6575,0
0.3114,1.443504E-05,4.671,0,0.3114,5.304036E-05,4.671,0
0.3123,0.0001178302,4.6845,0,0.3123,2.685588E-05,4.6845,0
0.3132,6.311131E-05,4.698,0,0.3132,0.0001366293,4.698,0
0.3141,7.217517E-05,4.7115,0,0.3141,0.0001842985,4.7115,0
0.315,0.0001389792,4.725,0,0.315,4.028382E-05,4.725,0
0.3159,8.224613E-05,4.7385,0,0.3159,-1.040665E-05,4.7385,0
0.3168,-2.047761E-05,4.752,0,0.3168,2.584878E-05,4.752,0
0.3177,-2.21561E-05,4.7655,0,0.3177,-1.712062E-05,4.7655,0
0.3186,-1.477073E-05,4.779,0,0.3186,-6.881819E-05,4.779,0
0.3195,-6.243992E-05,4.7925,0,0.3195,-6.713969E-07,4.7925,0
0.3204,1.040665E-05,4.806,0,0.3204,1.443504E-05,4.806,0
0.3213,5.606165E-05,4.8195,0,0.3213,-6.411841E-05,4.8195,0
0.3222,-7.284657E-05,4.833,0,0.3222,-5.069047E-05,4.833,0
0.3231,-9.701686E-05,4.8465,0,0.3231,-2.685588E-05,4.8465,0
0.324,2.584878E-05,4.86,0,0.324,-6.210422E-05,4.86,0
0.3249,4.968337E-05,4.8735,0,0.3249,-8.090334E-05,4.8735,0
0.3258,2.652018E-05,4.887,0,0.3258,-6.344701E-05,4.887,0
0.3267,-1.107805E-05,4.9005,0,0.3267,-3.793393E-05,4.9005,0
0.3276,2.383459E-05,4.914,0,0.3276,6.713969E-07,4.914,0
0.3285,4.36408E-06,4.9275,0,0.3285,2.349889E-06,4.9275,0
0.3294,9.063859E-06,4.941,0,0.3294,-2.1149E-05,4.941,0
0.3303,-0.0001134661,4.9545,0,0.3303,5.169757E-05,4.9545,0
0.3312,-3.927672E-05,4.968,0,0.3312,3.021286E-06,4.968,0
0.3321,8.325322E-05,4.9815,0,0.3321,-6.277562E-05,4.9815,0
0.333,-6.713969E-06,4.995,0,0.333,-3.927672E-05,4.995,0
0.3339,-0.0001154803,5.0085,0,0.3339,-5.908293E-05,5.0085,0
0.3348,-6.076142E-05,5.022,0,0.3348,-6.54612E-05,5.022,0
0.3357,1.779202E-05,5.0355,0,0.3357,-6.143282E-05,5.0355,0
0.3366,-5.673304E-05,5.049,0,0.3366,-8.157473E-05,5.049,0
0.3375,-5.136187E-05,5.0625,0,0.3375,-9.701686E-05,5.0625,0
0.3384,-5.136187E-05,5.076,0,0.3384,-0.0001000381,5.076,0
0.3393,-8.358892E-05,5.0895,0,0.3393,-0.000109102,5.0895,0
0.3402,-0.0001077592,5.103,0,0.3402,-0.0001010452,5.103,0
0.3411,-0.0001064164,5.1165,0,0.3411,-5.404745E-05,5.1165,0
0.342,-0.0001470359,5.13,0,0.342,-8.090334E-05,5.13,0
0.3429,-0.0001262226,5.1435,0,0.3429,-8.157473E-05,5.1435,0
0.3438,-0.0001346151,5.157,0,0.3438,-7.083238E-05,5.157,0
0.3447,-5.304036E-05,5.1705,0,0.3447,-6.109713E-05,5.1705,0
0.3456,3.558404E-05,5.184,0,0.3456,-6.109713E-05,5.184,0
0.3465,-3.826963E-05,5.1975,0,0.3465,-5.572595E-05,5.1975,0
0.3474,-7.721065E-06,5.211,0,0.3474,-0.0001346151,5.211,0
0.3483,1.376364E-05,5.2245,0,0.3483,-0.0002366674,5.2245,0
0.3492,3.927672E-05,5.238,0,0.3492,-0.0002145113,5.238,0
0.3501,6.243992E-05,5.2515,0,0.3501,-0.0001762417,5.2515,0
0.351,6.61326E-05,5.265,0,0.351,-7.553216E-05,5.265,0
0.3519,0.0001339437,5.2785,0,0.3519,8.96315E-05,5.2785,0
0.3528,0.0002306248,5.292,0,0.3528,0.0001373007,5.292,0
0.3537,0.0001228656,5.3055,0,0.3537,0.0002547952,5.3055,0
0.3546,2.517739E-05,5.319,0,0.3546,0.0003118639,5.319,0
0.3555,7.049668E-05,5.3325,0,0.3555,0.0002524453,5.3325,0
0.3564,9.164568E-05,5.346,0,0.3564,0.0001695277,5.346,0
0.3573,-3.961242E-05,5.3595,0,0.3573,0.0001211871,5.3595,0
0.3582,2.316319E-05,5.373,0,0.3582,7.821774E-05,5.373,0
0.3591,9.097429E-05,5.3865,0,0.3591,2.618448E-05,5.3865,0
0.36,-5.807584E-05,5.4,0,0.36,3.860533E-05,5.4,0
0.3609,-8.96315E-05,5.4135,0,0.3609,1.275654E-05,5.4135,0
0.3618,-4.934768E-05,5.427,0,0.3618,-3.726253E-05,5.427,0
0.3627,-7.217517E-05,5.4405,0,0.3627,-2.920577E-05,5.4405,0
0.3636,-7.653925E-05,5.454,0,0.3636,-1.309224E-05,5.454,0
0.3645,-1.242084E-05,5.4675,0,0.3645,-4.229801E-05,5.4675,0
0.3654,-7.150377E-05,5.481,0,0.3654,-5.673304E-05,5.481,0
0.3663,-3.625543E-05,5.4945,0,0.3663,-6.78111E-05,5.4945,0
0.3672,-2.349889E-05,5.508,0,0.3672,-0.0001030594,5.508,0
0.3681,4.39765E-05,5.5215,0,0.3681,-0.0001168231,5.5215,0
0.369,6.411841E-05,5.535,0,0.369,-5.539025E-05,5.535,0
0.3699,7.150377E-05,5.5485,0,0.3699,3.088426E-05,5.5485,0
0.3708,1.846342E-05,5.562,0,0.3708,8.661021E-05,5.562,0
0.3717,5.740444E-05,5.5755,0,0.3717,-1.913481E-05,5.5755,0
0.3726,0.0001745632,5.589,0,0.3726,-4.53193E-05,5.589,0
0.3735,9.231708E-05,5.6025,0,0.3735,-2.316319E-05,5.6025,0
0.3744,3.692683E-06,5.616,0,0.3744,-2.853437E-05,5.616,0
0.3753,6.915389E-05,5.6295,0,0.3753,-7.251087E-05,5.6295,0
0.3762,1.913481E-05,5.643,0,0.3762,-7.922484E-05,5.643,0
0.3771,-4.46479E-05,5.6565,0,0.3771,-5.941863E-05,5.6565,0
0.378,2.18204E-05,5.67,0,0.378,-0.0001211871,5.67,0
0.3789,3.994812E-05,5.6835,0,0.3789,-0.0001332723,5.6835,0
0.3798,1.443504E-05,5.697,0,0.3798,-0.0001440146,5.697,0
0.3807,-2.719158E-05,5.7105,0,0.3807,-9.063859E-05,5.7105,0
0.3816,-3.356985E-06,5.724,0,0.3816,-3.860533E-05,5.724,0
0.3825,7.217517E-05,5.7375,0,0.3825,-6.948959E-05,5.7375,0
0.3834,8.258183E-05,5.751,0,0.3834,-4.39765E-05,5.751,0
0.3843,-2.18204E-05,5.7645,0,0.3843,-2.081331E-05,5.7645,0
0.3852,2.24918E-05,5.778,0,0.3852,-5.740444E-05,5.778,0
0.3861,7.721065E-06,5.7915,0,0.3861,-0.0001181659,5.7915,0
0.387,-0.0001077592,5.805,0,0.387,-4.800488E-05,5.805,0
0.3879,-0.0001020523,5.8185,0,0.3879,-4.699779E-05,5.8185,0
0.3888,-8.89601E-05,5.832,0,0.3888,-5.337606E-05,5.832,0
0.3897,-4.666209E-05,5.8455,0,0.3897,-2.652018E-05,5.8455,0
0.3906,-0.0001477073,5.859,0,0.3906,2.1149E-05,5.859,0
0.3915,-0.000161471,5.8725,0,0.3915,1.443504E-05,5.8725,0
0.3924,-0.0002054475,5.886,0,0.3924,-1.745632E-05,5.886,0
0.3933,-0.0001537499,5.8995,0,0.3933,-7.754635E-05,5.8995,0
0.3942,-0.0001577783,5.913,0,0.3942,-7.083238E-05,5.913,0
0.3951,-0.0001973907,5.9265,0,0.3951,-1.376364E-05,5.9265,0
0.396,-9.365987E-05,5.94,0,0.396,6.814679E-05,5.94,0
0.3969,-9.634547E-05,5.9535,0,0.3969,-1.980621E-05,5.9535,0
0.3978,-0.0001228656,5.967,0,0.3978,-4.162661E-05,5.967,0
0.3987,2.349889E-06,5.9805,0,0.3987,4.36408E-06,5.9805,0
0.3996,6.076142E-05,5.994,0,0.3996,-1.644922E-05,5.994,0
0.4005,-2.517739E-05,6.0075,0,0.4005,2.1149E-05,6.0075,0
0.4014,0.0001094377,6.021,0,0.4014,-5.404745E-05,6.021,0
0.4023,0.0001950408,6.0345,0,0.4023,-5.673304E-05,6.0345,0
0.4032,0.0001198444,6.048,0,0.4032,-1.879912E-05,6.048,0
0.4041,-3.356985E-07,6.0615,0,0.4041,5.572595E-05,6.0615,0
0.405,3.726253E-05,6.075,0,0.405,0.0001373007,6.075,0
0.4059,6.54612E-05,6.0885,0,0.4059,0.0002098116,6.0885,0
0.4068,6.61326E-05,6.102,0,0.4068,0.0001930266,6.102,0
0.4077,1.980621E-05,6.1155,0,0.4077,0.0001540856,6.1155,0
0.4086,-3.625543E-05,6.129,0,0.4086,0.0001366293,6.129,0
0.4095,-4.699779E-05,6.1425,0,0.4095,2.987716E-05,6.1425,0
0.4104,-1.174945E-05,6.156,0,0.4104,-1.007095E-05,6.156,0
0.4113,-4.33051E-05,6.1695,0,0.4113,2.786297E-05,6.1695,0
0.4122,-0.0001178302,6.183,0,0.4122,1.644922E-05,6.183,0
0.4131,-6.210422E-05,6.1965,0,0.4131,-7.049668E-06,6.1965,0
0.414,-0.0001332723,6.21,0,0.414,2.349889E-06,6.21,0
0.4149,-0.0001490501,6.2235,0,0.4149,1.812772E-05,6.2235,0
0.4158,-3.793393E-05,6.237,0,0.4158,1.678492E-05,6.237,0
0.4167,3.692683E-06,6.2505,0,0.4167,-3.155566E-05,6.2505,0
0.4176,-5.337606E-05,6.264,0,0.4176,-0.0001064164,6.264,0
0.4185,-1.107805E-05,6.2775,0,0.4185,-0.0001201801,6.2775,0
0.4194,6.277562E-05,6.291,0,0.4194,-8.526741E-05,6.291,0
0.4203,0.0001225299,6.3045,0,0.4203,-0.0001440146,6.3045,0
0.4212,-1.107805E-05,6.318,0,0.4212,-0.0002000763,6.318,0
0.4221,-3.692683E-06,6.3315,0,0.4221,-0.0002333104,6.3315,0
0.423,7.754635E-05,6.345,0,0.423,-0.0001524071,6.345,0
0.4239,4.934768E-05,6.3585,0,0.4239,2.719158E-05,6.3585,0
0.4248,1.040665E-05,6.372,0,0.4248,0.000144686,6.372,0
0.4257,3.457694E-05,6.3855,0,0.4257,7.586786E-05,6.3855,0
0.4266,0.0001010452,6.399,0,0.4266,8.92958E-05,6.399,0
0.4275,1.040665E-05,6.4125,0,0.4275,9.567407E-05,6.4125,0
0.4284,-1.107805E-05,6.426,0,0.4284,3.356985E-07,6.426,0
0.4293,0.0001134661,6.4395,0,0.4293,-8.392462E-06,6.4395,0
0.4302,9.298848E-05,6.453,0,0.4302,-5.203327E-05,6.453,0
0.4311,8.023193E-05,6.4665,0,0.4311,-7.653925E-05,6.4665,0
0.432,9.433127E-05,6.48,0,0.432,-8.627451E-05,6.48,0
0.4329,-1.007095E-05,6.4935,0,0.4329,-9.399557E-05,6.4935,0
0.4338,-4.36408E-06,6.507,0,0.4338,-0.0001064164,6.507,0
0.4347,-4.49836E-05,6.5205,0,0.4347,-7.586786E-05,6.5205,0
0.4356,-0.0001148089,6.534,0,0.4356,-3.659113E-05,6.534,0
0.4365,-3.289845E-05,6.5475,0,0.4365,-6.378271E-06,6.5475,0
0.4374,-3.021286E-06,6.561,0,0.4374,-4.36408E-06,6.561,0
0.4383,-0.0001366293,6.5745,0,0.4383,4.36408E-06,6.5745,0
0.4392,-9.365987E-05,6.588,0,0.4392,-4.061952E-05,6.588,0
0.4401,5.035477E-06,6.6015,0,0.4401,-8.258183E-05,6.6015,0
0.441,-6.915389E-05,6.615,0,0.441,-3.591974E-05,6.615,0
0.4419,-0.0001211871,6.6285,0,0.4419,-6.478981E-05,6.6285,0
0.4428,-5.706874E-05,6.642,0,0.4428,-8.72816E-05,6.642,0
0.4437,-4.49836E-05,6.6555,0,0.4437,-1.477073E-05,6.6555,0
0.4446,-0.0001198444,6.669,0,0.4446,0.0001050736,6.669,0
0.4455,-8.89601E-05,6.6825,0,0.4455,0.0001205158,6.6825,0
0.4464,-0.0001047379,6.696,0,0.4464,0.0001080949,6.696,0
0.4473,-9.634547E-05,6.7095,0,0.4473,6.74754E-05,6.7095,0
0.4482,-6.143282E-05,6.723,0,0.4482,3.826963E-05,6.723,0
0.4491,-2.1149E-05,6.7365,0,0.4491,-1.107805E-05,6.7365,0
0.45,-4.36408E-06,6.75,0,0.45,-5.069047E-05,6.75,0
0.4509,3.457694E-05,6.7635,0,0.4509,-9.433127E-05,6.7635,0
0.4518,0.0001067521,6.777,0,0.4518,-0.0001252155,6.777,0
0.4527,0.0002279393,6.7905,0,0.4527,-0.0001195087,6.7905,0
0.4536,0.0002195468,6.804,0,0.4536,-0.000126894,6.804,0
0.4545,9.869535E-05,6.8175,0,0.4545,-3.289845E-05,6.8175,0
0.4554,3.256275E-05,6.831,0,0.4554,-0.0001258869,6.831,0
0.4563,6.411841E-05,6.8445,0,0.4563,-0.0001752346,6.8445,0
0.4572,9.265278E-05,6.858,0,0.4572,-2.719158E-05,6.858,0
0.4581,9.869535E-05,6.8715,0,0.4581,0.0001688563,6.8715,0
0.459,0.0001255512,6.885,0,0.459,0.0002410315,6.885,0
0.4599,0.0001420005,6.8985,0,0.4599,0.000154757,6.8985,0
0.4608,0.0001044022,6.912,0,0.4608,2.047761E-05,6.912,0
0.4617,3.927672E-05,6.9255,0,0.4617,-1.242084E-05,6.9255,0
0.4626,-1.275654E-05,6.939,0,0.4626,-4.800488E-05,6.939,0
0.4635,2.417029E-05,6.9525,0,0.4635,-0.000105745,6.9525,0
0.4644,7.049668E-06,6.966,0,0.4644,-6.210422E-05,6.966,0
0.4653,-9.231708E-05,6.9795,0,0.4653,5.572595E-05,6.9795,0
0.4662,-6.311131E-05,6.993,0,0.4662,5.270466E-05,6.993,0
0.4671,1.141375E-05,7.0065,0,0.4671,-8.459602E-05,7.0065,0
0.468,-9.768826E-05,7.02,0,0.468,-6.61326E-05,7.02,0
0.4689,-3.256275E-05,7.0335,0,0.4689,-3.894102E-05,7.0335,0
0.4698,2.887007E-05,7.047,0,0.4698,-3.558404E-05,7.047,0
0.4707,-1.242084E-05,7.0605,0,0.4707,0.0001473716,7.0605,0
0.4716,-3.591974E-05,7.074,0,0.4716,0.0001842985,7.074,0
0.4725,-2.618448E-05,7.0875,0,0.4725,0.0001577783,7.0875,0
0.4734,-5.035477E-05,7.101,0,0.4734,9.634547E-05,7.101,0
0.4743,-1.510643E-05,7.1145,0,0.4743,4.36408E-06,7.1145,0
0.4752,-5.706874E-06,7.128,0,0.4752,-5.270466E-05,7.128,0
0.4761,-3.356985E-07,7.1415,0,0.4761,-0.0001013809,7.1415,0
0.477,-1.745632E-05,7.155,0,0.477,-0.0001695277,7.155,0
0.4779,4.39765E-05,7.1685,0,0.4779,-0.0002024262,7.1685,0
0.4788,-2.652018E-05,7.182,0,0.4788,-0.0001232013,7.182,0
0.4797,-2.719158E-05,7.1955,0,0.4797,-5.740444E-05,7.1955,0
0.4806,6.948959E-05,7.209,0,0.4806,-5.404745E-05,7.209,0
0.4815,-7.116808E-05,7.2225,0,0.4815,5.001907E-05,7.2225,0
0.4824,-7.888914E-05,7.236,0,0.4824,6.344701E-05,7.236,0
0.4833,-3.155566E-05,7.2495,0,0.4833,3.793393E-05,7.2495,0
0.4842,-2.18204E-05,7.263,0,0.4842,4.129091E-05,7.263,0
0.4851,-1.040665E-05,7.2765,0,0.4851,3.894102E-05,7.2765,0
0.486,0.000102388,7.29,0,0.486,-2.21561E-05,7.29,0
0.4869,8.96315E-05,7.3035,0,0.4869,-9.399557E-05,7.3035,0
0.4878,4.36408E-06,7.317,0,0.4878,-0.0001282368,7.317,0
0.4887,-1.342794E-05,7.3305,0,0.4887,-0.0001047379,7.3305,0
0.4896,5.539025E-05,7.344,0,0.4896,-0.000109102,7.344,0
0.4905,-9.399558E-06,7.3575,0,0.4905,-0.0001728847,7.3575,0
0.4914,-2.584878E-05,7.371,0,0.4914,-0.0001215228,7.371,0
0.4923,-4.263371E-05,7.3845,0,0.4923,-4.53193E-05,7.3845,0
0.4932,-3.826963E-05,7.398,0,0.4932,-8.224613E-05,7.398,0
0.4941,-3.356985E-07,7.4115,0,0.4941,-8.82887E-05,7.4115,0
0.495,-4.867628E-05,7.425,0,0.495,0.000112459,7.425,0
0.4959,-0.0001134661,7.4385,0,0.4959,0.0002467384,7.4385,0
0.4968,-0.0001111162,7.452,0,0.4968,0.0001339437,7.452,0
0.4977,-0.0001205158,7.4655,0,0.4977,2.417029E-05,7.4655,0
0.4986,-0.0001255512,7.479,0,0.4986,-1.611353E-05,7.479,0
0.4995,-0.0001540856,7.4925,0,0.4995,-0.0001030594,7.4925,0
0.5004,-0.0001634852,7.506,0,0.5004,-0.0001514,7.506,0
0.5013,-8.82887E-05,7.5195,0,0.5013,-0.0001695277,7.5195,0
0.5022,-0.0001027237,7.533,0,0.5022,-0.0001131304,7.533,0
0.5031,-0.0001960479,7.5465,0,0.5031,-0.0001221943,7.5465,0
0.504,-0.0001467002,7.56,0,0.504,-7.620356E-05,7.56,0
0.5049,-9.231708E-05,7.5735,0,0.5049,0.0002145113,7.5735,0
0.5058,-6.311131E-05,7.587,0,0.5058,0.0003508049,7.587,0
0.5067,9.835965E-05,7.6005,0,0.5067,0.0001873197,7.6005,0
0.5076,0.000119173,7.614,0,0.5076,-1.376364E-05,7.614,0
0.5085,-2.383459E-05,7.6275,0,0.5085,-7.956054E-05,7.6275,0
0.5094,4.129091E-05,7.641,0,0.5094,-0.0001748989,7.641,0
0.5103,0.0001265583,7.6545,0,0.5103,-0.000239353,7.6545,0
0.5112,-1.510643E-05,7.668,0,0.5112,-0.0001534142,7.668,0
0.5121,-4.632639E-05,7.6815,0,0.5121,5.337606E-05,7.6815,0
0.513,6.277562E-05,7.695,0,0.513,5.606165E-05,7.695,0
0.5139,7.217517E-05,7.7085,0,0.5139,-3.793393E-05,7.7085,0
0.5148,8.761731E-05,7.722,0,0.5148,-0.0001013809,7.722,0
0.5157,0.0001349508,7.7355,0,0.5157,-0.0001373007,7.7355,0
0.5166,0.0001164874,7.749,0,0.5166,-0.0001775845,7.749,0
0.5175,5.874724E-05,7.7625,0,0.5175,-0.0001245441,7.7625,0
0.5184,8.627451E-05,7.776,0,0.5184,7.687495E-05,7.776,0
0.5193,-2.987716E-05,7.7895,0,0.5193,0.0001705348,7.7895,0
0.5202,-5.975433E-05,7.803,0,0.5202,0.0001889983,7.803,0
0.5211,2.618448E-05,7.8165,0,0.5211,0.0001232013,7.8165,0
0.522,-3.524834E-05,7.83,0,0.522,0.0001312581,7.83,0
0.5229,-0.0001104448,7.8435,0,0.5229,8.92958E-05,7.8435,0
0.5238,-4.263371E-05,7.857,0,0.5238,1.913481E-05,7.857,0
0.5247,-5.975433E-05,7.8705,0,0.5247,2.1149E-05,7.8705,0
0.5256,-0.0001309224,7.884,0,0.5256,5.807584E-05,7.884,0
0.5265,-9.903105E-05,7.8975,0,0.5265,-6.64683E-05,7.8975,0
0.5274,-8.325322E-05,7.911,0,0.5274,-0.0001393149,7.911,0
0.5283,-5.539025E-05,7.9245,0,0.5283,-0.0001453574,7.9245,0
0.5292,-7.687495E-05,7.938,0,0.5292,-0.0001185016,7.938,0
0.5301,-9.903105E-05,7.9515,0,0.5301,-0.0001127947,7.9515,0
0.531,-9.433127E-05,7.965,0,0.531,-1.913481E-05,7.965,0
0.5319,-3.860533E-05,7.9785,0,0.5319,4.43122E-05,7.9785,0
0.5328,-3.692683E-06,7.992,0,0.5328,1.007095E-05,7.992,0
0.5337,0.0001809415,8.0055,0,0.5337,-1.007095E-05,8.0055,0
0.5346,0.0002876936,8.019,0,0.5346,-1.678492E-06,8.019,0
0.5355,0.000197055,8.0325,0,0.5355,7.183947E-05,8.0325,0
0.5364,0.0002171969,8.046,0,0.5364,-6.713969E-07,8.046,0
0.5373,0.0002091402,8.0595,0,0.5373,-6.277562E-05,8.0595,0
0.5382,8.157473E-05,8.073,0,0.5382,-6.54612E-05,8.073,0
0.5391,3.759823E-05,8.0865,0,0.5391,-4.53193E-05,8.0865,0
0.54,3.457694E-05,8.1,0,0.54,-4.061952E-05,8.1,0
0.5409,6.6804E-05,8.1135,0,0.5409,-2.316319E-05,8.1135,0
0.5418,0.0001379721,8.127,0,0.5418,1.678492E-06,8.127,0
0.5427,7.553216E-05,8.1405,0,0.5427,6.881819E-05,8.1405,0
0.5436,0.0001003738,8.154,0,0.5436,6.109713E-05,8.154,0
0.5445,0.0001359579,8.1675,0,0.5445,-2.450599E-05,8.1675,0
0.5454,0.0001957122,8.181,0,0.5454,-1.712062E-05,8.181,0
0.5463,6.411841E-05,8.1945,0,0.5463,2.752728E-05,8.1945,0
0.5472,2.517739E-05,8.208,0,0.5472,1.242084E-05,8.208,0
0.5481,6.411841E-05,8.2215,0,0.5481,-5.975433E-05,8.2215,0
0.549,-6.378271E-05,8.235,0,0.549,-7.049668E-05,8.235,0
0.5499,-9.030289E-05,8.2485,0,0.5499,-5.169757E-05,8.2485,0
0.5508,9.063859E-06,8.262,0,0.5508,-6.143282E-05,8.262,0
0.5517,-0.0001218585,8.2755,0,0.5517,-5.035477E-05,8.2755,0
0.5526,-0.000197055,8.289,0,0.5526,-8.627451E-05,8.289,0
0.5535,-0.0001453574,8.3025,0,0.5535,-0.0001161517,8.3025,0
0.5544,-0.0001785916,8.316,0,0.5544,-0.0001245441,8.316,0
0.5553,-0.0001722133,8.3295,0,0.5553,-0.0001393149,8.3295,0
0.5562,-0.0001497215,8.343,0,0.5562,-5.673304E-05,8.343,0
0.5571,-0.0001379721,8.3565,0,0.5571,8.191043E-05,8.3565,0
0.558,-7.150377E-05,8.37,0,0.558,0,8.37,0
0.5589,-2.484169E-05,8.3835,0,0.5589,-0.0001094377,8.3835,0
0.5598,-6.982528E-05,8.397,0,0.5598,-6.478981E-05,8.397,0
0.5607,-0.0001436789,8.4105,0,0.5607,-6.78111E-05,8.4105,0
0.5616,-4.39765E-05,8.424,0,0.5616,-0.0001178302,8.424,0
0.5625,-1.980621E-05,8.4375,0,0.5625,-5.136187E-05,8.4375,0
0.5634,-5.270466E-05,8.451,0,0.5634,-3.021286E-05,8.451,0
0.5643,-6.344701E-05,8.4645,0,0.5643,-7.721065E-05,8.4645,0
0.5652,-1.443504E-05,8.478,0,0.5652,-3.692683E-05,8.478,0
0.5661,3.692683E-06,8.4915,0,0.5661,-5.438316E-05,8.4915,0
0.567,8.96315E-05,8.505,0,0.567,-8.89601E-05,8.505,0
0.5679,2.081331E-05,8.5185,0,0.5679,-1.510643E-05,8.5185,0
0.5688,-1.712062E-05,8.532,0,0.5688,9.735256E-06,8.532,0
0.5697,-4.867628E-05,8.5455,0,0.5697,-3.826963E-05,8.5455,0
0.5706,-6.814679E-05,8.559,0,0.5706,-1.309224E-05,8.559,0
0.5715,-1.242084E-05,8.5725,0,0.5715,4.33051E-05,8.5725,0
0.5724,-5.774014E-05,8.586,0,0.5724,-3.659113E-05,8.586,0
0.5733,-0.0001017166,8.5995,0,0.5733,-5.270466E-05,8.5995,0
0.5742,-2.450599E-05,8.613,0,0.5742,0.0001044022,8.613,0
0.5751,4.39765E-05,8.6265,0,0.5751,0.0001188373,8.6265,0
0.576,-3.726253E-05,8.64,0,0.576,4.46479E-05,8.64,0
0.5769,-4.36408E-05,8.6535,0,0.5769,3.692683E-06,8.6535,0
0.5778,-1.510643E-05,8.667,0,0.5778,-2.1149E-05,8.667,0
0.5787,-7.721065E-06,8.6805,0,0.5787,6.277562E-05,8.6805,0
0.5796,2.853437E-05,8.694,0,0.5796,0.0001668421,8.694,0
0.5805,6.411841E-05,8.7075,0,0.5805,0.0001846342,8.7075,0
0.5814,9.231708E-05,8.721,0,0.5814,0.0001312581,8.721,0
0.5823,0.000144686,8.7345,0,0.5823,1.342794E-05,8.7345,0
0.5832,0.0001312581,8.748,0,0.5832,2.920577E-05,8.748,0
0.5841,0.0001688563,8.7615,0,0.5841,7.284657E-05,8.7615,0
0.585,0.0001473716,8.775,0,0.585,-4.39765E-05,8.775,0
0.5859,9.869535E-05,8.7885,0,0.5859,-4.766919E-05,8.7885,0
0.5868,2.752728E-05,8.802,0,0.5868,-2.18204E-05,8.802,0
0.5877,1.309224E-05,8.8155,0,0.5877,-7.888914E-05,8.8155,0
0.5886,8.69459E-05,8.829,0,0.5886,-0.0001346151,8.829,0
0.5895,-5.404745E-05,8.8425,0,0.5895,-6.61326E-05,8.8425,0
0.5904,-3.390555E-05,8.856,0,0.5904,3.121996E-05,8.856,0
0.5913,4.800488E-05,8.8695,0,0.5913,-1.712062E-05,8.8695,0
0.5922,3.189136E-05,8.883,0,0.5922,-1.644922E-05,8.883,0
0.5931,-4.666209E-05,8.8965,0,0.5931,-4.36408E-06,8.8965,0
0.594,1.141375E-05,8.91,0,0.594,8.728161E-06,8.91,0
0.5949,6.71397E-05,8.9235,0,0.5949,2.383459E-05,8.9235,0
0.5958,3.927672E-05,8.937,0,0.5958,-2.081331E-05,8.937,0
0.5967,3.994812E-05,8.9505,0,0.5967,-4.733349E-05,8.9505,0
0.5976,8.493171E-05,8.964,0,0.5976,-2.18204E-05,8.964,0
0.5985,8.526741E-05,8.9775,0,0.5985,-5.706874E-06,8.9775,0
0.5994,4.263371E-05,8.991,0,0.5994,-6.64683E-05,8.991,0
0.6003,-1.812772E-05,9.0045,0,0.6003,-4.800488E-05,9.0045,0
0.6012,-1.577783E-05,9.018,0,0.6012,-3.591974E-05,9.018,0
0.6021,-5.035477E-06,9.0315,0,0.6021,-3.054856E-05,9.0315,0
0.603,-0.000102388,9.045,0,0.603,-1.712062E-05,9.045,0
0.6039,-7.922484E-05,9.0585,0,0.6039,-8.96315E-05,9.0585,0
0.6048,-4.599069E-05,9.072001,0,0.6048,-0.0001634852,9.072001,0
0.6057,-9.600977E-05,9.0855,0,0.6057,-0.0002030976,9.0855,0
0.6066,-0.0001030594,9.099,0,0.6066,-0.0001856413,9.099,0
0.6075,-0.0001567712,9.1125,0,0.6075,-0.000197055,9.1125,0
0.6084,-0.0001722133,9.126,0,0.6084,-0.00021149,9.126,0
0.6093,-0.000109102,9.1395,0,0.6093,-0.0002051118,9.1395,0
0.6102,-0.0001386435,9.153,0,0.6102,-0.0001010452,9.153,0
0.6111,-0.0001326009,9.1665,0,0.6111,0.0001117876,9.1665,0
0.612,-4.33051E-05,9.18,0,0.612,0.0002239109,9.18,0
0.6129,3.692683E-06,9.1935,0,0.6129,0.0001104448,9.1935,0
0.6138,-1.678492E-06,9.207,0,0.6138,0.0001312581,9.207,0
0.6147,1.779202E-05,9.2205,0,0.6147,0.0001218585,9.2205,0
0.6156,1.409934E-05,9.234,0,0.6156,0.000130251,9.234,0
0.6165,-5.673304E-05,9.2475,0,0.6165,0.0001715419,9.2475,0
0.6174,-8.761731E-05,9.261,0,0.6174,3.659113E-05,9.261,0
0.6183,-2.047761E-05,9.2745,0,0.6183,-2.584878E-05,9.2745,0
0.6192,-2.014191E-06,9.288,0,0.6192,5.471885E-05,9.288,0
0.6201,-0.0001389792,9.3015,0,0.6201,4.229801E-05,9.3015,0
0.621,-0.0001238727,9.315,0,0.621,3.424125E-05,9.315,0
0.6219,-8.69459E-05,9.3285,0,0.6219,9.634547E-05,9.3285,0
0.6228,4.129091E-05,9.342,0,0.6228,9.970245E-05,9.342,0
0.6237,0.0001117876,9.3555,0,0.6237,-9.063859E-06,9.3555,0
0.6246,-8.426032E-05,9.369,0,0.6246,-0.0001279011,9.369,0
0.6255,-6.311131E-05,9.3825,0,0.6255,-0.0001910124,9.3825,0
0.6264,6.009003E-05,9.396,0,0.6264,-0.0001829557,9.396,0
0.6273,-4.934768E-05,9.4095,0,0.6273,-7.788205E-05,9.4095,0
0.6282,-4.39765E-05,9.423,0,0.6282,6.57969E-05,9.423,0
0.6291,5.337606E-05,9.4365,0,0.6291,0.0001534142,9.4365,0
0.63,1.007095E-06,9.45,0,0.63,0.0002541238,9.45,0
0.6309,1.577783E-05,9.4635,0,0.6309,9.164568E-05,9.4635,0
0.6318,4.733349E-05,9.477,0,0.6318,-6.948959E-05,9.477,0
0.6327,-6.143282E-05,9.4905,0,0.6327,-9.231708E-05,9.4905,0
0.6336,-0.0001148089,9.504,0,0.6336,-9.231708E-05,9.504,0
0.6345,-3.860533E-05,9.5175,0,0.6345,-5.841154E-05,9.5175,0
0.6354,-1.107805E-05,9.531,0,0.6354,3.021286E-05,9.531,0
0.6363,-3.659113E-05,9.5445,0,0.6363,2.819867E-05,9.5445,0
0.6372,-5.136187E-05,9.558,0,0.6372,5.673304E-05,9.558,0
0.6381,-4.36408E-06,9.5715,0,0.6381,3.390555E-05,9.5715,0
0.639,-2.014191E-06,9.585,0,0.639,-7.452507E-05,9.585,0
0.6399,1.040665E-05,9.5985,0,0.6399,-0.0001487144,9.5985,0
0.6408,-2.920577E-05,9.612,0,0.6408,-0.0001232013,9.612,0
0.6417,3.457694E-05,9.6255,0,0.6417,-0.0001252155,9.6255,0
0.6426,8.82887E-05,9.639,0,0.6426,-3.356985E-07,9.639,0
0.6435,1.040665E-05,9.6525,0,0.6435,3.054856E-05,9.6525,0
0.6444,-3.927672E-05,9.666,0,0.6444,4.33051E-05,9.666,0
0.6453,-2.652018E-05,9.6795,0,0.6453,0.0001107805,9.6795,0
0.6462,-2.685588E-06,9.693,0,0.6462,5.606165E-05,9.693,0
0.6471,-4.095522E-05,9.7065,0,0.6471,-8.056763E-06,9.7065,0
0.648,-5.371176E-06,9.72,0,0.648,-4.129091E-05,9.72,0
0.6489,8.090334E-05,9.7335,0,0.6489,-0.0001275654,9.7335,0
0.6498,0.0001500572,9.747,0,0.6498,-0.000323949,9.747,0
0.6507,0.0001255512,9.7605,0,0.6507,-0.000285008,9.7605,0
0.6516,0.0001896696,9.774,0,0.6516,-0.0001456931,9.774,0
0.6525,0.0001420005,9.7875,0,0.6525,-0.000140322,9.7875,0
0.6534,9.231708E-05,9.801,0,0.6534,-0.0001977264,9.801,0
0.6543,7.385367E-06,9.8145,0,0.6543,-0.0001809415,9.8145,0
0.6552,5.908293E-05,9.828,0,0.6552,-4.800488E-05,9.828,0
0.6561,0.000231632,9.8415,0,0.6561,-1.678492E-06,9.8415,0
0.657,0.0002380102,9.855,0,0.657,9.030289E-05,9.855,0
0.6579,0.000295079,9.8685,0,0.6579,0.000161471,9.8685,0
0.6588,0.0002423743,9.882,0,0.6588,0.0002286107,9.882,0
0.6597,-1.913481E-05,9.8955,0,0.6597,0.0002145113,9.8955,0
0.6606,-0.0001258869,9.909,0,0.6606,0.0001037308,9.909,0
0.6615,-9.936675E-05,9.9225,0,0.6615,-2.887007E-05,9.9225,0
0.6624,-0.0001272297,9.936,0,0.6624,-6.478981E-05,9.936,0
0.6633,-9.835965E-05,9.9495,0,0.6633,-6.64683E-05,9.9495,0
0.6642,-0.0001111162,9.963,0,0.6642,-7.217517E-05,9.963,0
0.6651,-9.970245E-05,9.976501,0,0.6651,-0.000115816,9.976501,0
0.666,-2.047761E-05,9.99,0,0.666,-0.000257145,9.99,0
0.6669,-0.0001198444,10.0035,0,0.6669,-0.0002464027,10.0035,0
0.6678,-0.000203769,10.017,0,0.6678,-5.673304E-05,10.017,0
0.6687,-0.0001463645,10.0305,0,0.6687,-5.371176E-06,10.0305,0
0.6696,5.001907E-05,10.044,0,0.6696,4.061952E-05,10.044,0
0.6705,-1.577783E-05,10.0575,0,0.6705,8.728161E-06,10.0575,0
0.6714,-0.0001752346,10.071,0,0.6714,-0.0001295796,10.071,0
0.6723,-0.0001846342,10.0845,0,0.6723,-0.000221561,10.0845,0
0.6732,-0.0001225299,10.098,0,0.6732,-0.0001309224,10.098,0
0.6741,-0.0002151827,10.1115,0,0.6741,0.0001362936,10.1115,0
0.675,-9.030289E-05,10.125,0,0.675,0.0002326391,10.125,0
0.6759,8.92958E-05,10.1385,0,0.6759,0.0003346914,10.1385,0
0.6768,0.0001198444,10.152,0,0.6768,0.000249424,10.152,0
0.6777,5.505455E-05,10.1655,0,0.6777,0.0001560998,10.1655,0
0.6786,7.888914E-05,10.179,0,0.6786,0.0001107805,10.179,0
0.6795,0.0001980621,10.1925,0,0.6795,4.46479E-05,10.1925,0
0.6804,0.0001366293,10.206,0,0.6804,3.155566E-05,10.206,0
0.6813,7.821774E-05,10.2195,0,0.6813,-7.721065E-06,10.2195,0
0.6822,8.82887E-05,10.233,0,0.6822,-7.418937E-05,10.233,0
0.6831,0.0001007095,10.2465,0,0.6831,-8.661021E-05,10.2465,0
0.684,1.443504E-05,10.26,0,0.684,-6.311131E-05,10.26,0
0.6849,4.229801E-05,10.2735,0,0.6849,-8.157473E-05,10.2735,0
0.6858,2.920577E-05,10.287,0,0.6858,-0.0001225299,10.287,0
0.6867,-2.24918E-05,10.3005,0,0.6867,-0.0001440146,10.3005,0
0.6876,-7.318227E-05,10.314,0,0.6876,-7.922484E-05,10.314,0
0.6885,-5.572595E-05,10.3275,0,0.6885,-8.291753E-05,10.3275,0
0.6894,-8.123904E-05,10.341,0,0.6894,-7.922484E-05,10.341,0
0.6903,-2.920577E-05,10.3545,0,0.6903,-8.661021E-05,10.3545,0
0.6912,-5.639734E-05,10.368,0,0.6912,-9.701686E-05,10.368,0
0.6921,-8.96315E-05,10.3815,0,0.6921,-0.0001141375,10.3815,0
0.693,-0.0001087663,10.395,0,0.693,-0.0001654994,10.395,0
0.6939,-8.157473E-05,10.4085,0,0.6939,-0.0001332723,10.4085,0
0.6948,-0.0001248798,10.422,0,0.6948,-5.270466E-05,10.422,0
0.6957,-1.913481E-05,10.4355,0,0.6957,-8.023193E-05,10.4355,0
0.6966,0.0001628138,10.449,0,0.6966,-9.332418E-05,10.449,0
0.6975,-2.752728E-05,10.4625,0,0.6975,-3.927672E-05,10.4625,0
0.6984,-6.277562E-05,10.476,0,0.6984,-6.143282E-05,10.476,0
0.6993,-1.242084E-05,10.4895,0,0.6993,-0.0001037308,10.4895,0
0.7002,-9.063859E-05,10.503,0,0.7002,-5.606165E-05,10.503,0
0.7011,-7.620356E-05,10.5165,0,0.7011,-5.404745E-05,10.5165,0
0.702,-3.826963E-05,10.53,0,0.702,-6.277562E-05,10.53,0
0.7029,-7.586786E-05,10.5435,0,0.7029,-6.78111E-05,10.5435,0
0.7038,-0.000112459,10.557,0,0.7038,-9.164568E-05,10.557,0
0.7047,-7.687495E-05,10.5705,0,0.7047,-8.92958E-05,10.5705,0
0.7056,-6.311131E-05,10.584,0,0.7056,-0.0002192111,10.584,0
0.7065,-0.0001131304,10.5975,0,0.7065,-0.0002205539,10.5975,0
0.7074,-4.867628E-05,10.611,0,0.7074,-0.0002165255,10.611,0
0.7083,-7.553216E-05,10.6245,0,0.7083,-0.0002034333,10.6245,0
0.7092,-0.0001117876,10.638,0,0.7092,-9.433127E-05,10.638,0
0.7101,-4.46479E-05,10.6515,0,0.7101,0.0002467384,10.6515,0
0.711,-9.231708E-05,10.665,0,0.711,0.0005602808,10.665,0
0.7119,-1.644922E-05,10.6785,0,0.7119,0.0003843748,10.6785,0
0.7128,8.291753E-05,10.692,0,0.7128,8.82887E-05,10.692,0
0.7137,9.500267E-05,10.7055,0,0.7137,-3.021286E-06,10.7055,0
0.7146,4.33051E-05,10.719,0,0.7146,-8.82887E-05,10.719,0
0.7155,-1.174945E-05,10.7325,0,0.7155,-0.0001762417,10.7325,0
0.7164,-1.779202E-05,10.746,0,0.7164,5.001907E-05,10.746,0
0.7173,3.390555E-05,10.7595,0,0.7173,0.0002897078,10.7595,0
0.7182,-2.685588E-06,10.773,0,0.7182,0.000235996,10.773,0
0.7191,-6.009003E-05,10.7865,0,0.7191,0.0002329748,10.7865,0
0.72,-5.035477E-05,10.8,0,0.72,0.000274937,10.8,0
0.7209,-5.438316E-05,10.8135,0,0.7209,0.000257145,10.8135,0
0.7218,-9.433127E-05,10.827,0,0.7218,0.0001661708,10.827,0
0.7227,7.721065E-06,10.8405,0,0.7227,2.551309E-05,10.8405,0
0.7236,6.344701E-05,10.854,0,0.7236,-0.0001876554,10.854,0
0.7245,1.510643E-05,10.8675,0,0.7245,-0.0002484169,10.8675,0
0.7254,0.000112459,10.881,0,0.7254,-0.0002967575,10.881,0
0.7263,0.0002178683,10.8945,0,0.7263,-0.000246067,10.8945,0
0.7272,9.735256E-05,10.908,0,0.7272,-4.061952E-05,10.908,0
0.7281,1.678492E-06,10.9215,0,0.7281,0.0003279774,10.9215,0
0.729,7.049668E-06,10.935,0,0.729,0.0005092546,10.935,0
0.7299,-2.349889E-06,10.9485,0,0.7299,0.0004448005,10.9485,0
0.7308,8.392462E-05,10.962,0,0.7308,0.0003320058,10.962,0
0.7317,0.0001517357,10.9755,0,0.7317,0.0002729229,10.9755,0
0.7326,0.000256138,10.989,0,0.7326,0.0001094377,10.989,0
0.7335,0.0002145113,11.0025,0,0.7335,1.712062E-05,11.0025,0
0.7344,9.903105E-05,11.016,0,0.7344,-3.793393E-05,11.016,0
0.7353,-6.881819E-05,11.0295,0,0.7353,-0.0001121233,11.0295,0
0.7362,-3.726253E-05,11.043,0,0.7362,-0.0001242084,11.043,0
0.7371,7.486076E-05,11.0565,0,0.7371,-0.0001574426,11.0565,0
0.738,-3.793393E-05,11.07,0,0.738,-0.0001567712,11.07,0
0.7389,2.014191E-06,11.0835,0,0.7389,-0.0001232013,11.0835,0
0.7398,0.0001460288,11.097,0,0.7398,-0.0001295796,11.097,0
0.7407,0.0001044022,11.1105,0,0.7407,-0.0001671778,11.1105,0
0.7416,-4.263371E-05,11.124,0,0.7416,-0.0001467002,11.124,0
0.7425,-8.728161E-06,11.1375,0,0.7425,-0.0001352865,11.1375,0
0.7434,5.203327E-05,11.151,0,0.7434,-0.0001389792,11.151,0
0.7443,3.591974E-05,11.1645,0,0.7443,-0.0001493858,11.1645,0
0.7452,-1.107805E-05,11.178,0,0.7452,-0.0001225299,11.178,0
0.7461,-4.53193E-05,11.1915,0,0.7461,-0.0001040665,11.1915,0
0.747,-7.956054E-05,11.205,0,0.747,-0.0001688563,11.205,0
0.7479,-0.0001097734,11.2185,0,0.7479,-0.0001906767,11.2185,0
0.7488,-0.0001064164,11.232,0,0.7488,-0.0001779202,11.232,0
0.7497,-6.64683E-05,11.2455,0,0.7497,-0.0002420386,11.2455,0
0.7506,-0.000115816,11.259,0,0.7506,-0.0002799725,11.259,0
0.7515,-0.0002057832,11.2725,0,0.7515,-0.0001514,11.2725,0
0.7524,-4.53193E-05,11.286,0,0.7524,-0.0001812772,11.286,0
0.7533,-5.069047E-05,11.2995,0,0.7533,-0.0001221943,11.2995,0
0.7542,-0.0002064546,11.313,0,0.7542,6.51255E-05,11.313,0
0.7551,-0.0002581521,11.3265,0,0.7551,9.970245E-05,11.3265,0
0.756,-0.0002517739,11.34,0,0.756,1.477073E-05,11.34,0
0.7569,-0.0001836271,11.3535,0,0.7569,-1.309224E-05,11.3535,0
0.7578,1.644922E-05,11.367,0,0.7578,3.894102E-05,11.367,0
0.7587,0.0002423743,11.3805,0,0.7587,9.231708E-05,11.3805,0
0.7596,0.0003474479,11.394,0,0.7596,-1.846342E-05,11.394,0
0.7605,0.0002252537,11.4075,0,0.7605,-6.076142E-05,11.4075,0
0.7614,7.083238E-05,11.421,0,0.7614,-1.007095E-06,11.421,0
0.7623,0,11.4345,0,0.7623,7.754635E-05,11.4345,0
0.7632,3.323415E-05,11.448,0,0.7632,2.417029E-05,11.448,0
0.7641,8.82887E-05,11.4615,0,0.7641,-0.000119173,11.4615,0
0.765,9.097429E-05,11.475,0,0.765,-0.0001312581,11.475,0
0.7659,0.0001111162,11.4885,0,0.7659,-0.0001312581,11.4885,0
0.7668,2.987716E-05,11.502,0,0.7668,-0.000190341,11.502,0
0.7677,-0.0002615091,11.5155,0,0.7677,-0.0001467002,11.5155,0
0.7686,-0.0002759442,11.529,0,0.7686,9.399557E-05,11.529,0
0.7695,-0.0001644923,11.5425,0,0.7695,0.0003138781,11.5425,0
0.7704,-0.0001748989,11.556,0,0.7704,0.0002668803,11.556,0
0.7713,-3.323415E-05,11.5695,0,0.7713,5.908293E-05,11.5695,0
0.7722,0.0001487144,11.583,0,0.7722,-2.719158E-05,11.583,0
0.7731,0.0001426719,11.5965,0,0.7731,3.692683E-05,11.5965,0
0.774,-4.33051E-05,11.61,0,0.774,8.459602E-05,11.61,0
0.7749,-0.000112459,11.6235,0,0.7749,-6.143282E-05,11.6235,0
0.7758,-0.0002326391,11.637,0,0.7758,-4.699779E-05,11.637,0
0.7767,-0.0002433814,11.6505,0,0.7767,-9.030289E-05,11.6505,0
0.7776,-0.0001312581,11.664,0,0.7776,-0.0001346151,11.664,0
0.7785,-0.0001332723,11.6775,0,0.7785,8.258183E-05,11.6775,0
0.7794,-4.43122E-05,11.691,0,0.7794,0.0002168612,11.691,0
0.7803,0.0001661708,11.7045,0,0.7803,0.0003068284,11.7045,0
0.7812,0.000154757,11.718,0,0.7812,0.0002759442,11.718,0
0.7821,9.701686E-05,11.7315,0,0.7821,0.0001795987,11.7315,0
0.783,9.802396E-05,11.745,0,0.783,0.0001242084,11.745,0
0.7839,0.000112459,11.7585,0,0.7839,8.795301E-05,11.7585,0
0.7848,0.0001003738,11.772,0,0.7848,1.779202E-05,11.772,0
0.7857,-1.779202E-05,11.7855,0,0.7857,7.049668E-06,11.7855,0
0.7866,-6.411841E-05,11.799,0,0.7866,-7.049668E-06,11.799,0
0.7875,1.947051E-05,11.8125,0,0.7875,-7.888914E-05,11.8125,0
0.7884,5.035477E-06,11.826,0,0.7884,-0.0001940337,11.826,0
0.7893,-2.719158E-05,11.8395,0,0.7893,-0.0001802701,11.8395,0
0.7902,1.040665E-05,11.853,0,0.7902,-0.0002762798,11.853,0
0.7911,7.888914E-05,11.8665,0,0.7911,-0.0004233158,11.8665,0
0.792,-3.356985E-07,11.88,0,0.792,-0.0004760204,11.88,0
0.7929,-1.342794E-05,11.8935,0,0.7929,-0.0005357748,11.8935,0
0.7938,1.544213E-05,11.907,0,0.7938,-0.0004783703,11.907,0
0.7947,-2.853437E-05,11.9205,0,0.7947,-1.678492E-05,11.9205,0
0.7956,-6.51255E-05,11.934,0,0.7956,0.0002836652,11.934,0
0.7965,3.256275E-05,11.9475,0,0.7965,0.0002077974,11.9475,0
0.7974,5.035477E-05,11.961,0,0.7974,0.0002742657,11.961,0
0.7983,9.533837E-05,11.9745,0,0.7983,0.0003548333,11.9745,0
0.7992,5.841154E-05,11.988,0,0.7992,0.0004072023,11.988,0
0.8001,-3.356985E-06,12.0015,0,0.8001,0.0003101854,12.0015,0
0.801,2.450599E-05,12.015,0,0.801,0.0001178302,12.015,0
0.8019,9.063859E-06,12.0285,0,0.8019,9.970245E-05,12.0285,0
0.8028,-8.123904E-05,12.042,0,0.8028,7.150377E-05,12.042,0
0.8037,-3.457694E-05,12.0555,0,0.8037,-0.0001211871,12.0555,0
0.8046,9.164568E-05,12.069,0,0.8046,-0.000312871,12.069,0
0.8055,-4.263371E-05,12.0825,0,0.8055,-0.0003682612,12.0825,0
0.8064,7.721065E-06,12.096,0,0.8064,-0.0003118639,12.096,0
0.8073,0.0001060807,12.1095,0,0.8073,-0.0002101472,12.1095,0
0.8082,-3.121996E-05,12.123,0,0.8082,5.035477E-06,12.123,0
0.8091,-5.673304E-05,12.1365,0,0.8091,9.399557E-05,12.1365,0
0.81,2.1149E-05,12.15,0,0.81,7.687495E-05,12.15,0
0.8109,-1.644922E-05,12.1635,0,0.8109,2.28275E-05,12.1635,0
0.8118,-6.54612E-05,12.177,0,0.8118,-1.242084E-05,12.177,0
0.8127,-0.0001044022,12.1905,0,0.8127,-0.0001148089,12.1905,0
0.8136,-7.150377E-05,12.204,0,0.8136,-0.0001383078,12.204,0
0.8145,-3.524834E-05,12.2175,0,0.8145,-0.0001920195,12.2175,0
0.8154,6.042573E-06,12.231,0,0.8154,-0.0002430457,12.231,0
0.8163,-9.835965E-05,12.2445,0,0.8163,-0.0001701991,12.2445,0
0.8172,-9.298848E-05,12.258,0,0.8172,5.270466E-05,12.258,0
0.8181,-6.74754E-05,12.2715,0,0.8181,0.0002410315,12.2715,0
0.819,-0.0001292439,12.285,0,0.819,0.0002302892,12.285,0
0.8199,-0.0001832914,12.2985,0,0.8199,0.0001742275,12.2985,0
0.8208,-0.0001775845,12.312,0,0.8208,6.64683E-05,12.312,0
0.8217,-0.0002232395,12.3255,0,0.8217,-1.342794E-06,12.3255,0
0.8226,-0.0001493858,12.339,0,0.8226,2.1149E-05,12.339,0
0.8235,2.316319E-05,12.3525,0,0.8235,0.0001000381,12.3525,0
0.8244,0.000249424,12.366,0,0.8244,0.0002326391,12.366,0
0.8253,0.0002108186,12.3795,0,0.8253,8.191043E-05,12.3795,0
0.8262,0.0001742275,12.393,0,0.8262,0.0001406577,12.393,0
0.8271,6.61326E-05,12.4065,0,0.8271,0.0001252155,12.4065,0
0.828,-7.956054E-05,12.42,0,0.828,3.659113E-05,12.42,0
0.8289,-7.788205E-05,12.4335,0,0.8289,4.095522E-05,12.4335,0
0.8298,-0.0001117876,12.447,0,0.8298,0.0001272297,12.447,0
0.8307,-1.107805E-05,12.4605,0,0.8307,4.46479E-05,12.4605,0
0.8316,5.404745E-05,12.474,0,0.8316,-9.298848E-05,12.474,0
0.8325,-0.0001319295,12.4875,0,0.8325,-7.821774E-05,12.4875,0
0.8334,-7.217517E-05,12.501,0,0.8334,-3.121996E-05,12.501,0
0.8343,-8.090334E-05,12.5145,0,0.8343,-0.0001285725,12.5145,0
0.8352,-7.721065E-05,12.528,0,0.8352,-8.191043E-05,12.528,0
0.8361,0.0001544213,12.5415,0,0.8361,-7.821774E-05,12.5415,0
0.837,0.0001618067,12.555,0,0.837,-0.000133608,12.555,0
0.8379,0.000169192,12.5685,0,0.8379,-0.0001910124,12.5685,0
0.8388,0.000203769,12.582,0,0.8388,-0.0002323034,12.582,0
0.8397,0.0001467002,12.5955,0,0.8397,-0.0002464027,12.5955,0
0.8406,0.0001117876,12.609,0,0.8406,-0.0003058213,12.609,0
0.8415,0.0001470359,12.6225,0,0.8415,-0.0002594949,12.6225,0
0.8424,0.0001510643,12.636,0,0.8424,-0.0001047379,12.636,0
0.8433,6.243992E-05,12.6495,0,0.8433,2.349889E-06,12.6495,0
0.8442,7.418937E-05,12.663,0,0.8442,9.567407E-05,12.663,0
0.8451,0.0001309224,12.6765,0,0.8451,0.0001628138,12.6765,0
0.846,-8.224613E-05,12.69,0,0.846,0.0002467384,12.69,0
0.8469,-0.0001148089,12.7035,0,0.8469,0.0001346151,12.7035,0
0.8478,-1.779202E-05,12.717,0,0.8478,-3.356985E-07,12.717,0
0.8487,-4.162661E-05,12.7305,0,0.8487,-2.987716E-05,12.7305,0
0.8496,-0.0001010452,12.744,0,0.8496,-4.666209E-05,12.744,0
0.8505,-3.021286E-06,12.7575,0,0.8505,-6.74754E-05,12.7575,0
0.8514,1.947051E-05,12.771,0,0.8514,-6.78111E-05,12.771,0
0.8523,-2.752728E-05,12.7845,0,0.8523,-0.0001215228,12.7845,0
0.8532,-9.634547E-05,12.798,0,0.8532,-0.0003111925,12.798,0
0.8541,-0.0001064164,12.8115,0,0.8541,-0.0001775845,12.8115,0
0.855,-6.277562E-05,12.825,0,0.855,-0.000193698,12.825,0
0.8559,0.0001507286,12.8385,0,0.8559,-0.0001044022,12.8385,0
0.8568,0.0002185397,12.852,0,0.8568,9.500267E-05,12.852,0
0.8577,6.881819E-05,12.8655,0,0.8577,4.39765E-05,12.8655,0
0.8586,-2.21561E-05,12.879,0,0.8586,-0.0001953765,12.879,0
0.8595001,-0.0001644923,12.8925,0,0.8595001,-0.0002104829,12.8925,0
0.8604,-0.0001215228,12.906,0,0.8604,-0.0001809415,12.906,0
0.8613,-0.0001117876,12.9195,0,0.8613,-0.000239353,12.9195,0
0.8622,-0.0002077974,12.933,0,0.8622,-0.0001916838,12.933,0
0.8631,-0.0002447242,12.9465,0,0.8631,-1.309224E-05,12.9465,0
0.864,-0.000190341,12.96,0,0.864,0.0001953765,12.96,0
0.8649,5.941863E-05,12.9735,0,0.8649,0.000119173,12.9735,0
0.8658,0.0002601663,12.987,0,0.8658,2.987716E-05,12.987,0
0.8667,0.0002400244,13.0005,0,0.8667,4.263371E-05,13.0005,0
0.8676,0.0003068284,13.014,0,0.8676,6.61326E-05,13.014,0
0.8685,0.0002222324,13.0275,0,0.8685,9.265278E-05,13.0275,0
0.8694,9.802396E-05,13.041,0,0.8694,1.040665E-05,13.041,0
0.8703,-5.606165E-05,13.0545,0,0.8703,2.786297E-05,13.0545,0
0.8712,-6.378271E-06,13.068,0,0.8712,0.0001232013,13.068,0
0.8721,4.53193E-05,13.0815,0,0.8721,9.164568E-05,13.0815,0
0.873,-2.987716E-05,13.095,0,0.873,3.121996E-05,13.095,0
0.8739,-1.174945E-05,13.1085,0,0.8739,-1.007095E-06,13.1085,0
0.8748,-2.517739E-05,13.122,0,0.8748,-5.774014E-05,13.122,0
0.8757,-7.016098E-05,13.1355,0,0.8757,-8.728161E-06,13.1355,0
0.8766,-0.0001121233,13.149,0,0.8766,3.927672E-05,13.149,0
0.8775,-0.0001433432,13.1625,0,0.8775,-1.510643E-05,13.1625,0
0.8784,-0.0001540856,13.176,0,0.8784,0.0001755703,13.176,0
0.8793,-7.150377E-05,13.1895,0,0.8793,0.0001779202,13.1895,0
0.8802,-8.72816E-05,13.203,0,0.8802,9.835965E-05,13.203,0
0.8811,-0.0002064546,13.2165,0,0.8811,8.291753E-05,13.2165,0
0.882,-0.0001127947,13.23,0,0.882,7.183947E-05,13.23,0
0.8829,-2.987716E-05,13.2435,0,0.8829,6.176852E-05,13.2435,0
0.8838,-0.0001332723,13.257,0,0.8838,3.659113E-05,13.257,0
0.8847,-7.418937E-05,13.2705,0,0.8847,1.678492E-05,13.2705,0
0.8856,-2.484169E-05,13.284,0,0.8856,-9.399558E-06,13.284,0
0.8865,-0.0001252155,13.2975,0,0.8865,-7.351797E-05,13.2975,0
0.8874,-7.888914E-05,13.311,0,0.8874,-0.0003709468,13.311,0
0.8883,2.484169E-05,13.3245,0,0.8883,-0.0005680018,13.3245,0
0.8892,-5.001907E-05,13.338,0,0.8892,-0.0005169756,13.338,0
0.8901,-7.821774E-05,13.3515,0,0.8901,-0.0004622568,13.3515,0
0.891,-4.53193E-05,13.365,0,0.891,-0.0003004501,13.365,0
0.8919,-1.443504E-05,13.3785,0,0.8919,0.0003602045,13.3785,0
0.8928,-4.129091E-05,13.392,0,0.8928,0.0006452125,13.392,0
0.8937,-3.189136E-05,13.4055,0,0.8937,0.0003833677,13.4055,0
0.8946,5.471885E-05,13.419,0,0.8946,0.0002292821,13.419,0
0.8955,7.217517E-05,13.4325,0,0.8955,3.961242E-05,13.4325,0
0.8964,8.82887E-05,13.446,0,0.8964,0.0001174945,13.446,0
0.8973,7.922484E-05,13.4595,0,0.8973,0.0001883268,13.4595,0
0.8982,6.74754E-05,13.473,0,0.8982,0.0001077592,13.473,0
0.8991,8.157473E-05,13.4865,0,0.8991,1.007095E-06,13.4865,0
0.9,7.922484E-05,13.5,0,0.9,0.0001030594,13.5,0
0.9009,8.560311E-05,13.5135,0,0.9009,6.143282E-05,13.5135,0
0.9018,8.493171E-05,13.527,0,0.9018,-4.599069E-05,13.527,0
0.9027,-3.356985E-06,13.5405,0,0.9027,-0.0001050736,13.5405,0
0.9036,-6.713969E-06,13.554,0,0.9036,-8.090334E-05,13.554,0
0.9045,4.699779E-06,13.5675,0,0.9045,-6.74754E-05,13.5675,0
0.9054,-0.0001047379,13.581,0,0.9054,-0.0001114519,13.581,0
0.9063,-9.164568E-05,13.5945,0,0.9063,-0.0001104448,13.5945,0
0.9072,-9.164568E-05,13.608,0,0.9072,-7.922484E-05,13.608,0
0.9081,-5.606165E-05,13.6215,0,0.9081,-2.014191E-06,13.6215,0
0.909,7.284657E-05,13.635,0,0.909,-1.644922E-05,13.635,0
0.9099,0.0001587854,13.6485,0,0.9099,-4.800488E-05,13.6485,0
0.9108,0.000221561,13.662,0,0.9108,-8.358892E-05,13.662,0
0.9117,0.0002910506,13.6755,0,0.9117,-9.869535E-05,13.6755,0
0.9126,0.0001943694,13.689,0,0.9126,-9.097429E-05,13.689,0
0.9135,1.577783E-05,13.7025,0,0.9135,-9.802396E-05,13.7025,0
0.9144,-2.853437E-05,13.716,0,0.9144,-0.0001248798,13.716,0
0.9153,-7.183947E-05,13.7295,0,0.9153,-0.0001413291,13.7295,0
0.9162,-0.0002319677,13.743,0,0.9162,-0.0001252155,13.743,0
0.9171,-0.0002601663,13.7565,0,0.9171,-0.0001802701,13.7565,0
0.918,-0.0001960479,13.77,0,0.918,-0.0001500572,13.77,0
0.9189,-0.0001064164,13.7835,0,0.9189,-6.848249E-05,13.7835,0
0.9198,3.390555E-05,13.797,0,0.9198,-4.733349E-05,13.797,0
0.9207,0.0001201801,13.8105,0,0.9207,-4.565499E-05,13.8105,0
0.9216,0.0001567712,13.824,0,0.9216,-1.980621E-05,13.824,0
0.9225,0.0001567712,13.8375,0,0.9225,-3.558404E-05,13.8375,0
0.9234,7.754635E-05,13.851,0,0.9234,-2.987716E-05,13.851,0
0.9243,-3.121996E-05,13.8645,0,0.9243,-9.768826E-05,13.8645,0
0.9252,0.0001064164,13.878,0,0.9252,-0.0001822843,13.878,0
0.9261,0.0004427863,13.8915,0,0.9261,-0.0001953765,13.8915,0
0.927,0.0003967956,13.905,0,0.927,-6.344701E-05,13.905,0
0.9279,0.0001178302,13.9185,0,0.9279,0.0002356603,13.9185,0
0.9288,4.39765E-05,13.932,0,0.9288,0.0005683375,13.932,0
0.9297,-5.035477E-06,13.9455,0,0.9297,0.0005596094,13.9455,0
0.9306,-8.023193E-05,13.959,0,0.9306,0.0003555047,13.959,0
0.9315,3.726253E-05,13.9725,0,0.9315,0.0002077974,13.9725,0
0.9324,1.242084E-05,13.986,0,0.9324,-6.445411E-05,13.986,0
0.9333,-2.18204E-05,13.9995,0,0.9333,-0.0001762417,13.9995,0
0.9342,-4.33051E-05,14.013,0,0.9342,-0.0002386816,14.013,0
0.9351,-0.0001148089,14.0265,0,0.9351,-0.0002803082,14.0265,0
0.936,-0.0002192111,14.04,0,0.936,-0.0001416648,14.04,0
0.9369,-0.000249424,14.0535,0,0.9369,0.0001007095,14.0535,0
0.9378,-0.0003414054,14.067,0,0.9378,0.0001077592,14.067,0
0.9387,-0.0003021286,14.0805,0,0.9387,0.0002128328,14.0805,0
0.9396001,-0.0002366674,14.094,0,0.9396001,0.0002591592,14.094,0
0.9405,-9.802396E-05,14.1075,0,0.9405,0.0001272297,14.1075,0
0.9414001,0.000249424,14.121,0,0.9414001,9.970245E-05,14.121,0
0.9423,0.0002514381,14.1345,0,0.9423,8.69459E-05,14.1345,0
0.9432001,8.056763E-06,14.148,0,0.9432001,4.699779E-05,14.148,0
0.9441,1.443504E-05,14.1615,0,0.9441,5.471885E-05,14.1615,0
0.9450001,2.450599E-05,14.175,0,0.9450001,4.028382E-06,14.175,0
0.9459,-3.155566E-05,14.1885,0,0.9459,-3.021286E-05,14.1885,0
0.9468,4.33051E-05,14.202,0,0.9468,-7.956054E-05,14.202,0
0.9477,-4.095522E-05,14.2155,0,0.9477,-9.600977E-05,14.2155,0
0.9486,-0.0001228656,14.229,0,0.9486,-7.855344E-05,14.229,0
0.9495,-4.43122E-05,14.2425,0,0.9495,-0.000119173,14.2425,0
0.9504,-6.378271E-05,14.256,0,0.9504,-0.000207126,14.256,0
0.9513,-0.0002108186,14.2695,0,0.9513,-0.0001423362,14.2695,0
0.9522,-0.000140322,14.283,0,0.9522,-0.0001430075,14.283,0
0.9531,8.728161E-06,14.2965,0,0.9531,-0.0001836271,14.2965,0
0.954,-0.0001507286,14.31,0,0.954,-0.000102388,14.31,0
0.9549,-7.821774E-05,14.3235,0,0.9549,-0.0001272297,14.3235,0
0.9558,8.023193E-05,14.337,0,0.9558,-0.0001782559,14.337,0
0.9567,4.733349E-05,14.3505,0,0.9567,-0.0001352865,14.3505,0
0.9576,-5.706874E-06,14.364,0,0.9576,-0.0001097734,14.364,0
0.9585,-7.049668E-06,14.3775,0,0.9585,-0.0001138018,14.3775,0
0.9594,-3.692683E-05,14.391,0,0.9594,-0.0001809415,14.391,0
0.9603,-9.735256E-06,14.4045,0,0.9603,-0.0001376364,14.4045,0
0.9612,-3.054856E-05,14.418,0,0.9612,-7.284657E-05,14.418,0
0.9621,-2.383459E-05,14.4315,0,0.9621,-0.0001339437,14.4315,0
0.963,-6.009003E-05,14.445,0,0.963,-0.0001802701,14.445,0
0.9639,-1.779202E-05,14.4585,0,0.9639,-0.0001510643,14.4585,0
0.9648,-4.599069E-05,14.472,0,0.9648,-8.123904E-05,14.472,0
0.9657,-4.666209E-05,14.4855,0,0.9657,7.318227E-05,14.4855,0
0.9666,1.980621E-05,14.499,0,0.9666,0.0002662089,14.499,0
0.9675,-9.802396E-05,14.5125,0,0.9675,0.0002020905,14.5125,0
0.9684,-0.0001185016,14.526,0,0.9684,2.618448E-05,14.526,0
0.9693,-3.189136E-05,14.5395,0,0.9693,-1.376364E-05,14.5395,0
0.9702,6.009003E-05,14.553,0,0.9702,5.236896E-05,14.553,0
0.9711,-6.378271E-05,14.5665,0,0.9711,8.191043E-05,14.5665,0
0.972,-2.24918E-05,14.58,0,0.972,1.846342E-05,14.58,0
0.9729,-1.376364E-05,14.5935,0,0.9729,2.819867E-05,14.5935,0
0.9738,9.399558E-06,14.607,0,0.9738,-2.349889E-06,14.607,0
0.9747,-5.270466E-05,14.6205,0,0.9747,3.558404E-05,14.6205,0
0.9756,-6.378271E-05,14.634,0,0.9756,4.196231E-05,14.634,0
0.9765,-3.793393E-05,14.6475,0,0.9765,-6.54612E-05,14.6475,0
0.9774,-2.450599E-05,14.661,0,0.9774,-0.0001487144,14.661,0
0.9783,-9.500267E-05,14.6745,0,0.9783,-0.0001983978,14.6745,0
0.9792,-0.0001101091,14.688,0,0.9792,-0.0003309987,14.688,0
0.9801,-6.344701E-05,14.7015,0,0.9801,-0.0003806821,14.7015,0
0.981,-0.0001990692,14.715,0,0.981,-0.0001983978,14.715,0
0.9819,-0.0002329748,14.7285,0,0.9819,4.36408E-06,14.7285,0
0.9828,-0.0002098116,14.742,0,0.9828,3.591974E-05,14.742,0
0.9837,-0.0001698634,14.7555,0,0.9837,0.0003924315,14.7555,0
0.9846,-6.814679E-05,14.769,0,0.9846,0.0003964599,14.769,0
0.9855,7.989624E-05,14.7825,0,0.9855,0.0001322652,14.7825,0
0.9864,0.0004401007,14.796,0,0.9864,-1.242084E-05,14.796,0
0.9873,0.0005763943,14.8095,0,0.9873,0.0001248798,14.8095,0
0.9882,0.0003897459,14.823,0,0.9882,0.0003004501,14.823,0
0.9891,0.0002876936,14.8365,0,0.9891,0.0002091402,14.8365,0
0.99,0.0002537881,14.85,0,0.99,0.0001607996,14.85,0
0.9909,0.0002601663,14.8635,0,0.9909,0.000203769,14.8635,0
0.9918,0.0001507286,14.877,0,0.9918,0.0003024643,14.877,0
0.9927,0.0001373007,14.8905,0,0.9927,0.0002920577,14.8905,0
0.9936,0.000164828,14.904,0,0.9936,4.263371E-05,14.904,0
0.9945,1.846342E-05,14.9175,0,0.9945,3.759823E-05,14.9175,0
0.9954,-2.853437E-05,14.931,0,0.9954,-2.18204E-05,14.931,0
0.9963,1.577783E-05,14.9445,0,0.9963,-9.835965E-05,14.9445,0
0.9972,-1.947051E-05,14.958,0,0.9972,-8.627451E-05,14.958,0
0.9981,-6.61326E-05,14.9715,0,0.9981,-0.0001258869,14.9715,0
0.999,-5.740444E-05,14.985,0,0.999,-0.0002353246,14.985,0
0.9999,-3.021286E-06,14.9985,0,0.9999,-0.0002829938,14.9985,0
1.0008,-3.994812E-05,15.012,0,1.0008,-0.0002930648,15.012,0
1.0017,-9.097429E-05,15.0255,0,1.0017,-0.0002608377,15.0255,0
1.0026,-0.0001641566,15.039,0,1.0026,-0.0001138018,15.039,0
1.0035,-0.0001829557,15.0525,0,1.0035,5.001907E-05,15.0525,0
1.0044,-0.0001534142,15.066,0,1.0044,5.337606E-05,15.066,0
1.0053,-0.0002474098,15.0795,0,1.0053,-1.074235E-05,15.0795,0
1.0062,-0.000207126,15.093,0,1.0062,0.0001252155,15.093,0
1.0071,-4.666209E-05,15.1065,0,1.0071,0.0001101091,15.1065,0
1.008,-4.49836E-05,15.12,0,1.008,5.169757E-05,15.12,0
1.0089,-4.061952E-05,15.1335,0,1.0089,-4.867628E-05,15.1335,0
1.0098,-1.007095E-06,15.147,0,1.0098,-0.0001376364,15.147,0
1.0107,-4.666209E-05,15.1605,0,1.0107,3.726253E-05,15.1605,0
1.0116,-0.0001054093,15.174,0,1.0116,2.786297E-05,15.174,0
1.0125,-0.0001027237,15.1875,0,1.0125,-0.0001221943,15.1875,0
1.0134,-4.53193E-05,15.201,0,1.0134,-8.560311E-05,15.201,0
1.0143,0.0001064164,15.2145,0,1.0143,-0.0001601282,15.2145,0
1.0152,6.814679E-05,15.228,0,1.0152,-0.0001980621,15.228,0
1.0161,-1.141375E-05,15.2415,0,1.0161,-0.0001413291,15.2415,0
1.017,7.486076E-05,15.255,0,1.017,-0.0001221943,15.255,0
1.0179,6.009003E-05,15.2685,0,1.0179,-0.0001171588,15.2685,0
1.0188,-9.735256E-06,15.282,0,1.0188,-7.922484E-05,15.282,0
1.0197,9.735256E-06,15.2955,0,1.0197,-6.478981E-05,15.2955,0
1.0206,6.411841E-05,15.309,0,1.0206,-0.0001013809,15.309,0
1.0215,6.143282E-05,15.3225,0,1.0215,-7.553216E-05,15.3225,0
1.0224,8.023193E-05,15.336,0,1.0224,-5.337606E-05,15.336,0
1.0233,9.835965E-05,15.3495,0,1.0233,-8.82887E-05,15.3495,0
1.0242,-2.719158E-05,15.363,0,1.0242,-6.378271E-05,15.363,0
1.0251,-6.74754E-05,15.3765,0,1.0251,-5.270466E-05,15.3765,0
1.026,-7.586786E-05,15.39,0,1.026,-6.848249E-05,15.39,0
1.0269,-0.0001926909,15.4035,0,1.0269,-7.217517E-05,15.4035,0
1.0278,-0.000115816,15.417,0,1.0278,-9.365987E-05,15.417,0
1.0287,-8.661021E-05,15.4305,0,1.0287,-4.49836E-05,15.4305,0
1.0296,-0.0002017548,15.444,0,1.0296,5.371176E-06,15.444,0
1.0305,-0.0001399863,15.4575,0,1.0305,3.356985E-07,15.4575,0
1.0314,0.0001252155,15.471,0,1.0314,-6.378271E-06,15.471,0
1.0323,0.0004441291,15.4845,0,1.0323,3.189136E-05,15.4845,0
1.0332,0.0004031739,15.498,0,1.0332,-1.846342E-05,15.498,0
1.0341,0.0001910124,15.5115,0,1.0341,-4.263371E-05,15.5115,0
1.035,-1.107805E-05,15.525,0,1.035,1.712062E-05,15.525,0
1.0359,-5.673304E-05,15.5385,0,1.0359,2.349889E-05,15.5385,0
1.0368,-4.095522E-05,15.552,0,1.0368,-3.692683E-05,15.552,0
1.0377,-8.526741E-05,15.5655,0,1.0377,-4.699779E-06,15.5655,0
1.0386,-0.0001017166,15.579,0,1.0386,1.443504E-05,15.579,0
1.0395,-1.745632E-05,15.5925,0,1.0395,-4.834058E-05,15.5925,0
1.0404,0.0001285725,15.606,0,1.0404,-7.855344E-05,15.606,0
1.0413,0.0001654994,15.6195,0,1.0413,-4.867628E-05,15.6195,0
1.0422,0.0001507286,15.633,0,1.0422,-3.356985E-06,15.633,0
1.0431,0.0001030594,15.6465,0,1.0431,1.309224E-05,15.6465,0
1.044,2.047761E-05,15.66,0,1.044,-4.028382E-06,15.66,0
1.0449,-9.063859E-06,15.6735,0,1.0449,0.000158114,15.6735,0
1.0458,-7.788205E-05,15.687,0,1.0458,0.0004857557,15.687,0
1.0467,-5.673304E-05,15.7005,0,1.0467,0.0003165637,15.7005,0
1.0476,-6.210422E-05,15.714,0,1.0476,6.814679E-05,15.714,0
1.0485,-0.0001033951,15.7275,0,1.0485,6.378271E-06,15.7275,0
1.0494,-5.169757E-05,15.741,0,1.0494,-1.812772E-05,15.741,0
1.0503,-3.524834E-05,15.7545,0,1.0503,-0.0001560998,15.7545,0
1.0512,9.063859E-06,15.768,0,1.0512,-0.0001671778,15.768,0
1.0521,-4.061952E-05,15.7815,0,1.0521,-9.567407E-05,15.7815,0
1.053,-8.493171E-05,15.795,0,1.053,-8.358892E-05,15.795,0
1.0539,-0.0001252155,15.8085,0,1.0539,-0.0002601663,15.8085,0
1.0548,-8.89601E-05,15.822,0,1.0548,-0.0003699397,15.822,0
1.0557,-0.0001228656,15.8355,0,1.0557,-0.0002229038,15.8355,0
1.0566,-0.0001537499,15.849,0,1.0566,-9.500267E-05,15.849,0
1.0575,-8.69459E-05,15.8625,0,1.0575,6.61326E-05,15.8625,0
1.0584,-0.0001295796,15.876,0,1.0584,0.0003994812,15.876,0
1.0593,-0.0002376745,15.8895,0,1.0593,0.0003283131,15.8895,0
1.0602,-0.0001789273,15.903,0,1.0602,0.0001453574,15.903,0
1.0611,-0.0001040665,15.9165,0,1.0611,0.0001742275,15.9165,0
1.062,-0.0001440146,15.93,0,1.062,0.0002245823,15.93,0
1.0629,-0.0001020523,15.9435,0,1.0629,0.0001661708,15.9435,0
1.0638,-2.853437E-05,15.957,0,1.0638,1.275654E-05,15.957,0
1.0647,-3.390555E-05,15.9705,0,1.0647,-3.155566E-05,15.9705,0
1.0656,-0.0001205158,15.984,0,1.0656,-6.74754E-05,15.984,0
1.0665,-3.390555E-05,15.9975,0,1.0665,-7.553216E-05,15.9975,0
1.0674,-9.063859E-06,16.011,0,1.0674,-0.0001305867,16.011,0
1.0683,3.793393E-05,16.0245,0,1.0683,-0.0001879911,16.0245,0
1.0692,0.0001114519,16.038,0,1.0692,-0.0002299535,16.038,0
1.0701,0.0001527428,16.0515,0,1.0701,-0.0002897078,16.0515,0
1.071,0.0001940337,16.065,0,1.071,-0.0002390173,16.065,0
1.0719,0.0002145113,16.0785,0,1.0719,-0.0001134661,16.0785,0
1.0728,0.000109102,16.092,0,1.0728,-1.812772E-05,16.092,0
1.0737,8.426032E-05,16.1055,0,1.0737,0.0001013809,16.1055,0
1.0746,0.0001769131,16.119,0,1.0746,0.0001114519,16.119,0
1.0755,6.61326E-05,16.1325,0,1.0755,0.0001097734,16.1325,0
1.0764,4.632639E-05,16.146,0,1.0764,2.18204E-05,16.146,0
1.0773,0.000112459,16.1595,0,1.0773,-9.533837E-05,16.1595,0
1.0782,-2.316319E-05,16.173,0,1.0782,-0.000214847,16.173,0
1.0791,-8.459602E-05,16.1865,0,1.0791,-0.0002319677,16.1865,0
1.08,-1.577783E-05,16.2,0,1.08,-0.0002390173,16.2,0
1.0809,-3.625543E-05,16.2135,0,1.0809,-0.0001084306,16.2135,0
1.0818,1.745632E-05,16.227,0,1.0818,0.0003085069,16.227,0
1.0827,-4.699779E-05,16.2405,0,1.0827,0.000436408,16.2405,0
1.0836,-0.0001138018,16.254,0,1.0836,0.0002799725,16.254,0
1.0845,-9.768826E-05,16.2675,0,1.0845,8.560311E-05,16.2675,0
1.0854,-4.666209E-05,16.281,0,1.0854,4.36408E-05,16.281,0
1.0863,-0.0001080949,16.2945,0,1.0863,3.457694E-05,16.2945,0
1.0872,-0.0001359579,16.308,0,1.0872,6.009003E-05,16.308,0
1.0881,-0.0001258869,16.3215,0,1.0881,0.0002017548,16.3215,0
1.089,-0.0001168231,16.335,0,1.089,0.0002051118,16.335,0
1.0899,2.1149E-05,16.3485,0,1.0899,5.270466E-05,16.3485,0
1.0908,-9.567407E-05,16.362,0,1.0908,-2.920577E-05,16.362,0
1.0917,-7.016098E-05,16.3755,0,1.0917,-4.632639E-05,16.3755,0
1.0926,-3.994812E-05,16.389,0,1.0926,-0.0001977264,16.389,0
1.0935,-0.0001080949,16.4025,0,1.0935,-0.0003051499,16.4025,0
1.0944,-1.812772E-05,16.416,0,1.0944,-0.0003393912,16.416,0
1.0953,0.0002312963,16.4295,0,1.0953,-0.0003514763,16.4295,0
1.0962,0.0001654994,16.443,0,1.0962,-0.0002645304,16.443,0
1.0971,0.0001087663,16.4565,0,1.0971,6.378271E-06,16.4565,0
1.098,0.0002218967,16.47,0,1.098,0.0001762417,16.47,0
1.0989,0.0003004501,16.4835,0,1.0989,3.189136E-05,16.4835,0
1.0998,7.049668E-05,16.497,0,1.0998,-7.989624E-05,16.497,0
1.1007,3.692683E-05,16.5105,0,1.1007,-8.92958E-05,16.5105,0
1.1016,0.0001141375,16.524,0,1.1016,-0.0001020523,16.524,0
1.1025,-2.450599E-05,16.5375,0,1.1025,-7.217517E-05,16.5375,0
1.1034,-6.344701E-05,16.551,0,1.1034,-3.692683E-05,16.551,0
1.1043,4.53193E-05,16.5645,0,1.1043,-3.524834E-05,16.5645,0
1.1052,-3.356985E-07,16.578,0,1.1052,-1.644922E-05,16.578,0
1.1061,-7.888914E-05,16.5915,0,1.1061,-4.028382E-06,16.5915,0
1.107,1.577783E-05,16.605,0,1.107,-5.874724E-05,16.605,0
1.1079,4.263371E-05,16.6185,0,1.1079,-2.551309E-05,16.6185,0
1.1088,-8.728161E-06,16.632,0,1.1088,-5.807584E-05,16.632,0
1.1097,-3.256275E-05,16.6455,0,1.1097,-3.961242E-05,16.6455,0
1.1106,-7.452507E-05,16.659,0,1.1106,-7.049668E-06,16.659,0
1.1115,3.189136E-05,16.6725,0,1.1115,-1.712062E-05,16.6725,0
1.1124,0.0001587854,16.686,0,1.1124,-1.846342E-05,16.686,0
1.1133,8.96315E-05,16.6995,0,1.1133,7.486076E-05,16.6995,0
1.1142,3.927672E-05,16.713,0,1.1142,0.0001265583,16.713,0
1.1151,5.304036E-05,16.7265,0,1.1151,6.948959E-05,16.7265,0
1.116,-4.867628E-05,16.74,0,1.116,6.143282E-05,16.74,0
1.1169,1.846342E-05,16.7535,0,1.1169,6.176852E-05,16.7535,0
1.1178,6.143282E-05,16.767,0,1.1178,1.510643E-05,16.767,0
1.1187,7.620356E-05,16.7805,0,1.1187,-2.047761E-05,16.7805,0
1.1196,-9.735256E-06,16.794,0,1.1196,-2.316319E-05,16.794,0
1.1205,-2.887007E-05,16.8075,0,1.1205,-0.0001174945,16.8075,0
1.1214,9.063859E-06,16.821,0,1.1214,-0.0001842985,16.821,0
1.1223,3.826963E-05,16.8345,0,1.1223,-0.0001225299,16.8345,0
1.1232,-5.941863E-05,16.848,0,1.1232,-6.344701E-05,16.848,0
1.1241,-0.0001198444,16.8615,0,1.1241,-6.378271E-06,16.8615,0
1.125,-4.36408E-05,16.875,0,1.125,-3.289845E-05,16.875,0
1.1259,-2.719158E-05,16.8885,0,1.1259,-6.948959E-05,16.8885,0
1.1268,-3.659113E-05,16.902,0,1.1268,-1.678492E-05,16.902,0
1.1277,-5.706874E-06,16.9155,0,1.1277,3.860533E-05,16.9155,0
1.1286,6.277562E-05,16.929,0,1.1286,-3.356985E-07,16.929,0
1.1295,-3.021286E-06,16.9425,0,1.1295,1.309224E-05,16.9425,0
1.1304,0.000105745,16.956,0,1.1304,2.1149E-05,16.956,0
1.1313,0.000158114,16.9695,0,1.1313,4.565499E-05,16.9695,0
1.1322,3.390555E-05,16.983,0,1.1322,-4.733349E-05,16.983,0
1.1331,-4.565499E-05,16.9965,0,1.1331,-0.0001621424,16.9965,0
1.134,-2.685588E-06,17.01,0,1.134,-2.618448E-05,17.01,0
1.1349,-1.040665E-05,17.0235,0,1.1349,2.316319E-05,17.0235,0
1.1358,-1.040665E-05,17.037,0,1.1358,3.524834E-05,17.037,0
1.1367,-9.332418E-05,17.0505,0,1.1367,7.083238E-05,17.0505,0
1.1376,-0.0002198825,17.064,0,1.1376,1.040665E-05,17.064,0
1.1385,-0.0001148089,17.0775,0,1.1385,1.544213E-05,17.0775,0
1.1394,-0.0001097734,17.091,0,1.1394,-4.028382E-06,17.091,0
1.1403,-0.0001695277,17.1045,0,1.1403,-8.358892E-05,17.1045,0
1.1412,-3.591974E-05,17.118,0,1.1412,-0.0001309224,17.118,0
1.1421,7.351797E-05,17.1315,0,1.1421,-0.0001413291,17.1315,0
1.143,9.735256E-06,17.145,0,1.143,-0.0001225299,17.145,0
1.1439,-6.713969E-07,17.1585,0,1.1439,-0.0001245441,17.1585,0
1.1448,1.980621E-05,17.172,0,1.1448,-0.0002269322,17.172,0
1.1457,-1.107805E-05,17.1855,0,1.1457,-0.0002349889,17.1855,0
1.1466,-6.61326E-05,17.199,0,1.1466,-0.0001413291,17.199,0
1.1475,7.721065E-06,17.2125,0,1.1475,-0.0001221943,17.2125,0
1.1484,5.975433E-05,17.226,0,1.1484,-3.860533E-05,17.226,0
1.1493,9.701686E-05,17.2395,0,1.1493,0.0001033951,17.2395,0
1.1502,9.063859E-05,17.253,0,1.1502,0.0001876554,17.253,0
1.1511,4.263371E-05,17.2665,0,1.1511,0.0001564355,17.2665,0
1.152,-1.846342E-05,17.28,0,1.152,-6.6804E-05,17.28,0
1.1529,-1.007095E-06,17.2935,0,1.1529,-0.0003044785,17.2935,0
1.1538,-1.242084E-05,17.307,0,1.1538,-0.0002870222,17.307,0
1.1547,-1.275654E-05,17.3205,0,1.1547,-7.821774E-05,17.3205,0
1.1556,-7.150377E-05,17.334,0,1.1556,0.0001661708,17.334,0
1.1565,-0.0002198825,17.3475,0,1.1565,0.0003326772,17.3475,0
1.1574,-0.0002581521,17.361,0,1.1574,0.0004266728,17.361,0
1.1583,-0.0002151827,17.3745,0,1.1583,0.0003336843,17.3745,0
1.1592,-0.0002131685,17.388,0,1.1592,0.0002974289,17.388,0
1.1601,-0.0002833295,17.4015,0,1.1601,0.0002433814,17.4015,0
1.161,-0.0002077974,17.415,0,1.161,0.0001594568,17.415,0
1.1619,4.766919E-05,17.4285,0,1.1619,1.846342E-05,17.4285,0
1.1628,0.0003138781,17.442,0,1.1628,-4.699779E-05,17.442,0
1.1637,0.000197055,17.4555,0,1.1637,1.879912E-05,17.4555,0
1.1646,0.0001967193,17.469,0,1.1646,-3.021286E-06,17.469,0
1.1655,0.0002403601,17.4825,0,1.1655,-0.000161471,17.4825,0
1.1664,0.0001738918,17.496,0,1.1664,-0.0001863127,17.496,0
1.1673,7.855344E-05,17.5095,0,1.1673,-0.0001138018,17.5095,0
1.1682,-1.309224E-05,17.523,0,1.1682,-5.304036E-05,17.523,0
1.1691,6.881819E-05,17.5365,0,1.1691,-3.121996E-05,17.5365,0
1.17,0.0001299153,17.55,0,1.17,3.155566E-05,17.55,0
1.1709,-0.0001077592,17.5635,0,1.1709,-0.0001654994,17.5635,0
1.1718,-0.0002074617,17.577,0,1.1718,-0.0003753109,17.577,0
1.1727,-0.0001846342,17.5905,0,1.1727,-0.0003709468,17.5905,0
1.1736,-0.0001735561,17.604,0,1.1736,-0.0005173113,17.604,0
1.1745,-0.0001359579,17.6175,0,1.1745,-0.0004384222,17.6175,0
1.1754,-7.385367E-06,17.631,0,1.1754,-0.0001060807,17.631,0
1.1763,0.0002074617,17.6445,0,1.1763,0.0003588617,17.6445,0
1.1772,0.0002645304,17.658,0,1.1772,0.000674754,17.658,0
1.1781,4.43122E-05,17.6715,0,1.1781,0.0005448386,17.6715,0
1.179,-0.0001248798,17.685,0,1.179,0.0003937743,17.685,0
1.1799,-0.0001520714,17.6985,0,1.1799,0.000231632,17.6985,0
1.1808,-0.0002863508,17.712,0,1.1808,3.692683E-05,17.712,0
1.1817,-0.000281651,17.7255,0,1.1817,-9.869535E-05,17.7255,0
1.1826,-0.0002202182,17.739,0,1.1826,-0.0002252537,17.739,0
1.1835,-0.0004481575,17.7525,0,1.1835,-0.000235996,17.7525,0
1.1844,-0.0003914244,17.766,0,1.1844,-0.0002222324,17.766,0
1.1853,-0.0001064164,17.7795,0,1.1853,-6.277562E-05,17.7795,0
1.1862,5.874724E-05,17.793,0,1.1862,3.323415E-05,17.793,0
1.1871,0.0002423743,17.8065,0,1.1871,1.208515E-05,17.8065,0
1.188,0.0002826581,17.82,0,1.188,-6.713969E-07,17.82,0
1.1889,0.0003138781,17.8335,0,1.1889,7.721065E-06,17.8335,0
1.1898,0.0003393912,17.847,0,1.1898,4.061952E-05,17.847,0
1.1907,0.000186984,17.8605,0,1.1907,7.217517E-05,17.8605,0
1.1916,0.000112459,17.874,0,1.1916,4.162661E-05,17.874,0
1.1925,8.392462E-05,17.8875,0,1.1925,-4.867628E-05,17.8875,0
1.1934,5.270466E-05,17.901,0,1.1934,-4.49836E-05,17.901,0
1.1943,1.980621E-05,17.9145,0,1.1943,-4.36408E-06,17.9145,0
1.1952,0.0001000381,17.928,0,1.1952,-3.860533E-05,17.928,0
1.1961,1.443504E-05,17.9415,0,1.1961,-0.0001769131,17.9415,0
1.197,-0.0001416648,17.955,0,1.197,-0.000340734,17.955,0
1.1979,-7.284657E-05,17.9685,0,1.1979,-0.0004280156,17.9685,0
1.1988,-6.210422E-05,17.982,0,1.1988,-0.0004847486,17.982,0
1.1997,-1.107805E-05,17.9955,0,1.1997,-0.0004444648,17.9955,0
1.2006,2.014191E-06,18.009,0,1.2006,-8.89601E-05,18.009,0
1.2015,5.236896E-05,18.0225,0,1.2015,0.0002047761,18.0225,0
1.2024,8.291753E-05,18.036,0,1.2024,0.0004850843,18.036,0
1.2033,8.89601E-05,18.0495,0,1.2033,0.0005495384,18.0495,0
1.2042,-0.0001285725,18.063,0,1.2042,0.000267216,18.063,0
1.2051,-0.0001856413,18.0765,0,1.2051,0.0001517357,18.0765,0
1.206,-0.0001326009,18.09,0,1.206,9.231708E-05,18.09,0
1.2069,-0.0001524071,18.1035,0,1.2069,5.606165E-05,18.1035,0
1.2078,-0.0001728847,18.117,0,1.2078,5.673304E-05,18.117,0
1.2087,-0.0001104448,18.1305,0,1.2087,3.356985E-07,18.1305,0
1.2096,-6.277562E-05,18.144,0,1.2096,-5.941863E-05,18.144,0
1.2105,-0.0001426719,18.1575,0,1.2105,-3.021286E-06,18.1575,0
1.2114,-0.0001097734,18.171,0,1.2114,1.242084E-05,18.171,0
1.2123,-1.174945E-05,18.1845,0,1.2123,-1.980621E-05,18.1845,0
1.2132,-0.000105745,18.198,0,1.2132,-4.733349E-05,18.198,0
1.2141,-0.0001728847,18.2115,0,1.2141,-7.083238E-05,18.2115,0
1.215,-0.0001198444,18.225,0,1.215,-0.0001070878,18.225,0
1.2159,-4.599069E-05,18.2385,0,1.2159,-0.0001104448,18.2385,0
1.2168,9.063859E-06,18.252,0,1.2168,-0.0001379721,18.252,0
1.2177,4.061952E-05,18.2655,0,1.2177,-0.0001054093,18.2655,0
1.2186,0.0001003738,18.279,0,1.2186,-2.349889E-05,18.279,0
1.2195,0.0001967193,18.2925,0,1.2195,-5.807584E-05,18.2925,0
1.2204,0.0002544594,18.306,0,1.2204,-0.0001027237,18.306,0
1.2213,4.39765E-05,18.3195,0,1.2213,-3.793393E-05,18.3195,0
1.2222,2.517739E-05,18.333,0,1.2222,-1.913481E-05,18.333,0
1.2231,0.0001426719,18.3465,0,1.2231,-5.807584E-05,18.3465,0
1.224,7.989624E-05,18.36,0,1.224,9.198138E-05,18.36,0
1.2249,-1.510643E-05,18.3735,0,1.2249,8.426032E-05,18.3735,0
1.2258,7.721065E-06,18.387,0,1.2258,-1.242084E-05,18.387,0
1.2267,5.001907E-05,18.4005,0,1.2267,5.706874E-06,18.4005,0
1.2276,-3.860533E-05,18.414,0,1.2276,-6.109713E-05,18.414,0
1.2285,2.685588E-06,18.4275,0,1.2285,-0.0001349508,18.4275,0
1.2294,6.277562E-05,18.441,0,1.2294,-0.0001117876,18.441,0
1.2303,4.632639E-05,18.4545,0,1.2303,-0.0001436789,18.4545,0
1.2312,4.49836E-05,18.468,0,1.2312,0.0001013809,18.468,0
1.2321,-7.385367E-06,18.4815,0,1.2321,0.0002292821,18.4815,0
1.233,-2.954147E-05,18.495,0,1.233,4.162661E-05,18.495,0
1.2339,-1.947051E-05,18.5085,0,1.2339,-0.0001017166,18.5085,0
1.2348,2.349889E-06,18.522,0,1.2348,-7.150377E-05,18.522,0
1.2357,2.887007E-05,18.5355,0,1.2357,-0.000148043,18.5355,0
1.2366,1.242084E-05,18.549,0,1.2366,-0.0002742657,18.549,0
1.2375,-8.392462E-06,18.5625,0,1.2375,-0.0001493858,18.5625,0
1.2384,5.270466E-05,18.576,0,1.2384,3.457694E-05,18.576,0
1.2393,2.081331E-05,18.5895,0,1.2393,-1.510643E-05,18.5895,0
1.2402,3.860533E-05,18.603,0,1.2402,-7.385367E-05,18.603,0
1.2411,-3.088426E-05,18.6165,0,1.2411,-7.418937E-05,18.6165,0
1.242,-5.706874E-05,18.63,0,1.242,-9.500267E-05,18.63,0
1.2429,-6.009003E-05,18.6435,0,1.2429,0.0001312581,18.6435,0
1.2438,-2.584878E-05,18.657,0,1.2438,0.0002974289,18.657,0
1.2447,-2.450599E-05,18.6705,0,1.2447,0.0003434196,18.6705,0
1.2456,-7.956054E-05,18.684,0,1.2456,0.0003017929,18.684,0
1.2465,-2.1149E-05,18.6975,0,1.2465,0.0001010452,18.6975,0
1.2474,8.157473E-05,18.711,0,1.2474,-7.351797E-05,18.711,0
1.2483,5.069047E-05,18.7245,0,1.2483,-0.0002574807,18.7245,0
1.2492,0.000112459,18.738,0,1.2492,-0.0003655757,18.738,0
1.2501,0.0001319295,18.7515,0,1.2501,-0.0003766537,18.7515,0
1.251,-7.049668E-06,18.765,0,1.251,-8.661021E-05,18.765,0
1.2519,3.659113E-05,18.7785,0,1.2519,0.0002803082,18.7785,0
1.2528,8.92958E-05,18.792,0,1.2528,0.0005931792,18.792,0
1.2537,4.36408E-05,18.8055,0,1.2537,0.0005250324,18.8055,0
1.2546,-6.71397E-05,18.819,0,1.2546,0.000323949,18.819,0
1.2555,-5.270466E-05,18.8325,0,1.2555,0.0002081331,18.8325,0
1.2564,-9.030289E-05,18.846,0,1.2564,9.164568E-05,18.846,0
1.2573,3.424125E-05,18.8595,0,1.2573,-2.752728E-05,18.8595,0
1.2582,8.560311E-05,18.873,0,1.2582,-9.063859E-06,18.873,0
1.2591,0.0002252537,18.8865,0,1.2591,-1.712062E-05,18.8865,0
1.26,0.0002480812,18.9,0,1.26,-0.0001010452,18.9,0
1.2609,0.0001094377,18.9135,0,1.2609,-0.0001863127,18.9135,0
1.2618,2.450599E-05,18.927,0,1.2618,-0.0002158541,18.927,0
1.2627,-4.53193E-05,18.9405,0,1.2627,-0.0002581521,18.9405,0
1.2636,-9.466698E-05,18.954,0,1.2636,-0.000291722,18.954,0
1.2645,-0.0001483787,18.9675,0,1.2645,-0.0003165637,18.9675,0
1.2654,-0.0002353246,18.981,0,1.2654,-0.0003880674,18.981,0
1.2663,-0.0003121996,18.9945,0,1.2663,-0.0004552071,18.9945,0
1.2672,-0.0002655375,19.008,0,1.2672,-0.0003951171,19.008,0
1.2681,-0.0001634852,19.0215,0,1.2681,-0.0002907149,19.0215,0
1.269,0.000112459,19.035,0,1.269,-1.309224E-05,19.035,0
1.2699,0.0001299153,19.0485,0,1.2699,0.00033402,19.0485,0
1.2708,3.558404E-05,19.062,0,1.2708,0.0002178683,19.062,0
1.2717,0.0002762798,19.0755,0,1.2717,9.600977E-05,19.0755,0
1.2726,0.0003884031,19.089,0,1.2726,4.666209E-05,19.089,0
1.2735,0.0002420386,19.1025,0,1.2735,-2.819867E-05,19.1025,0
1.2744,0.0001178302,19.116,0,1.2744,-6.6804E-05,19.116,0
1.2753,3.994812E-05,19.1295,0,1.2753,-2.719158E-05,19.1295,0
1.2762,4.36408E-05,19.143,0,1.2762,-5.941863E-05,19.143,0
1.2771,-2.517739E-05,19.1565,0,1.2771,-0.0001849699,19.1565,0
1.278,-0.000154757,19.17,0,1.278,-0.0001735561,19.17,0
1.2789,-0.0001742275,19.1835,0,1.2789,-0.0001577783,19.1835,0
1.2798,-0.0001037308,19.197,0,1.2798,-0.0001708705,19.197,0
1.2807,-0.000239353,19.2105,0,1.2807,-0.0001027237,19.2105,0
1.2816,-0.0003038071,19.224,0,1.2816,6.311131E-05,19.224,0
1.2825,-0.0002655375,19.2375,0,1.2825,4.263371E-05,19.2375,0
1.2834,-0.0002306248,19.251,0,1.2834,-7.553216E-05,19.251,0
1.2843,-7.687495E-05,19.2645,0,1.2843,-0.000119173,19.2645,0
1.2852,0.000154757,19.278,0,1.2852,1.040665E-05,19.278,0
1.2861,0.0001178302,19.2915,0,1.2861,0.0001604639,19.2915,0
1.287,7.888914E-05,19.305,0,1.287,0.0001839628,19.305,0
1.2879,0.0001443503,19.3185,0,1.2879,8.023193E-05,19.3185,0
1.2888,0.0001218585,19.332,0,1.2888,8.728161E-06,19.332,0
1.2897,-1.812772E-05,19.3455,0,1.2897,-0.0001238727,19.3455,0
1.2906,-8.426032E-05,19.359,0,1.2906,-0.0002218967,19.359,0
1.2915,-0.0001977264,19.3725,0,1.2915,-0.0001097734,19.3725,0
1.2924,-0.0001997406,19.386,0,1.2924,-0.0001554284,19.386,0
1.2933,-2.853437E-05,19.3995,0,1.2933,-0.0001245441,19.3995,0
1.2942,-3.021286E-06,19.413,0,1.2942,0.0002339818,19.413,0
1.2951,1.980621E-05,19.4265,0,1.2951,0.000477699,19.4265,0
1.296,7.486076E-05,19.44,0,1.296,0.0003857175,19.44,0
1.2969,0.0001030594,19.4535,0,1.2969,0.0001957122,19.4535,0
1.2978,0.0001352865,19.467,0,1.2978,9.903105E-05,19.467,0
1.2987,-1.678492E-06,19.4805,0,1.2987,0.0002131685,19.4805,0
1.2996,-5.740444E-05,19.494,0,1.2996,0.000158114,19.494,0
1.3005,-6.51255E-05,19.5075,0,1.3005,4.46479E-05,19.5075,0
1.3014,-9.231708E-05,19.521,0,1.3014,1.040665E-05,19.521,0
1.3023,-8.82887E-05,19.5345,0,1.3023,7.620356E-05,19.5345,0
1.3032,-0.000123537,19.548,0,1.3032,5.001907E-05,19.548,0
1.3041,-8.493171E-05,19.5615,0,1.3041,-7.083238E-05,19.5615,0
1.305,-0.0001000381,19.575,0,1.305,-5.035477E-05,19.575,0
1.3059,-6.411841E-05,19.5885,0,1.3059,-4.129091E-05,19.5885,0
1.3068,1.712062E-05,19.602,0,1.3068,-0.000164828,19.602,0
1.3077,-6.6804E-05,19.6155,0,1.3077,-0.0002088045,19.6155,0
1.3086,-5.337606E-05,19.629,0,1.3086,-0.0002400244,19.629,0
1.3095,-2.853437E-05,19.6425,0,1.3095,-0.0002531167,19.6425,0
1.3104,-2.920577E-05,19.656,0,1.3104,-0.0002323034,19.656,0
1.3113,4.632639E-05,19.6695,0,1.3113,-8.224613E-05,19.6695,0
1.3122,-4.061952E-05,19.683,0,1.3122,7.721065E-06,19.683,0
1.3131,-8.89601E-05,19.6965,0,1.3131,-1.544213E-05,19.6965,0
1.314,-3.793393E-05,19.71,0,1.314,-5.706874E-06,19.71,0
1.3149,-5.035477E-05,19.7235,0,1.3149,-3.121996E-05,19.7235,0
1.3158,-0.0001242084,19.737,0,1.3158,-1.510643E-05,19.737,0
1.3167,-5.774014E-05,19.7505,0,1.3167,-9.231708E-05,19.7505,0
1.3176,3.692683E-06,19.764,0,1.3176,-0.0001748989,19.764,0
1.3185,-8.89601E-05,19.7775,0,1.3185,-0.0001148089,19.7775,0
1.3194,2.24918E-05,19.791,0,1.3194,-4.229801E-05,19.791,0
1.3203,0.0001272297,19.8045,0,1.3203,-5.404745E-05,19.8045,0
1.3212,-2.28275E-05,19.818,0,1.3212,-0.0001111162,19.818,0
1.3221,-5.203327E-05,19.8315,0,1.3221,-0.0002010834,19.8315,0
1.323,1.577783E-05,19.845,0,1.323,-0.0002655375,19.845,0
1.3239,2.652018E-05,19.8585,0,1.3239,-0.0002336461,19.8585,0
1.3248,6.009003E-05,19.872,0,1.3248,-0.0002420386,19.872,0
1.3257,-3.558404E-05,19.8855,0,1.3257,-0.000179263,19.8855,0
1.3266,-2.18204E-05,19.899,0,1.3266,8.023193E-05,19.899,0
1.3275,7.754635E-05,19.9125,0,1.3275,0.0002611734,19.9125,0
1.3284,3.054856E-05,19.926,0,1.3284,2.316319E-05,19.926,0
1.3293,-8.426032E-05,19.9395,0,1.3293,7.183947E-05,19.9395,0
1.3302,-1.678492E-06,19.953,0,1.3302,0.0001628138,19.953,0
1.3311,5.606165E-05,19.9665,0,1.3311,0.0001695277,19.9665,0
1.332,4.49836E-05,19.98,0,1.332,0.000418616,19.98,0
1.3329,7.821774E-05,19.9935,0,1.3329,0.0003820249,19.9935,0
1.3338,0.0001967193,20.007,0,1.3338,2.1149E-05,20.007,0
1.3347,0.0002823224,20.0205,0,1.3347,3.088426E-05,20.0205,0
1.3356,0.0001037308,20.034,0,1.3356,1.611353E-05,20.034,0
1.3365,2.24918E-05,20.0475,0,1.3365,2.987716E-05,20.0475,0
1.3374,-1.242084E-05,20.061,0,1.3374,7.486076E-05,20.061,0
1.3383,-4.733349E-05,20.0745,0,1.3383,6.411841E-05,20.0745,0
1.3392,-6.61326E-05,20.088,0,1.3392,0.0001054093,20.088,0
1.3401,3.692683E-06,20.1015,0,1.3401,5.270466E-05,20.1015,0
1.341,1.242084E-05,20.115,0,1.341,-0.000144686,20.115,0
1.3419,-3.323415E-05,20.1285,0,1.3419,-0.00027393,20.1285,0
1.3428,-0.000144686,20.142,0,1.3428,-0.0002746014,20.142,0
1.3437,-0.0002034333,20.1555,0,1.3437,-0.0002591592,20.1555,0
1.3446,-2.752728E-05,20.169,0,1.3446,-0.0001044022,20.169,0
1.3455,0.0002192111,20.1825,0,1.3455,0.0001980621,20.1825,0
1.3464,0.0003058213,20.196,0,1.3464,0.0001238727,20.196,0
1.3473,0.0002554666,20.2095,0,1.3473,-0.0002662089,20.2095,0
1.3482,6.243992E-05,20.223,0,1.3482,-0.0005888151,20.223,0
1.3491,-3.256275E-05,20.2365,0,1.3491,-0.0006129854,20.2365,0
1.35,3.726253E-05,20.25,0,1.35,-0.0003608759,20.25,0
1.3509,0.0001500572,20.2635,0,1.3509,0.0003028,20.2635,0
1.3518,0.0001789273,20.277,0,1.3518,0.0006254063,20.277,0
1.3527,8.627451E-05,20.2905,0,1.3527,0.0004850843,20.2905,0
1.3536,-2.752728E-05,20.304,0,1.3536,0.0004380865,20.304,0
1.3545,-2.786297E-05,20.3175,0,1.3545,0.0002987717,20.3175,0
1.3554,1.577783E-05,20.331,0,1.3554,0.00021149,20.331,0
1.3563,-9.567407E-05,20.3445,0,1.3563,0.0002084688,20.3445,0
1.3572,-8.89601E-05,20.358,0,1.3572,0.0001097734,20.358,0
1.3581,-5.706874E-06,20.3715,0,1.3581,-1.812772E-05,20.3715,0
1.359,-0.0001064164,20.385,0,1.359,6.378271E-06,20.385,0
1.3599,-0.0001134661,20.3985,0,1.3599,4.061952E-05,20.3985,0
1.3608,-9.164568E-05,20.412,0,1.3608,-3.927672E-05,20.412,0
1.3617,-9.634547E-05,20.4255,0,1.3617,-4.196231E-05,20.4255,0
1.3626,-3.558404E-05,20.439,0,1.3626,-9.970245E-05,20.439,0
1.3635,6.143282E-05,20.4525,0,1.3635,-0.0001064164,20.4525,0
1.3644,1.980621E-05,20.466,0,1.3644,-0.0001467002,20.466,0
1.3653,6.009003E-05,20.4795,0,1.3653,-0.0002376745,20.4795,0
1.3662,-1.678492E-06,20.493,0,1.3662,-0.0001225299,20.493,0
1.3671,-0.000102388,20.5065,0,1.3671,-0.0002326391,20.5065,0
1.368,-0.0002420386,20.52,0,1.368,-0.0002819867,20.52,0
1.3689,-0.000203769,20.5335,0,1.3689,-0.0001359579,20.5335,0
1.3698,-9.433127E-05,20.547,0,1.3698,4.766919E-05,20.547,0
1.3707,0.0002373388,20.5605,0,1.3707,5.035477E-06,20.5605,0
1.3716,0.0003487907,20.574,0,1.3716,-7.251087E-05,20.574,0
1.3725,0.0001413291,20.5875,0,1.3725,5.505455E-05,20.5875,0
1.3734,7.687495E-05,20.601,0,1.3734,7.083238E-05,20.601,0
1.3743,6.009003E-05,20.6145,0,1.3743,-2.349889E-06,20.6145,0
1.3752,6.042573E-06,20.628,0,1.3752,1.040665E-05,20.628,0
1.3761,-0.0001574426,20.6415,0,1.3761,-2.719158E-05,20.6415,0
1.377,-6.176852E-05,20.655,0,1.377,-7.553216E-05,20.655,0
1.3779,4.766919E-05,20.6685,0,1.3779,-6.042573E-05,20.6685,0
1.3788,1.443504E-05,20.682,0,1.3788,-0.0001010452,20.682,0
1.3797,-7.217517E-05,20.6955,0,1.3797,-0.000172549,20.6955,0
1.3806,-0.0001567712,20.709,0,1.3806,-0.0001282368,20.709,0
1.3815,-9.130999E-05,20.7225,0,1.3815,-0.0001104448,20.7225,0
1.3824,-9.332418E-05,20.736,0,1.3824,-4.766919E-05,20.736,0
1.3833,-0.0001292439,20.7495,0,1.3833,-2.24918E-05,20.7495,0
1.3842,-3.524834E-05,20.763,0,1.3842,-2.853437E-05,20.763,0
1.3851,-1.007095E-06,20.7765,0,1.3851,1.007095E-05,20.7765,0
1.386,-9.433127E-05,20.79,0,1.386,8.560311E-05,20.79,0
1.3869,-3.558404E-05,20.8035,0,1.3869,5.539025E-05,20.8035,0
1.3878,5.035477E-06,20.817,0,1.3878,1.309224E-05,20.817,0
1.3887,-7.418937E-05,20.8305,0,1.3887,-2.853437E-05,20.8305,0
1.3896,-6.243992E-05,20.844,0,1.3896,-5.874724E-05,20.844,0
1.3905,-2.047761E-05,20.8575,0,1.3905,-2.18204E-05,20.8575,0
1.3914,-5.270466E-05,20.871,0,1.3914,-2.719158E-05,20.871,0
1.3923,7.049668E-06,20.8845,0,1.3923,-6.243992E-05,20.8845,0
1.3932,-8.392462E-06,20.898,0,1.3932,-5.606165E-05,20.898,0
1.3941,-1.745632E-05,20.9115,0,1.3941,-5.169757E-05,20.9115,0
1.395,4.800488E-05,20.925,0,1.395,-7.721065E-05,20.925,0
1.3959,1.309224E-05,20.9385,0,1.3959,-0.0001332723,20.9385,0
1.3968,-3.726253E-05,20.952,0,1.3968,-0.0002212253,20.952,0
1.3977,2.349889E-06,20.9655,0,1.3977,-0.0003561761,20.9655,0
1.3986,9.063859E-06,20.979,0,1.3986,-0.0003964599,20.979,0
1.3995,-0.000133608,20.9925,0,1.3995,-0.0003424124,20.9925,0
1.4004,-9.265278E-05,21.006,0,1.4004,-0.0002752728,21.006,0
1.4013,-6.344701E-05,21.0195,0,1.4013,-0.0001225299,21.0195,0
1.4022,-0.0001198444,21.033,0,1.4022,0.0002806439,21.033,0
1.4031,-0.0001554284,21.0465,0,1.4031,0.0003635614,21.0465,0
1.404,-0.0001295796,21.06,0,1.404,0.0004072023,21.06,0
1.4049,-7.150377E-05,21.0735,0,1.4049,0.0006227207,21.0735,0
1.4058,-1.040665E-05,21.087,0,1.4058,0.0005414817,21.087,0
1.4067,-3.457694E-05,21.1005,0,1.4067,0.0002957504,21.1005,0
1.4076,-7.956054E-05,21.114,0,1.4076,0.0001520714,21.114,0
1.4085,-2.18204E-05,21.1275,0,1.4085,-2.685588E-05,21.1275,0
1.4094,-6.009003E-05,21.141,0,1.4094,-1.242084E-05,21.141,0
1.4103,-0.0001520714,21.1545,0,1.4103,0.0001282368,21.1545,0
1.4112,-0.0001426719,21.168,0,1.4112,5.740444E-05,21.168,0
1.4121,-5.035477E-06,21.1815,0,1.4121,2.21561E-05,21.1815,0
1.413,2.21561E-05,21.195,0,1.413,7.083238E-05,21.195,0
1.4139,4.53193E-05,21.2085,0,1.4139,1.174945E-05,21.2085,0
1.4148,5.774014E-05,21.222,0,1.4148,-0.0001131304,21.222,0
1.4157,6.411841E-05,21.2355,0,1.4157,-0.0002302892,21.2355,0
1.4166,-1.409934E-05,21.249,0,1.4166,-0.0001950408,21.249,0
1.4175,7.385367E-06,21.2625,0,1.4175,-0.0001983978,21.2625,0
1.4184,4.53193E-05,21.276,0,1.4184,-0.0001493858,21.276,0
1.4193,8.157473E-05,21.2895,0,1.4193,-0.0001460288,21.2895,0
1.4202,-3.726253E-05,21.303,0,1.4202,-0.0001822843,21.303,0
1.4211,-5.673304E-05,21.3165,0,1.4211,-0.0001621424,21.3165,0
1.422,5.941863E-05,21.33,0,1.422,-0.0001708705,21.33,0
1.4229,6.881819E-05,21.3435,0,1.4229,-0.0002500954,21.3435,0
1.4238,3.457694E-05,21.357,0,1.4238,-0.000228275,21.357,0
1.4247,2.887007E-05,21.3705,0,1.4247,-0.0002195468,21.3705,0
1.4256,8.493171E-05,21.384,0,1.4256,-0.0002766156,21.384,0
1.4265,-7.217517E-05,21.3975,0,1.4265,-0.0001832914,21.3975,0
1.4274,-9.936675E-05,21.411,0,1.4274,-7.418937E-05,21.411,0
1.4283,-6.378271E-06,21.4245,0,1.4283,-5.270466E-05,21.4245,0
1.4292,1.309224E-05,21.438,0,1.4292,0.000140322,21.438,0
1.4301,0.0001460288,21.4515,0,1.4301,0.0004078737,21.4515,0
1.431,0.0001164874,21.465,0,1.431,0.0005606165,21.465,0
1.4319,4.33051E-05,21.4785,0,1.4319,0.0003185779,21.4785,0
1.4328,0.0002198825,21.492,0,1.4328,0.0001420005,21.492,0
1.4337,0.0003944457,21.5055,0,1.4337,0.0002155184,21.5055,0
1.4346,0.0003179065,21.519,0,1.4346,0.000235996,21.519,0
1.4355,0.0003078355,21.5325,0,1.4355,0.0001742275,21.5325,0
1.4364,0.0003105211,21.546,0,1.4364,0.0001889983,21.546,0
1.4373,0.0001426719,21.5595,0,1.4373,0.0002534524,21.5595,0
1.4382,0.0001258869,21.573,0,1.4382,0.0001433432,21.573,0
1.4391,0.0001715419,21.5865,0,1.4391,3.021286E-06,21.5865,0
1.44,8.795301E-05,21.6,0,1.44,-6.076142E-05,21.6,0
1.4409,8.157473E-05,21.6135,0,1.4409,-7.217517E-05,21.6135,0
1.4418,3.054856E-05,21.627,0,1.4418,-0.0001607996,21.627,0
1.4427,-0.0001185016,21.6405,0,1.4427,-0.0002272679,21.6405,0
1.4436,-0.0001379721,21.654,0,1.4436,-0.0001943694,21.654,0
1.4445,-6.076142E-05,21.6675,0,1.4445,-4.934768E-05,21.6675,0
1.4454,-6.881819E-05,21.681,0,1.4454,5.035477E-06,21.681,0
1.4463,-0.0001033951,21.6945,0,1.4463,-6.881819E-05,21.6945,0
1.4472,-3.256275E-05,21.708,0,1.4472,3.256275E-05,21.708,0
1.4481,0.0001218585,21.7215,0,1.4481,-3.826963E-05,21.7215,0
1.449,0.0001037308,21.735,0,1.449,-0.0001396506,21.735,0
1.4499,-7.653925E-05,21.7485,0,1.4499,-0.0002829938,21.7485,0
1.4508,-0.0002118257,21.762,0,1.4508,-0.0003283131,21.762,0
1.4517,-0.0001769131,21.7755,0,1.4517,-0.0003602045,21.7755,0
1.4526,-9.735256E-05,21.789,0,1.4526,-0.0004347295,21.789,0
1.4535,-9.265278E-05,21.8025,0,1.4535,-0.0002890364,21.8025,0
1.4544,-9.802396E-05,21.816,0,1.4544,-4.061952E-05,21.816,0
1.4553,-0.0001453574,21.8295,0,1.4553,0.0001070878,21.8295,0
1.4562,-0.0001654994,21.843,0,1.4562,0.0002964218,21.843,0
1.4571,-0.0001386435,21.8565,0,1.4571,0.0002531167,21.8565,0
1.458,-0.0002138399,21.87,0,1.458,4.733349E-05,21.87,0
1.4589,-0.0001856413,21.8835,0,1.4589,-1.342794E-05,21.8835,0
1.4598,-5.337606E-05,21.897,0,1.4598,-4.196231E-05,21.897,0
1.4607,-4.699779E-05,21.9105,0,1.4607,9.735256E-06,21.9105,0
1.4616,-8.795301E-05,21.924,0,1.4616,2.584878E-05,21.924,0
1.4625,-1.242084E-05,21.9375,0,1.4625,-3.256275E-05,21.9375,0
1.4634,-5.136187E-05,21.951,0,1.4634,-5.203327E-05,21.951,0
1.4643,-0.0002356603,21.9645,0,1.4643,-1.040665E-05,21.9645,0
1.4652,-0.0001661708,21.978,0,1.4652,-3.726253E-05,21.978,0
1.4661,6.277562E-05,21.9915,0,1.4661,-7.083238E-05,21.9915,0
1.467,-0.0001594568,22.005,0,1.467,-3.021286E-06,22.005,0
1.4679,-0.000164828,22.0185,0,1.4679,-1.510643E-05,22.0185,0
1.4688,-5.572595E-05,22.032,0,1.4688,-2.987716E-05,22.032,0
1.4697,-0.0001601282,22.0455,0,1.4697,2.652018E-05,22.0455,0
1.4706,-0.0001275654,22.059,0,1.4706,3.390555E-05,22.059,0
1.4715,-0.000102388,22.0725,0,1.4715,3.222705E-05,22.0725,0
1.4724,-0.0001211871,22.086,0,1.4724,1.342794E-06,22.086,0
1.4733,-0.0001044022,22.0995,0,1.4733,-2.417029E-05,22.0995,0
1.4742,-0.0001332723,22.113,0,1.4742,1.007095E-06,22.113,0
1.4751,3.189136E-05,22.1265,0,1.4751,1.007095E-06,22.1265,0
1.476,0.0001544213,22.14,0,1.476,-0.0001225299,22.14,0
1.4769,0.0001748989,22.1535,0,1.4769,-0.000164828,22.1535,0
1.4778,0.0001258869,22.167,0,1.4778,3.256275E-05,22.167,0
1.4787,0.0002588235,22.1805,0,1.4787,-2.014191E-06,22.1805,0
1.4796,0.0002876936,22.194,0,1.4796,-0.0001896696,22.194,0
1.4805,3.054856E-05,22.2075,0,1.4805,-6.71397E-05,22.2075,0
1.4814,-2.584878E-05,22.221,0,1.4814,-6.378271E-05,22.221,0
1.4823,5.975433E-05,22.2345,0,1.4823,-3.390555E-05,22.2345,0
1.4832,-1.107805E-05,22.248,0,1.4832,0.0001661708,22.248,0
1.4841,-6.78111E-05,22.2615,0,1.4841,0.0001013809,22.2615,0
1.485,1.477073E-05,22.275,0,1.485,-0.0001940337,22.275,0
1.4859,0.0001131304,22.2885,0,1.4859,-0.0002474098,22.2885,0
1.4868,8.291753E-05,22.302,0,1.4868,-0.0002665446,22.302,0
1.4877,6.143282E-05,22.3155,0,1.4877,-0.0001668421,22.3155,0
1.4886,0.000112459,22.329,0,1.4886,-0.0001654994,22.329,0
1.4895,0.0001554284,22.3425,0,1.4895,-9.433127E-05,22.3425,0
1.4904,0.000144686,22.356,0,1.4904,0.0001252155,22.356,0
1.4913,8.157473E-05,22.3695,0,1.4913,0.0003501335,22.3695,0
1.4922,0.000218204,22.383,0,1.4922,0.0004427863,22.383,0
1.4931,0.0002487526,22.3965,0,1.4931,0.000418616,22.3965,0
1.494,4.666209E-05,22.41,0,1.494,0.0002598306,22.41,0
1.4949,-4.699779E-06,22.4235,0,1.4949,0.0001487144,22.4235,0
1.4958,4.699779E-06,22.437,0,1.4958,7.049668E-05,22.437,0
1.4967,-4.33051E-05,22.4505,0,1.4967,7.922484E-05,22.4505,0
1.4976,-6.210422E-05,22.464,0,1.4976,0.0001430075,22.464,0
1.4985,-7.049668E-06,22.4775,0,1.4985,8.358892E-05,22.4775,0
1.4994,-1.376364E-05,22.491,0,1.4994,-5.438316E-05,22.491,0
1.5003,-8.493171E-05,22.5045,0,1.5003,-0.0001597925,22.5045,0
1.5012,-0.0001685206,22.518,0,1.5012,-0.0001631495,22.518,0
1.5021,-0.0002312963,22.5315,0,1.5021,-0.0001641566,22.5315,0
1.503,-0.000203769,22.545,0,1.503,-0.0002336461,22.545,0
1.5039,-0.0002373388,22.5585,0,1.5039,-0.0002205539,22.5585,0
1.5048,-0.0003115282,22.572,0,1.5048,-0.0002688945,22.572,0
1.5057,-0.0002608377,22.5855,0,1.5057,-0.0004048524,22.5855,0
1.5066,-0.0002366674,22.599,0,1.5066,-0.000397467,22.599,0
1.5075,-0.0003343557,22.6125,0,1.5075,-0.0003766537,22.6125,0
1.5084,-0.0001530785,22.626,0,1.5084,-2.383459E-05,22.626,0
1.5093,0.0001500572,22.6395,0,1.5093,0.0003716182,22.6395,0
1.5102,0.0001393149,22.653,0,1.5102,0.000345098,22.653,0
1.5111,0.0001621424,22.6665,0,1.5111,0.0002574807,22.6665,0
1.512,0.0002490883,22.68,0,1.512,8.493171E-05,22.68,0
1.5129,0.000203769,22.6935,0,1.5129,4.800488E-05,22.6935,0
1.5138,0.0001299153,22.707,0,1.5138,0.0001443503,22.707,0
1.5147,0.0001037308,22.7205,0,1.5147,0.000281651,22.7205,0
1.5156,-2.517739E-05,22.734,0,1.5156,0.0001366293,22.734,0
1.5165,-0.0001185016,22.7475,0,1.5165,5.035477E-06,22.7475,0
1.5174,-0.0001225299,22.761,0,1.5174,-3.860533E-05,22.761,0
1.5183,-0.0002655375,22.7745,0,1.5183,-9.567407E-05,22.7745,0
1.5192,-0.0002655375,22.788,0,1.5192,-0.0001084306,22.788,0
1.5201,-7.284657E-05,22.8015,0,1.5201,-6.411841E-05,22.8015,0
1.521,6.009003E-05,22.815,0,1.521,-4.901198E-05,22.815,0
1.5219,0.0001856413,22.8285,0,1.5219,-8.157473E-05,22.8285,0
1.5228,0.0001816129,22.842,0,1.5228,-8.96315E-05,22.842,0
1.5237,0.0001080949,22.8555,0,1.5237,-6.61326E-05,22.8555,0
1.5246,0.0001094377,22.869,0,1.5246,-0.0001329366,22.869,0
1.5255,0.0001279011,22.8825,0,1.5255,-0.0001467002,22.8825,0
1.5264,-2.383459E-05,22.896,0,1.5264,-0.0001168231,22.896,0
1.5273,-7.183947E-05,22.9095,0,1.5273,-0.0001816129,22.9095,0
1.5282,-7.721065E-05,22.923,0,1.5282,-0.0001571069,22.923,0
1.5291,2.081331E-05,22.9365,0,1.5291,-0.0001628138,22.9365,0
1.53,2.786297E-05,22.95,0,1.53,-0.0001678492,22.95,0
1.5309,-5.706874E-06,22.9635,0,1.5309,-0.0001456931,22.9635,0
1.5318,-9.768826E-05,22.977,0,1.5318,-0.0001477073,22.977,0
1.5327,-2.584878E-05,22.9905,0,1.5327,-7.956054E-05,22.9905,0
1.5336,1.040665E-05,23.004,0,1.5336,-6.344701E-05,23.004,0
1.5345,-8.224613E-05,23.0175,0,1.5345,-8.69459E-05,23.0175,0
1.5354,-6.713969E-07,23.031,0,1.5354,3.189136E-05,23.031,0
1.5363,2.584878E-05,23.0445,0,1.5363,-1.644922E-05,23.0445,0
1.5372,-4.028382E-05,23.058,0,1.5372,-2.618448E-05,23.058,0
1.5381,-3.692683E-05,23.0715,0,1.5381,6.61326E-05,23.0715,0
1.539,8.493171E-05,23.085,0,1.539,0.0001272297,23.085,0
1.5399,0.0002927291,23.0985,0,1.5399,0.0001440146,23.0985,0
1.5408,0.0003823606,23.112,0,1.5408,5.505455E-05,23.112,0
1.5417,0.0001698634,23.1255,0,1.5417,-7.385367E-06,23.1255,0
1.5426,5.001907E-05,23.139,0,1.5426,-6.378271E-06,23.139,0
1.5435,1.174945E-05,23.1525,0,1.5435,2.349889E-06,23.1525,0
1.5444,4.263371E-05,23.166,0,1.5444,-2.450599E-05,23.166,0
1.5453,-1.913481E-05,23.1795,0,1.5453,-2.417029E-05,23.1795,0
1.5462,-4.934768E-05,23.193,0,1.5462,-1.779202E-05,23.193,0
1.5471,1.007095E-06,23.2065,0,1.5471,-5.471885E-05,23.2065,0
1.548,7.721065E-06,23.22,0,1.548,2.719158E-05,23.22,0
1.5489,6.54612E-05,23.2335,0,1.5489,7.284657E-05,23.2335,0
1.5498,0.0001755703,23.247,0,1.5498,5.136187E-05,23.247,0
1.5507,0.0001044022,23.2605,0,1.5507,6.210422E-05,23.2605,0
1.5516,7.486076E-05,23.274,0,1.5516,2.920577E-05,23.274,0
1.5525,0.0001272297,23.2875,0,1.5525,7.083238E-05,23.2875,0
1.5534,7.888914E-05,23.301,0,1.5534,3.054856E-05,23.301,0
1.5543,6.6804E-05,23.3145,0,1.5543,-0.0001168231,23.3145,0
1.5552,6.143282E-05,23.328,0,1.5552,-0.0001121233,23.328,0
1.5561,4.263371E-05,23.3415,0,1.5561,-9.600977E-05,23.3415,0
1.557,4.129091E-05,23.355,0,1.557,-0.0001003738,23.355,0
1.5579,6.143282E-05,23.3685,0,1.5579,-2.21561E-05,23.3685,0
1.5588,-2.652018E-05,23.382,0,1.5588,0.0002051118,23.382,0
1.5597,-0.0001463645,23.3955,0,1.5597,0.0002413672,23.3955,0
1.5606,-0.000119173,23.409,0,1.5606,5.404745E-05,23.409,0
1.5615,-0.0001876554,23.4225,0,1.5615,6.378271E-06,23.4225,0
1.5624,-0.0003749752,23.436,0,1.5624,-0.000214847,23.436,0
1.5633,-0.0003514763,23.4495,0,1.5633,-0.0002947433,23.4495,0
1.5642,-0.000179263,23.463,0,1.5642,-0.0002245823,23.463,0
1.5651,4.934768E-05,23.4765,0,1.5651,-8.392462E-05,23.4765,0
1.566,0.0003964599,23.49,0,1.566,-0.0001164874,23.49,0
1.5669,0.0003219348,23.5035,0,1.5669,7.385367E-06,23.5035,0
1.5678,0.0001178302,23.517,0,1.5678,0.0001695277,23.517,0
1.5687,0.000112459,23.5305,0,1.5687,0.0002621805,23.5305,0
1.5696,5.908293E-05,23.544,0,1.5696,0.0003393912,23.544,0
1.5705,1.376364E-05,23.5575,0,1.5705,0.0002007477,23.5575,0
1.5714,-9.835965E-05,23.571,0,1.5714,9.433127E-05,23.571,0
1.5723,-0.0001876554,23.5845,0,1.5723,0.000105745,23.5845,0
1.5732,-0.0001044022,23.598,0,1.5732,8.426032E-05,23.598,0
1.5741,-3.793393E-05,23.6115,0,1.5741,4.800488E-05,23.6115,0
1.575,-5.371176E-05,23.625,0,1.575,2.652018E-05,23.625,0
1.5759,-4.196231E-05,23.6385,0,1.5759,4.36408E-06,23.6385,0
1.5768,-0.0001258869,23.652,0,1.5768,-0.0002631876,23.652,0
1.5777,-0.0001117876,23.6655,0,1.5777,-0.0003575189,23.6655,0
1.5786,-0.0001322652,23.679,0,1.5786,-0.0004045167,23.679,0
1.5795,-0.000200412,23.6925,0,1.5795,-0.0004313726,23.6925,0
1.5804,-0.0001994049,23.706,0,1.5804,-0.0002568093,23.706,0
1.5813,-0.0001524071,23.7195,0,1.5813,-0.0001245441,23.7195,0
1.5822,-0.0001373007,23.733,0,1.5822,8.291753E-05,23.733,0
1.5831,-0.000133608,23.7465,0,1.5831,0.0001393149,23.7465,0
1.584,-0.0001940337,23.76,0,1.584,-0.0002440528,23.76,0
1.5849,-0.0002229038,23.7735,0,1.5849,-0.0004948195,23.7735,0
1.5858,-0.0002410315,23.787,0,1.5858,-0.0003252918,23.787,0
1.5867,-5.807584E-05,23.8005,0,1.5867,0.0001930266,23.8005,0
1.5876,9.265278E-05,23.814,0,1.5876,0.0006113069,23.814,0
1.5885,8.358892E-05,23.8275,0,1.5885,0.00072813,23.8275,0
1.5894,0.0002880293,23.841,0,1.5894,0.0005861296,23.841,0
1.5903,0.0003048142,23.8545,0,1.5903,0.0003649043,23.8545,0
1.5912,5.069047E-05,23.868,0,1.5912,0.000172549,23.868,0
1.5921,-0.0001087663,23.8815,0,1.5921,0.0001295796,23.8815,0
1.593,-4.162661E-05,23.895,0,1.593,9.198138E-05,23.895,0
1.5939,-7.721065E-06,23.9085,0,1.5939,2.383459E-05,23.9085,0
1.5948,-4.43122E-05,23.922,0,1.5948,-4.028382E-05,23.922,0
1.5957,-3.927672E-05,23.9355,0,1.5957,-2.24918E-05,23.9355,0
1.5966,3.793393E-05,23.949,0,1.5966,-3.659113E-05,23.949,0
1.5975,2.349889E-06,23.9625,0,1.5975,-5.941863E-05,23.9625,0
1.5984,7.049668E-06,23.976,0,1.5984,-8.86244E-05,23.976,0
1.5993,9.735256E-06,23.9895,0,1.5993,-0.0001201801,23.9895,0
1.6002,-8.392462E-06,24.003,0,1.6002,-0.0002433814,24.003,0
1.6011,-3.424125E-05,24.0165,0,1.6011,-0.0003440909,24.0165,0
1.602,-0.0001174945,24.03,0,1.602,-0.0003199207,24.03,0
1.6029,-0.0001299153,24.0435,0,1.6029,-0.0003524834,24.0435,0
1.6038,-5.572595E-05,24.057,0,1.6038,-0.0003806821,24.057,0
1.6047,-0.000112459,24.0705,0,1.6047,-0.0001762417,24.0705,0
1.6056,-9.500267E-05,24.084,0,1.6056,0.0001366293,24.084,0
1.6065,-5.740444E-05,24.0975,0,1.6065,0.0001567712,24.0975,0
1.6074,-8.392462E-06,24.111,0,1.6074,7.888914E-05,24.111,0
1.6083,0.0001178302,24.1245,0,1.6083,-2.349889E-06,24.1245,0
1.6092,0.0002480812,24.138,0,1.6092,-2.18204E-05,24.138,0
1.6101,0.0003900816,24.1515,0,1.6101,-3.994812E-05,24.1515,0
1.611,0.0003736324,24.165,0,1.611,-0.0001252155,24.165,0
1.6119,0.0001309224,24.1785,0,1.6119,-0.0001701991,24.1785,0
1.6128,-3.155566E-05,24.192,0,1.6128,-0.000140322,24.192,0
1.6137,6.51255E-05,24.2055,0,1.6137,-0.0001080949,24.2055,0
1.6146,4.800488E-05,24.219,0,1.6146,-6.478981E-05,24.219,0
1.6155,-6.54612E-05,24.2325,0,1.6155,3.558404E-05,24.2325,0
1.6164,0.0001634852,24.246,0,1.6164,8.358892E-05,24.246,0
1.6173,0.0002628519,24.2595,0,1.6173,-1.107805E-05,24.2595,0
1.6182,0.0001332723,24.273,0,1.6182,1.812772E-05,24.273,0
1.6191,-2.014191E-05,24.2865,0,1.6191,-1.678492E-05,24.2865,0
1.62,-0.0001054093,24.3,0,1.62,-6.344701E-05,24.3,0
1.6209,-0.0001420005,24.3135,0,1.6209,-5.069047E-05,24.3135,0
1.6218,-0.0001604639,24.327,0,1.6218,-3.390555E-05,24.327,0
1.6227,-0.000102388,24.3405,0,1.6227,3.692683E-05,24.3405,0
1.6236,-2.752728E-05,24.354,0,1.6236,8.996719E-05,24.354,0
1.6245,-2.517739E-05,24.3675,0,1.6245,0.0001728847,24.3675,0
1.6254,-8.526741E-05,24.381,0,1.6254,0.0001560998,24.381,0
1.6263,-0.0001987335,24.3945,0,1.6263,0.0001500572,24.3945,0
1.6272,-0.0001326009,24.408,0,1.6272,9.231708E-05,24.408,0
1.6281,2.24918E-05,24.4215,0,1.6281,3.457694E-05,24.4215,0
1.629,-9.903105E-05,24.435,0,1.629,3.659113E-05,24.435,0
1.6299,-0.0002161898,24.4485,0,1.6299,-4.49836E-05,24.4485,0
1.6308,-5.975433E-05,24.462,0,1.6308,-4.061952E-05,24.462,0
1.6317,2.349889E-06,24.4755,0,1.6317,3.424125E-05,24.4755,0
1.6326,-0.0001665064,24.489,0,1.6326,-6.344701E-05,24.489,0
1.6335,-0.0001722133,24.5025,0,1.6335,-0.0001292439,24.5025,0
1.6344,-0.0001232013,24.516,0,1.6344,-0.0001178302,24.516,0
1.6353,-9.030289E-05,24.5295,0,1.6353,-0.0001483787,24.5295,0
1.6362,-8.86244E-05,24.543,0,1.6362,-0.0001047379,24.543,0
1.6371,-6.243992E-05,24.5565,0,1.6371,-9.500267E-05,24.5565,0
1.638,5.740444E-05,24.57,0,1.638,-0.0001470359,24.57,0
1.6389,0.0001352865,24.5835,0,1.6389,4.800488E-05,24.5835,0
1.6398,1.644922E-05,24.597,0,1.6398,0.0001255512,24.597,0
1.6407,-1.443504E-05,24.6105,0,1.6407,-6.344701E-05,24.6105,0
1.6416,-7.888914E-05,24.624,0,1.6416,-0.0001500572,24.624,0
1.6425,-0.0001185016,24.6375,0,1.6425,-0.000109102,24.6375,0
1.6434,-0.0001030594,24.651,0,1.6434,-1.342794E-05,24.651,0
1.6443,-0.0001376364,24.6645,0,1.6443,-0.0001393149,24.6645,0
1.6452,-9.701686E-05,24.678,0,1.6452,-0.0002487526,24.678,0
1.6461,-5.035477E-05,24.6915,0,1.6461,-0.0002490883,24.6915,0
1.647,6.210422E-05,24.705,0,1.647,-0.0001514,24.705,0
1.6479,1.174945E-05,24.7185,0,1.6479,-3.390555E-05,24.7185,0
1.6488,-0.0001070878,24.732,0,1.6488,-7.821774E-05,24.732,0
1.6497,-0.0002994431,24.7455,0,1.6497,-0.0001453574,24.7455,0
1.6506,-0.0002796368,24.759,0,1.6506,-0.000154757,24.759,0
1.6515,-0.0002135042,24.7725,0,1.6515,-0.0002195468,24.7725,0
1.6524,-0.0001352865,24.786,0,1.6524,-0.0002554666,24.786,0
1.6533,-0.0001567712,24.7995,0,1.6533,1.342794E-06,24.7995,0
1.6542,0.000203769,24.813,0,1.6542,0.0003944457,24.813,0
1.6551,0.0006529336,24.8265,0,1.6551,0.0007606928,24.8265,0
1.656,0.0004065309,24.84,0,1.656,0.0007301442,24.84,0
1.6569,0.0002299535,24.8535,0,1.6569,0.0003444266,24.8535,0
1.6578,0.0003185779,24.867,0,1.6578,0.0002699016,24.867,0
1.6587,5.841154E-05,24.8805,0,1.6587,0.000411902,24.8805,0
1.6596,-3.323415E-05,24.894,0,1.6596,0.0001997406,24.894,0
1.6605,-4.867628E-05,24.9075,0,1.6605,7.284657E-05,24.9075,0
1.6614,-9.365987E-05,24.921,0,1.6614,6.243992E-05,24.921,0
1.6623,6.6804E-05,24.9345,0,1.6623,8.728161E-06,24.9345,0
1.6632,8.358892E-05,24.948,0,1.6632,-0.0001148089,24.948,0
1.6641,-2.920577E-05,24.9615,0,1.6641,-9.164568E-05,24.9615,0
1.665,3.994812E-05,24.975,0,1.665,-9.466698E-05,24.975,0
1.6659,7.922484E-05,24.9885,0,1.6659,-0.0001467002,24.9885,0
1.6668,-1.040665E-05,25.002,0,1.6668,-0.0001127947,25.002,0
1.6677,2.1149E-05,25.0155,0,1.6677,-0.0001540856,25.0155,0
1.6686,0.0001708705,25.029,0,1.6686,-0.0002057832,25.029,0
1.6695,0.0001420005,25.0425,0,1.6695,-0.0001685206,25.0425,0
1.6704,4.263371E-05,25.056,0,1.6704,-4.061952E-05,25.056,0
1.6713,4.061952E-05,25.0695,0,1.6713,-7.721065E-06,25.0695,0
1.6722,7.418937E-05,25.083,0,1.6722,-0.0001030594,25.083,0
1.6731,9.735256E-06,25.0965,0,1.6731,-0.0002752728,25.0965,0
1.674,-3.256275E-05,25.11,0,1.674,-0.000327306,25.11,0
1.6749,-5.035477E-05,25.1235,0,1.6749,-0.0002863508,25.1235,0
1.6758,-2.584878E-05,25.137,0,1.6758,-0.0002366674,25.137,0
1.6767,-0.0001252155,25.1505,0,1.6767,-8.82887E-05,25.1505,0
1.6776,-0.000144686,25.164,0,1.6776,-6.948959E-05,25.164,0
1.6785,-0.0001789273,25.1775,0,1.6785,0.0001383078,25.1775,0
1.6794,-5.102617E-05,25.191,0,1.6794,0.0002091402,25.191,0
1.6803,-5.941863E-05,25.2045,0,1.6803,0.0001003738,25.2045,0
1.6812,-2.21561E-05,25.218,0,1.6812,7.687495E-05,25.218,0
1.6821,0.0002843366,25.2315,0,1.6821,0.000164828,25.2315,0
1.683,0.000327306,25.245,0,1.683,0.0002762798,25.245,0
1.6839,0.000190341,25.2585,0,1.6839,6.6804E-05,25.2585,0
1.6848,5.874724E-05,25.272,0,1.6848,-3.692683E-05,25.272,0
1.6857,-4.867628E-05,25.2855,0,1.6857,-4.53193E-05,25.2855,0
1.6866,-0.0001221943,25.299,0,1.6866,-8.459602E-05,25.299,0
1.6875,-7.083238E-05,25.3125,0,1.6875,-0.0001218585,25.3125,0
1.6884,-3.390555E-05,25.326,0,1.6884,-0.0001238727,25.326,0
1.6893,1.040665E-05,25.3395,0,1.6893,-0.0001413291,25.3395,0
1.6902,-3.054856E-05,25.353,0,1.6902,-0.0001111162,25.353,0
1.6911,-3.524834E-05,25.3665,0,1.6911,-0.0001188373,25.3665,0
1.692,-4.33051E-05,25.38,0,1.692,-9.097429E-05,25.38,0
1.6929,-8.795301E-05,25.3935,0,1.6929,-8.224613E-05,25.3935,0
1.6938,-0.0001856413,25.407,0,1.6938,-6.042573E-05,25.407,0
1.6947,-0.000109102,25.4205,0,1.6947,-6.009003E-05,25.4205,0
1.6956,4.36408E-06,25.434,0,1.6956,-0.0001339437,25.434,0
1.6965,-0.0001040665,25.4475,0,1.6965,-9.063859E-05,25.4475,0
1.6974,-7.687495E-05,25.461,0,1.6974,-9.164568E-05,25.461,0
1.6983,-8.459602E-05,25.4745,0,1.6983,-0.0001540856,25.4745,0
1.6992,-3.121996E-05,25.488,0,1.6992,-0.0001534142,25.488,0
1.7001,-0.0001054093,25.5015,0,1.7001,-7.284657E-05,25.5015,0
1.701,-2.450599E-05,25.515,0,1.701,-6.848249E-05,25.515,0
1.7019,0.0003675898,25.5285,0,1.7019,-0.0001238727,25.5285,0
1.7028,0.0005659877,25.542,0,1.7028,-6.478981E-05,25.542,0
1.7037,0.0003769894,25.5555,0,1.7037,7.016098E-05,25.5555,0
1.7046,0.0001661708,25.569,0,1.7046,0.0001178302,25.569,0
1.7055,9.567407E-05,25.5825,0,1.7055,7.083238E-05,25.5825,0
1.7064,0.0001174945,25.596,0,1.7064,3.860533E-05,25.596,0
1.7073,9.063859E-06,25.6095,0,1.7073,0.0001379721,25.6095,0
1.7082,-5.941863E-05,25.623,0,1.7082,6.848249E-05,25.623,0
1.7091,2.920577E-05,25.6365,0,1.7091,-1.510643E-05,25.6365,0
1.71,-7.284657E-05,25.65,0,1.71,-2.1149E-05,25.65,0
1.7109,-2.081331E-05,25.6635,0,1.7109,8.728161E-06,25.6635,0
1.7118,0.0001151446,25.677,0,1.7118,-4.43122E-05,25.677,0
1.7127,6.6804E-05,25.6905,0,1.7127,-3.256275E-05,25.6905,0
1.7136,7.721065E-06,25.704,0,1.7136,-2.584878E-05,25.704,0
1.7145,3.356985E-06,25.7175,0,1.7145,-5.673304E-05,25.7175,0
1.7154,3.289845E-05,25.731,0,1.7154,-2.18204E-05,25.731,0
1.7163,-1.812772E-05,25.7445,0,1.7163,-2.316319E-05,25.7445,0
1.7172,-0.0001238727,25.758,0,1.7172,-4.53193E-05,25.758,0
1.7181,-0.0002239109,25.7715,0,1.7181,-0.0002265965,25.7715,0
1.719,-0.000185977,25.785,0,1.719,-0.0004176089,25.785,0
1.7199,-0.0001634852,25.7985,0,1.7199,-0.0004471504,25.7985,0
1.7208,-0.0001117876,25.812,0,1.7208,-0.0003766537,25.812,0
1.7217,-6.57969E-05,25.8255,0,1.7217,-0.0002084688,25.8255,0
1.7226,-0.0001094377,25.839,0,1.7226,0.0002907149,25.839,0
1.7235,-0.0002024262,25.8525,0,1.7235,0.0007180591,25.8525,0
1.7244,-7.553216E-05,25.866,0,1.7244,0.0005770657,25.866,0
1.7253,5.035477E-06,25.8795,0,1.7253,0.0001178302,25.8795,0
1.7262,-0.0001856413,25.893,0,1.7262,8.157473E-05,25.893,0
1.7271,-0.0002074617,25.9065,0,1.7271,0.0002171969,25.9065,0
1.728,-0.0001111162,25.92,0,1.728,4.666209E-05,25.92,0
1.7289,-0.0001027237,25.9335,0,1.7289,-2.383459E-05,25.9335,0
1.7298,-4.901198E-05,25.947,0,1.7298,1.678492E-06,25.947,0
1.7307,-6.143282E-05,25.9605,0,1.7307,0.0002789654,25.9605,0
1.7316,-0.000179263,25.974,0,1.7316,0.000322942,25.974,0
1.7325,-7.083238E-05,25.9875,0,1.7325,0.0002128328,25.9875,0
1.7334,5.673304E-05,26.001,0,1.7334,5.102617E-05,26.001,0
1.7343,-4.867628E-05,26.0145,0,1.7343,-0.0001376364,26.0145,0
1.7352,5.337606E-05,26.028,0,1.7352,-0.000207126,26.028,0
1.7361,8.325322E-05,26.0415,0,1.7361,-0.000200412,26.0415,0
1.737,-4.867628E-05,26.055,0,1.737,-5.304036E-05,26.055,0
1.7379,-4.800488E-05,26.0685,0,1.7379,-3.826963E-05,26.0685,0
1.7388,2.349889E-06,26.082,0,1.7388,-0.0001587854,26.082,0
1.7397,-1.342794E-05,26.0955,0,1.7397,-0.0002185397,26.0955,0
1.7406,-0.0001386435,26.109,0,1.7406,-0.0002225681,26.109,0
1.7415,-6.881819E-05,26.1225,0,1.7415,-0.0001846342,26.1225,0
1.7424,-1.007095E-06,26.136,0,1.7424,8.291753E-05,26.136,0
1.7433,1.678492E-06,26.1495,0,1.7433,0.0005260395,26.1495,0
1.7442,-8.86244E-05,26.163,0,1.7442,0.0004343938,26.163,0
1.7451,-0.0002124971,26.1765,0,1.7451,0.0001373007,26.1765,0
1.746,-0.000115816,26.19,0,1.746,-1.443504E-05,26.19,0
1.7469,7.956054E-05,26.2035,0,1.7469,-4.934768E-05,26.2035,0
1.7478,0.0001326009,26.217,0,1.7478,4.129091E-05,26.217,0
1.7487,0.0001963836,26.2305,0,1.7487,-1.208515E-05,26.2305,0
1.7496,9.634547E-05,26.244,0,1.7496,-4.43122E-05,26.244,0
1.7505,6.713969E-06,26.2575,0,1.7505,-1.544213E-05,26.2575,0
1.7514,0.0001957122,26.271,0,1.7514,-0.000102388,26.271,0
1.7523,0.0003833677,26.2845,0,1.7523,-0.0001218585,26.2845,0
1.7532,0.0002594949,26.298,0,1.7532,-0.0001591211,26.298,0
1.7541,8.761731E-05,26.3115,0,1.7541,-0.000161471,26.3115,0
1.755,1.409934E-05,26.325,0,1.755,-0.0001248798,26.325,0
1.7559,-4.699779E-06,26.3385,0,1.7559,-0.0001279011,26.3385,0
1.7568,3.021286E-06,26.352,0,1.7568,-0.0001389792,26.352,0
1.7577,-8.96315E-05,26.3655,0,1.7577,-0.0001285725,26.3655,0
1.7586,-0.0001366293,26.379,0,1.7586,-0.0001443503,26.379,0
1.7595,-0.0001326009,26.3925,0,1.7595,-0.0001769131,26.3925,0
1.7604,-7.217517E-05,26.406,0,1.7604,-0.0001772488,26.406,0
1.7613,-5.807584E-05,26.4195,0,1.7613,-0.0001134661,26.4195,0
1.7622,-6.311131E-05,26.433,0,1.7622,-0.0001873197,26.433,0
1.7631,-0.0001131304,26.4465,0,1.7631,-0.0002255894,26.4465,0
1.764,-0.000179263,26.46,0,1.764,-6.277562E-05,26.46,0
1.7649,-7.553216E-05,26.4735,0,1.7649,-2.18204E-05,26.4735,0
1.7658,-2.18204E-05,26.487,0,1.7658,-0.0001473716,26.487,0
1.7667,-0.0001003738,26.5005,0,1.7667,-0.0003843748,26.5005,0
1.7676,3.054856E-05,26.514,0,1.7676,-0.0005105974,26.514,0
1.7685,0.0002870222,26.5275,0,1.7685,-0.0003790036,26.5275,0
1.7694,0.0002991073,26.541,0,1.7694,-0.0001497215,26.541,0
1.7703,0.0001863127,26.5545,0,1.7703,0.0001272297,26.5545,0
1.7712,0.000200412,26.568,0,1.7712,0.000548867,26.568,0
1.7721,0.0001141375,26.5815,0,1.7721,0.0008681163,26.5815,0
1.773,1.712062E-05,26.595,0,1.773,0.0005918364,26.595,0
1.7739,1.107805E-05,26.6085,0,1.7739,0.0003068284,26.6085,0
1.7748,-0.0001060807,26.622,0,1.7748,0.0002474098,26.622,0
1.7757,-0.0001111162,26.6355,0,1.7757,0.0001117876,26.6355,0
1.7766,-3.894102E-05,26.649,0,1.7766,1.577783E-05,26.649,0
1.7775,-0.0001185016,26.6625,0,1.7775,2.987716E-05,26.6625,0
1.7784,-0.0001527428,26.676,0,1.7784,-1.980621E-05,26.676,0
1.7793,-0.0001195087,26.6895,0,1.7793,-8.92958E-05,26.6895,0
1.7802,-0.0001661708,26.703,0,1.7802,-0.0001037308,26.703,0
1.7811,-0.0002329748,26.7165,0,1.7811,-0.0001440146,26.7165,0
1.782,-0.000239353,26.73,0,1.782,-0.0001503929,26.73,0
1.7829,-0.0002333104,26.7435,0,1.7829,-0.0001416648,26.7435,0
1.7838,-0.0001356222,26.757,0,1.7838,-0.0002014191,26.757,0
1.7847,-6.378271E-06,26.7705,0,1.7847,-0.0001708705,26.7705,0
1.7856,0.000239353,26.784,0,1.7856,-0.0001171588,26.784,0
1.7865,0.0002876936,26.7975,0,1.7865,-0.0002111543,26.7975,0
1.7874,0.0001376364,26.811,0,1.7874,-0.0002014191,26.811,0
1.7883,5.841154E-05,26.8245,0,1.7883,6.042573E-06,26.8245,0
1.7892,6.713969E-07,26.838,0,1.7892,0.000102388,26.838,0
1.7901,4.867628E-05,26.8515,0,1.7901,0.0001010452,26.8515,0
1.791,6.948959E-05,26.865,0,1.791,0.0001500572,26.865,0
1.7919,0.0001272297,26.8785,0,1.7919,0.0001245441,26.8785,0
1.7928,0.000252781,26.892,0,1.7928,3.558404E-05,26.892,0
1.7937,0.0001070878,26.9055,0,1.7937,4.229801E-05,26.9055,0
1.7946,-6.713969E-07,26.919,0,1.7946,4.934768E-05,26.919,0
1.7955,2.517739E-05,26.9325,0,1.7955,3.356985E-06,26.9325,0
1.7964,-4.196231E-05,26.946,0,1.7964,3.659113E-05,26.946,0
1.7973,2.618448E-05,26.9595,0,1.7973,3.054856E-05,26.9595,0
1.7982,-7.721065E-06,26.973,0,1.7982,1.342794E-05,26.973,0
1.7991,-3.356985E-06,26.9865,0,1.7991,1.040665E-05,26.9865,0
1.8,1.443504E-05,27,0,1.8,1.678492E-05,27,0
1.8009,-3.491264E-05,27.0135,0,1.8009,1.174945E-05,27.0135,0
1.8018,-0.0001084306,27.027,0,1.8018,-7.016098E-05,27.027,0
1.8027,-9.835965E-05,27.0405,0,1.8027,-7.553216E-05,27.0405,0
1.8036,-0.0001221943,27.054,0,1.8036,-0.0001856413,27.054,0
1.8045,-0.000249424,27.0675,0,1.8045,-0.000193698,27.0675,0
1.8054,-0.0002776226,27.081,0,1.8054,-0.000164828,27.081,0
1.8063,-0.0002020905,27.0945,0,1.8063,-0.0001742275,27.0945,0
1.8072,-0.0001305867,27.108,0,1.8072,-1.644922E-05,27.108,0
1.8081,0.0001285725,27.1215,0,1.8081,0.0001114519,27.1215,0
1.809,0.0004283513,27.135,0,1.809,0.0001930266,27.135,0
1.8099,0.0002692302,27.1485,0,1.8099,9.298848E-05,27.1485,0
1.8108,9.600977E-05,27.162,0,1.8108,-2.450599E-05,27.162,0
1.8117,2.920577E-05,27.1755,0,1.8117,-3.189136E-05,27.1755,0
1.8126,-1.846342E-05,27.189,0,1.8126,-4.39765E-05,27.189,0
1.8135,-8.627451E-05,27.2025,0,1.8135,-0.000105745,27.2025,0
1.8144,-5.807584E-05,27.216,0,1.8144,-8.69459E-05,27.216,0
1.8153,-9.802396E-05,27.2295,0,1.8153,-7.956054E-05,27.2295,0
1.8162,1.040665E-05,27.243,0,1.8162,-0.0001799344,27.243,0
1.8171,6.64683E-05,27.2565,0,1.8171,-6.344701E-05,27.2565,0
1.818,8.392462E-06,27.27,0,1.818,-2.719158E-05,27.27,0
1.8189,-2.24918E-05,27.2835,0,1.8189,-0.0001010452,27.2835,0
1.8198,-8.191043E-05,27.297,0,1.8198,-0.000291722,27.297,0
