X[s],"Trigno IM sensor 3: EMG 3 (IM)",X[s],"Trigno IM sensor 3: Mag 3.Z (IM)",X[s],"Trigno IM sensor 4: EMG 4 (IM)",X[s],"Trigno IM sensor 4: Mag 4.Z (IM)"
0.000000,-2.349889E-06,0.000000,119,0.000000,-1.577783E-05,0.000000,0
0.0009,-1.678492E-06,0.0135,119,0.0009,3.692683E-06,0.0135,-1
0.0018,-2.484169E-05,0.027,120,0.0018,-9.735256E-06,0.027,0
0.0027,-9.735256E-06,0.0405,120,0.0027,8.392462E-06,0.0405,1
0.0036,2.1149E-05,0.054,119,0.0036,5.035477E-06,0.054,1
0.0045,9.063859E-06,0.0675,120,0.0045,-1.879912E-05,0.0675,3
0.0054,-7.049668E-06,0.081,118,0.0054,-1.342794E-05,0.081,1
0.0063,4.36408E-06,0.0945,117,0.0063,-3.356985E-06,0.0945,0
0.0072,-1.141375E-05,0.108,118,0.0072,-1.678492E-05,0.108,-1
0.0081,-1.745632E-05,0.1215,118,0.0081,-1.141375E-05,0.1215,2
0.009000001,-1.544213E-05,0.135,118,0.009000001,-1.779202E-05,0.135,2
0.0099,6.042573E-06,0.1485,117,0.0099,-2.18204E-05,0.1485,-2
0.0108,-1.846342E-05,0.162,118,0.0108,-2.853437E-05,0.162,0
0.0117,-2.954147E-05,0.1755,117,0.0117,-3.591974E-05,0.1755,2
0.0126,-1.913481E-05,0.189,119,0.0126,-2.920577E-05,0.189,1
0.0135,-2.987716E-05,0.2025,118,0.0135,-3.121996E-05,0.2025,0
0.0144,-2.417029E-05,0.216,118,0.0144,-3.726253E-05,0.216,0
0.0153,-1.242084E-05,0.2295,119,0.0153,-5.706874E-06,0.2295,-1
0.0162,-1.510643E-05,0.243,117,0.0162,-1.208515E-05,0.243,-1
0.0171,-1.107805E-05,0.2565,118,0.0171,-2.987716E-05,0.2565,-2
0.018,1.409934E-05,0.27,119,0.018,-2.786297E-05,0.27,1
0.0189,3.692683E-06,0.2835,117,0.0189,-2.517739E-05,0.2835,0
0.0198,2.349889E-06,0.297,119,0.0198,-1.879912E-05,0.297,1
0.0207,5.035477E-06,0.3105,120,0.0207,-1.812772E-05,0.3105,2
0.0216,7.049668E-06,0.324,119,0.0216,-3.625543E-05,0.324,0
0.0225,-6.713969E-07,0.3375,118,0.0225,-3.256275E-05,0.3375,1
0.0234,-1.275654E-05,0.351,119,0.0234,-1.275654E-05,0.351,-1
0.0243,-6.378271E-06,0.3645,119,0.0243,-7.385367E-06,0.3645,0
0.0252,-1.275654E-05,0.378,118,0.0252,-8.728161E-06,0.378,-2
0.0261,-6.042573E-06,0.3915,118,0.0261,-2.21561E-05,0.3915,0
0.027,1.846342E-05,0.405,119,0.027,-1.678492E-05,0.405,2
0.0279,1.007095E-05,0.4185,119,0.0279,-2.349889E-05,0.4185,1
0.0288,1.007095E-06,0.432,119,0.0288,-6.009003E-05,0.432,-1
0.0297,2.014191E-06,0.4455,120,0.0297,-2.652018E-05,0.4455,4
0.0306,-1.644922E-05,0.459,119,0.0306,-3.021286E-05,0.459,0
0.0315,-2.383459E-05,0.4725,119,0.0315,-5.136187E-05,0.4725,0
0.0324,-1.208515E-05,0.486,119,0.0324,-3.390555E-05,0.486,0
0.0333,-7.049668E-06,0.4995,120,0.0333,4.36408E-06,0.4995,-1
0.0342,-2.786297E-05,0.513,119,0.0342,-1.779202E-05,0.513,1
0.0351,-6.042573E-06,0.5265,119,0.0351,-6.143282E-05,0.5265,0
0.036,-5.706874E-06,0.54,120,0.036,-1.342794E-05,0.54,1
0.0369,-2.920577E-05,0.5535,120,0.0369,9.063859E-06,0.5535,0
0.0378,-1.007095E-05,0.567,119,0.0378,-1.846342E-05,0.567,0
0.0387,1.745632E-05,0.5805,119,0.0387,-2.719158E-05,0.5805,0
0.0396,-1.544213E-05,0.594,119,0.0396,-3.356985E-07,0.594,0
0.0405,-1.712062E-05,0.6075,119,0.0405,-1.812772E-05,0.6075,5
0.0414,-1.040665E-05,0.621,118,0.0414,-2.417029E-05,0.621,1
0.0423,2.349889E-06,0.6345,119,0.0423,-4.162661E-05,0.6345,0
0.0432,-1.107805E-05,0.648,119,0.0432,-1.644922E-05,0.648,0
0.0441,-3.994812E-05,0.6615,121,0.0441,1.309224E-05,0.6615,2
0.045,-1.376364E-05,0.675,121,0.045,-2.28275E-05,0.675,0
0.0459,-1.107805E-05,0.6885,118,0.0459,-4.565499E-05,0.6885,1
0.0468,-1.913481E-05,0.702,118,0.0468,1.342794E-06,0.702,-1
0.0477,-1.712062E-05,0.7155,119,0.0477,-5.035477E-06,0.7155,0
0.0486,-1.174945E-05,0.729,119,0.0486,-4.901198E-05,0.729,0
0.0495,-8.728161E-06,0.7425,120,0.0495,-8.056763E-06,0.7425,1
0.0504,8.392462E-06,0.756,119,0.0504,1.409934E-05,0.756,0
0.0513,-1.174945E-05,0.7695,120,0.0513,-1.107805E-05,0.7695,0
0.0522,-5.706874E-06,0.783,120,0.0522,-1.174945E-05,0.783,2
0.0531,4.36408E-06,0.7965,120,0.0531,1.040665E-05,0.7965,-2
0.054,-7.049668E-06,0.81,120,0.054,-4.028382E-06,0.81,-1
0.0549,2.349889E-06,0.8235,120,0.0549,-1.980621E-05,0.8235,0
0.0558,7.049668E-06,0.837,121,0.0558,-4.229801E-05,0.837,0
0.0567,1.879912E-05,0.8505,120,0.0567,-2.014191E-05,0.8505,2
0.0576,-3.356985E-07,0.864,120,0.0576,-2.887007E-05,0.864,0
0.0585,1.007095E-06,0.8775,120,0.0585,-4.129091E-05,0.8775,0
0.0594,2.383459E-05,0.891,119,0.0594,-4.33051E-05,0.891,0
0.0603,-1.577783E-05,0.9045,119,0.0603,1.678492E-06,0.9045,-1
0.0612,-1.980621E-05,0.918,120,0.0612,-2.014191E-05,0.918,0
0.0621,1.208515E-05,0.9315,119,0.0621,-4.867628E-05,0.9315,0
0.063,-2.517739E-05,0.945,118,0.063,7.049668E-06,0.945,0
0.0639,-8.392462E-06,0.9585,122,0.0639,2.719158E-05,0.9585,-1
0.0648,2.014191E-05,0.972,119,0.0648,-2.450599E-05,0.972,-1
0.0657,3.289845E-05,0.9855,119,0.0657,-2.987716E-05,0.9855,1
0.0666,-1.141375E-05,0.999,120,0.0666,-3.356985E-07,0.999,0
0.0675,-1.779202E-05,1.0125,120,0.0675,-1.376364E-05,1.0125,-1
0.0684,-4.699779E-06,1.026,121,0.0684,-1.007095E-05,1.026,0
0.0693,-3.356985E-07,1.0395,121,0.0693,-4.095522E-05,1.0395,0
0.0702,-3.692683E-06,1.053,120,0.0702,-1.947051E-05,1.053,0
0.0711,9.063859E-06,1.0665,120,0.0711,1.309224E-05,1.0665,0
0.072,-7.385367E-06,1.08,121,0.072,-1.644922E-05,1.08,-1
0.0729,3.021286E-06,1.0935,119,0.0729,-3.726253E-05,1.0935,0
0.07380001,1.409934E-05,1.107,121,0.07380001,9.063859E-06,1.107,0
0.07470001,-7.721065E-06,1.1205,119,0.07470001,1.342794E-06,1.1205,0
0.0756,-3.021286E-06,1.134,119,0.0756,-4.766919E-05,1.134,0
0.0765,1.007095E-06,1.1475,120,0.0765,-1.275654E-05,1.1475,2
0.0774,-1.376364E-05,1.161,121,0.0774,-4.699779E-06,1.161,2
0.0783,-1.913481E-05,1.1745,121,0.0783,-4.028382E-05,1.1745,0
0.0792,-4.766919E-05,1.188,121,0.0792,-3.256275E-05,1.188,2
0.0801,-4.934768E-05,1.2015,119,0.0801,6.713969E-06,1.2015,0
0.081,-5.270466E-05,1.215,121,0.081,-1.208515E-05,1.215,2
0.0819,-4.666209E-05,1.2285,121,0.0819,-3.390555E-05,1.2285,1
0.0828,5.706874E-06,1.242,121,0.0828,-4.599069E-05,1.242,0
0.0837,8.392462E-06,1.2555,121,0.0837,-1.275654E-05,1.2555,0
0.0846,-1.980621E-05,1.269,120,0.0846,-6.378271E-06,1.269,1
0.0855,-2.047761E-05,1.2825,120,0.0855,-4.934768E-05,1.2825,3
0.0864,-3.356985E-07,1.296,120,0.0864,-4.834058E-05,1.296,0
0.0873,-2.18204E-05,1.3095,121,0.0873,1.107805E-05,1.3095,0
0.0882,-5.706874E-06,1.323,120,0.0882,-1.577783E-05,1.323,-2
0.0891,6.042573E-06,1.3365,122,0.0891,-6.51255E-05,1.3365,0
0.09,-3.356985E-06,1.35,120,0.09,-3.692683E-06,1.35,0
0.0909,3.189136E-05,1.3635,120,0.0909,2.316319E-05,1.3635,0
0.0918,1.342794E-06,1.377,121,0.0918,-1.376364E-05,1.377,2
0.0927,2.618448E-05,1.3905,122,0.0927,-1.477073E-05,1.3905,2
0.0936,9.063859E-06,1.404,121,0.0936,-3.021286E-06,1.404,2
0.09450001,1.812772E-05,1.4175,120,0.09450001,-1.745632E-05,1.4175,3
0.09540001,1.443504E-05,1.431,121,0.09540001,-2.551309E-05,1.431,0
0.09630001,-1.376364E-05,1.4445,120,0.09630001,-4.263371E-05,1.4445,0
0.0972,-1.007095E-06,1.458,120,0.0972,-1.712062E-05,1.458,0
0.0981,-3.356985E-06,1.4715,121,0.0981,3.692683E-06,1.4715,-1
0.099,-1.040665E-05,1.485,120,0.099,-1.980621E-05,1.485,3
0.0999,7.385367E-06,1.4985,121,0.0999,-4.095522E-05,1.4985,2
0.1008,-2.18204E-05,1.512,122,0.1008,2.349889E-06,1.512,0
0.1017,-2.18204E-05,1.5255,121,0.1017,-1.309224E-05,1.5255,-3
0.1026,1.947051E-05,1.539,122,0.1026,-5.539025E-05,1.539,0
0.1035,3.356985E-07,1.5525,121,0.1035,-9.735256E-06,1.5525,0
0.1044,-2.920577E-05,1.566,121,0.1044,2.1149E-05,1.566,2
0.1053,-2.584878E-05,1.5795,121,0.1053,-3.457694E-05,1.5795,0
0.1062,-1.242084E-05,1.593,122,0.1062,-3.860533E-05,1.593,1
0.1071,-5.471885E-05,1.6065,122,0.1071,-1.007095E-06,1.6065,0
0.108,-3.591974E-05,1.62,121,0.108,-1.678492E-05,1.62,3
0.1089,-3.021286E-06,1.6335,120,0.1089,-2.719158E-05,1.6335,2
0.1098,-8.392462E-06,1.647,122,0.1098,-4.666209E-05,1.647,0
0.1107,-4.028382E-06,1.6605,121,0.1107,-1.040665E-05,1.6605,-1
0.1116,-9.735256E-06,1.674,121,0.1116,1.980621E-05,1.674,2
0.1125,-2.484169E-05,1.6875,121,0.1125,-2.819867E-05,1.6875,1
0.1134,-1.779202E-05,1.701,122,0.1134,-4.632639E-05,1.701,1
0.1143,-1.846342E-05,1.7145,123,0.1143,1.477073E-05,1.7145,2
0.1152,-1.376364E-05,1.728,121,0.1152,-2.685588E-06,1.728,0
0.1161,1.007095E-06,1.7415,122,0.1161,-3.591974E-05,1.7415,2
0.117,-2.584878E-05,1.755,122,0.117,-1.040665E-05,1.755,0
0.1179,1.544213E-05,1.7685,123,0.1179,-4.699779E-06,1.7685,3
0.1188,-3.692683E-06,1.782,122,0.1188,-5.438316E-05,1.782,1
0.1197,-5.706874E-06,1.7955,121,0.1197,-1.242084E-05,1.7955,3
0.1206,-7.721065E-06,1.809,122,0.1206,1.980621E-05,1.809,1
0.1215,-3.356985E-07,1.8225,120,0.1215,-7.049668E-06,1.8225,0
0.1224,6.042573E-06,1.836,123,0.1224,-1.342794E-05,1.836,1
0.1233,1.846342E-05,1.8495,122,0.1233,-2.652018E-05,1.8495,3
0.1242,1.275654E-05,1.863,122,0.1242,-2.517739E-05,1.863,3
0.1251,-6.378271E-06,1.8765,122,0.1251,-1.644922E-05,1.8765,2
0.126,-5.035477E-06,1.89,123,0.126,-2.652018E-05,1.89,0
0.1269,-1.510643E-05,1.9035,123,0.1269,-4.39765E-05,1.9035,2
0.1278,-2.584878E-05,1.917,122,0.1278,6.042573E-06,1.917,-2
0.1287,-1.309224E-05,1.9305,123,0.1287,-8.392462E-06,1.9305,-1
0.1296,1.309224E-05,1.944,121,0.1296,-6.076142E-05,1.944,0
0.1305,-7.385367E-06,1.9575,122,0.1305,-1.409934E-05,1.9575,0
0.1314,0,1.971,122,0.1314,-2.685588E-06,1.971,0
0.1323,3.021286E-06,1.9845,121,0.1323,-3.692683E-05,1.9845,1
0.1332,-7.049668E-06,1.998,122,0.1332,-4.968337E-05,1.998,1
0.1341,-1.242084E-05,2.0115,121,0.1341,-3.356985E-06,2.0115,0
0.135,6.713969E-07,2.025,122,0.135,-6.713969E-07,2.025,1
0.1359,-5.706874E-06,2.0385,121,0.1359,-1.812772E-05,2.0385,0
0.1368,7.721065E-06,2.052,122,0.1368,-4.46479E-05,2.052,1
0.1377,3.726253E-05,2.0655,122,0.1377,-1.242084E-05,2.0655,-1
0.1386,-3.021286E-06,2.079,121,0.1386,-3.021286E-06,2.079,4
0.1395,-1.644922E-05,2.0925,120,0.1395,-3.692683E-05,2.0925,3
0.1404,9.735256E-06,2.106,122,0.1404,-4.095522E-05,2.106,0
0.1413,-4.028382E-06,2.1195,121,0.1413,-1.007095E-06,2.1195,0
0.1422,-7.721065E-06,2.133,122,0.1422,-1.846342E-05,2.133,-3
0.1431,1.141375E-05,2.1465,120,0.1431,-5.404745E-05,2.1465,0
0.144,5.706874E-06,2.16,121,0.144,1.678492E-05,2.16,-1
0.1449,-1.107805E-05,2.1735,121,0.1449,2.719158E-05,2.1735,-1
0.1458,-1.644922E-05,2.187,121,0.1458,-2.383459E-05,2.187,0
0.1467,-4.028382E-06,2.2005,120,0.1467,-1.174945E-05,2.2005,-1
0.1476,-2.887007E-05,2.214,121,0.1476,1.208515E-05,2.214,0
0.1485,-2.383459E-05,2.2275,121,0.1485,-7.721065E-06,2.2275,0
0.1494,3.692683E-06,2.241,121,0.1494,-1.712062E-05,2.241,0
0.1503,-2.349889E-06,2.2545,122,0.1503,-4.33051E-05,2.2545,-1
0.1512,-5.706874E-06,2.268,120,0.1512,-2.349889E-05,2.268,2
0.1521,1.040665E-05,2.2815,120,0.1521,2.014191E-06,2.2815,0
0.153,7.049668E-06,2.295,121,0.153,-2.719158E-05,2.295,0
0.1539,-2.24918E-05,2.3085,122,0.1539,-4.129091E-05,2.3085,0
0.1548,-2.21561E-05,2.322,122,0.1548,1.007095E-06,2.322,0
0.1557,3.021286E-06,2.3355,121,0.1557,-1.443504E-05,2.3355,0
0.1566,1.107805E-05,2.349,122,0.1566,-5.673304E-05,2.349,0
0.1575,7.721065E-06,2.3625,121,0.1575,-2.24918E-05,2.3625,-1
0.1584,2.18204E-05,2.376,120,0.1584,-5.706874E-06,2.376,1
0.1593,1.174945E-05,2.3895,121,0.1593,-4.162661E-05,2.3895,2
0.1602,6.713969E-07,2.403,121,0.1602,-5.001907E-05,2.403,1
0.1611,-5.035477E-06,2.4165,120,0.1611,-9.063859E-06,2.4165,0
0.162,-2.719158E-05,2.43,122,0.162,-1.913481E-05,2.43,0
0.1629,-2.752728E-05,2.4435,122,0.1629,-2.484169E-05,2.4435,0
0.1638,-1.174945E-05,2.457,121,0.1638,-4.800488E-05,2.457,0
0.1647,9.735256E-06,2.4705,120,0.1647,-2.450599E-05,2.4705,0
0.1656,-5.706874E-06,2.484,121,0.1656,5.706874E-06,2.484,1
0.1665,-3.021286E-06,2.4975,120,0.1665,-1.712062E-05,2.4975,0
0.1674,6.713969E-06,2.511,121,0.1674,-3.659113E-05,2.511,0
0.1683,-1.409934E-05,2.5245,121,0.1683,2.417029E-05,2.5245,2
0.1692,-2.819867E-05,2.538,120,0.1692,-2.349889E-06,2.538,0
0.1701,-1.913481E-05,2.5515,120,0.1701,-4.867628E-05,2.5515,0
0.171,-4.901198E-05,2.565,120,0.171,4.36408E-06,2.565,2
0.1719,-4.39765E-05,2.5785,122,0.1719,-3.356985E-07,2.5785,0
0.1728,-1.678492E-05,2.592,120,0.1728,-4.33051E-05,2.592,1
0.1737,-3.390555E-05,2.6055,120,0.1737,-3.054856E-05,2.6055,1
0.1746,-4.599069E-05,2.619,120,0.1746,0,2.619,0
0.1755,-8.392462E-06,2.6325,122,0.1755,-9.399558E-06,2.6325,0
0.1764,-1.678492E-06,2.646,121,0.1764,-4.699779E-06,2.646,0
0.1773,-1.712062E-05,2.6595,122,0.1773,-4.33051E-05,2.6595,0
0.1782,-2.685588E-06,2.673,120,0.1782,-1.745632E-05,2.673,0
0.1791,-5.706874E-06,2.6865,121,0.1791,-9.063859E-06,2.6865,3
0.18,-8.392462E-06,2.7,121,0.18,-1.510643E-05,2.7,0
0.1809,-1.007095E-05,2.7135,120,0.1809,-4.061952E-05,2.7135,1
0.1818,-1.745632E-05,2.727,121,0.1818,-6.713969E-07,2.727,0
0.1827,-2.618448E-05,2.7405,121,0.1827,-2.014191E-06,2.7405,0
0.1836,-9.063859E-06,2.754,121,0.1836,-3.524834E-05,2.754,2
0.1845,-8.392462E-06,2.7675,122,0.1845,-3.021286E-06,2.7675,0
0.1854,1.712062E-05,2.781,122,0.1854,1.611353E-05,2.781,0
0.1863,2.920577E-05,2.7945,120,0.1863,-2.18204E-05,2.7945,-1
0.1872,2.1149E-05,2.808,121,0.1872,-8.056763E-06,2.808,5
0.1881,1.309224E-05,2.8215,120,0.1881,1.980621E-05,2.8215,3
0.189,-5.371176E-06,2.835,121,0.189,-1.107805E-05,2.835,0
0.1899,5.706874E-06,2.8485,121,0.1899,-1.510643E-05,2.8485,-1
0.1908,3.356985E-06,2.862,120,0.1908,-3.860533E-05,2.862,2
0.1917,-5.706874E-06,2.8755,122,0.1917,-2.1149E-05,2.8755,1
0.1926,1.007095E-06,2.889,122,0.1926,-8.728161E-06,2.889,1
0.1935,-6.713969E-06,2.9025,121,0.1935,-3.860533E-05,2.9025,0
0.1944,-1.678492E-06,2.916,122,0.1944,-4.229801E-05,2.916,0
0.1953,-1.007095E-06,2.9295,121,0.1953,2.685588E-06,2.9295,1
0.1962,2.349889E-06,2.943,121,0.1962,-2.719158E-05,2.943,4
0.1971,-1.007095E-05,2.9565,123,0.1971,-6.74754E-05,2.9565,0
0.198,-1.678492E-05,2.97,121,0.198,-1.577783E-05,2.97,0
0.1989,-3.155566E-05,2.9835,122,0.1989,-1.107805E-05,2.9835,0
0.1998,-3.457694E-05,2.997,121,0.1998,-4.263371E-05,2.997,0
0.2007,-4.129091E-05,3.0105,120,0.2007,-3.927672E-05,3.0105,2
0.2016,-4.129091E-05,3.024,122,0.2016,-2.383459E-05,3.024,0
0.2025,-2.081331E-05,3.0375,122,0.2025,-2.786297E-05,3.0375,1
0.2034,-1.913481E-05,3.051,122,0.2034,-2.551309E-05,3.051,0
0.2043,-6.713969E-07,3.0645,120,0.2043,-4.46479E-05,3.0645,0
0.2052,1.040665E-05,3.078,0,0.2052,-2.316319E-05,3.078,0
0.2061,7.049668E-06,3.0915,0,0.2061,3.021286E-06,3.0915,0
0.207,-2.014191E-06,3.105,0,0.207,-2.920577E-05,3.105,0
0.2079,2.719158E-05,3.1185,0,0.2079,-4.196231E-05,3.1185,0
0.2088,-1.376364E-05,3.132,0,0.2088,4.36408E-06,3.132,0
0.2097,-2.786297E-05,3.1455,0,0.2097,-6.378271E-06,3.1455,0
0.2106,7.721065E-06,3.159,0,0.2106,-4.39765E-05,3.159,0
0.2115,-6.042573E-06,3.1725,0,0.2115,-8.392462E-06,3.1725,0
0.2124,-7.049668E-06,3.186,0,0.2124,2.28275E-05,3.186,0
0.2133,1.007095E-06,3.1995,0,0.2133,-3.390555E-05,3.1995,0
0.2142,-3.256275E-05,3.213,0,0.2142,-6.378271E-06,3.213,0
0.2151,-5.304036E-05,3.2265,0,0.2151,7.721065E-06,3.2265,0
0.216,-2.719158E-05,3.24,0,0.216,5.035477E-06,3.24,0
0.2169,6.378271E-06,3.2535,0,0.2169,6.713969E-07,3.2535,0
0.2178,-2.819867E-05,3.267,0,0.2178,-3.860533E-05,3.267,0
0.2187,-7.049668E-06,3.2805,0,0.2187,-1.879912E-05,3.2805,0
0.2196,-2.014191E-06,3.294,0,0.2196,-6.378271E-06,3.294,0
0.2205,-2.081331E-05,3.3075,0,0.2205,-3.256275E-05,3.3075,0
0.2214,-5.706874E-06,3.321,0,0.2214,-4.095522E-05,3.321,0
0.2223,-1.107805E-05,3.3345,0,0.2223,3.692683E-06,3.3345,0
0.2232,0,3.348,0,0.2232,-6.378271E-06,3.348,0
0.2241,1.846342E-05,3.3615,0,0.2241,-4.196231E-05,3.3615,0
0.225,2.349889E-06,3.375,0,0.225,0,3.375,0
0.2259,2.1149E-05,3.3885,0,0.2259,7.721065E-06,3.3885,0
0.2268,-7.721065E-06,3.402,0,0.2268,-3.860533E-05,3.402,0
0.2277,-7.385367E-06,3.4155,0,0.2277,-3.256275E-05,3.4155,0
0.2286,-7.049668E-06,3.429,0,0.2286,-2.685588E-06,3.429,0
0.2295,-2.383459E-05,3.4425,0,0.2295,-1.846342E-05,3.4425,0
0.2304,-7.049668E-06,3.456,0,0.2304,-1.544213E-05,3.456,0
0.2313,1.141375E-05,3.4695,0,0.2313,-3.390555E-05,3.4695,0
0.2322,7.385367E-06,3.483,0,0.2322,-1.980621E-05,3.483,0
0.2331,-3.021286E-06,3.4965,0,0.2331,1.477073E-05,3.4965,0
0.234,-5.706874E-06,3.51,0,0.234,-4.36408E-06,3.51,0
0.2349,-9.063859E-06,3.5235,0,0.2349,-3.222705E-05,3.5235,0
0.2358,-1.107805E-05,3.537,0,0.2358,2.081331E-05,3.537,0
0.2367,4.36408E-06,3.5505,0,0.2367,-4.699779E-06,3.5505,0
0.2376,2.652018E-05,3.564,0,0.2376,-6.277562E-05,3.564,0
0.2385,-3.356985E-07,3.5775,0,0.2385,-1.107805E-05,3.5775,0
0.2394,1.040665E-05,3.591,0,0.2394,-7.721065E-06,3.591,0
0.2403,1.007095E-06,3.6045,0,0.2403,-5.606165E-05,3.6045,0
0.2412,3.054856E-05,3.618,0,0.2412,-1.913481E-05,3.618,0
0.2421,1.980621E-05,3.6315,0,0.2421,3.356985E-06,3.6315,0
0.243,8.728161E-06,3.645,0,0.243,6.713969E-07,3.645,0
0.2439,-7.721065E-06,3.6585,0,0.2439,-1.644922E-05,3.6585,0
0.2448,-3.356985E-07,3.672,0,0.2448,-4.36408E-05,3.672,0
0.2457,0,3.6855,0,0.2457,-2.316319E-05,3.6855,0
0.2466,-2.18204E-05,3.699,0,0.2466,-1.510643E-05,3.699,0
0.2475,-1.141375E-05,3.7125,0,0.2475,-3.390555E-05,3.7125,0
0.2484,9.063859E-06,3.726,0,0.2484,-4.196231E-05,3.726,0
0.2493,-1.577783E-05,3.7395,0,0.2493,-7.385367E-06,3.7395,0
0.2502,-2.316319E-05,3.753,0,0.2502,-1.577783E-05,3.753,0
0.2511,-7.049668E-06,3.7665,0,0.2511,-5.203327E-05,3.7665,0
0.252,-1.409934E-05,3.78,0,0.252,-6.713969E-07,3.78,0
0.2529,-3.323415E-05,3.7935,0,0.2529,-1.510643E-05,3.7935,0
0.2538,-1.980621E-05,3.807,0,0.2538,-5.404745E-05,3.807,0
0.2547,-1.141375E-05,3.8205,0,0.2547,-2.987716E-05,3.8205,0
0.2556,-2.853437E-05,3.834,0,0.2556,-5.706874E-06,3.834,0
0.2565,-3.021286E-06,3.8475,0,0.2565,-2.014191E-05,3.8475,0
0.2574,-3.021286E-06,3.861,0,0.2574,-2.047761E-05,3.861,0
0.2583,-6.042573E-06,3.8745,0,0.2583,-4.196231E-05,3.8745,0
0.2592,-1.174945E-05,3.888,0,0.2592,-1.174945E-05,3.888,0
0.2601,-6.243992E-05,3.9015,0,0.2601,2.987716E-05,3.9015,0
0.261,-4.632639E-05,3.915,0,0.261,-2.14847E-05,3.915,0
0.2619,-3.524834E-05,3.9285,0,0.2619,-4.196231E-05,3.9285,0
0.2628,-1.745632E-05,3.942,0,0.2628,-3.692683E-06,3.942,0
0.2637,6.378271E-06,3.9555,0,0.2637,3.356985E-07,3.9555,0
0.2646,1.913481E-05,3.969,0,0.2646,-4.196231E-05,3.969,0
0.2655,1.208515E-05,3.9825,0,0.2655,-1.040665E-05,3.9825,0
0.2664,1.208515E-05,3.996,0,0.2664,-1.846342E-05,3.996,0
0.2673,3.323415E-05,4.0095,0,0.2673,-5.807584E-05,4.0095,0
0.2682,2.517739E-05,4.023,0,0.2682,-4.196231E-05,4.023,0
0.2691,4.699779E-06,4.0365,0,0.2691,-4.36408E-06,4.0365,0
0.27,-6.378271E-06,4.05,0,0.27,-1.477073E-05,4.05,0
0.2709,3.356985E-07,4.0635,0,0.2709,-2.081331E-05,4.0635,0
0.2718,2.349889E-06,4.077,0,0.2718,-2.316319E-05,4.077,0
0.2727,4.028382E-06,4.0905,0,0.2727,1.678492E-06,4.0905,0
0.2736,-5.706874E-05,4.104,0,0.2736,0,4.104,0
0.2745,-4.095522E-05,4.1175,0,0.2745,-3.323415E-05,4.1175,0
0.2754,-1.309224E-05,4.131,0,0.2754,-5.203327E-05,4.131,0
0.2763,-2.24918E-05,4.1445,0,0.2763,-1.007095E-06,4.1445,0
0.2772,-7.385367E-06,4.158,0,0.2772,-1.812772E-05,4.158,0
0.2781,2.349889E-06,4.1715,0,0.2781,-5.438316E-05,4.1715,0
0.279,-2.752728E-05,4.185,0,0.279,4.699779E-06,4.185,0
0.2799,-6.042573E-06,4.1985,0,0.2799,2.047761E-05,4.1985,0
0.2808,1.107805E-05,4.212,0,0.2808,-2.484169E-05,4.212,0
0.2817,9.063859E-06,4.2255,0,0.2817,-3.558404E-05,4.2255,0
0.2826,-1.107805E-05,4.239,0,0.2826,2.014191E-06,4.239,0
0.2835,1.644922E-05,4.2525,0,0.2835,-1.409934E-05,4.2525,0
0.2844,-3.021286E-06,4.266,0,0.2844,-1.477073E-05,4.266,0
0.2853,7.049668E-06,4.2795,0,0.2853,-3.793393E-05,4.2795,0
0.2862,2.786297E-05,4.293,0,0.2862,-3.021286E-06,4.293,0
0.2871,-2.014191E-06,4.3065,0,0.2871,9.063859E-06,4.3065,0
0.288,-1.107805E-05,4.32,0,0.288,-2.987716E-05,4.32,0
0.2889,-1.007095E-06,4.3335,0,0.2889,-4.800488E-05,4.3335,0
0.2898,-1.342794E-05,4.347,0,0.2898,-4.699779E-06,4.347,0
0.2907,-3.793393E-05,4.3605,0,0.2907,-3.692683E-06,4.3605,0
0.2916,-7.049668E-06,4.374,0,0.2916,-5.102617E-05,4.374,0
0.2925,-7.721065E-06,4.3875,0,0.2925,-6.378271E-06,4.3875,0
0.2934,-1.779202E-05,4.401,0,0.2934,1.040665E-05,4.401,0
0.2943,-1.779202E-05,4.4145,0,0.2943,-4.53193E-05,4.4145,0
0.2952,-2.887007E-05,4.428,0,0.2952,-2.383459E-05,4.428,0
0.2961,-2.450599E-05,4.4415,0,0.2961,9.735256E-06,4.4415,0
0.297,-3.457694E-05,4.455,0,0.297,-6.042573E-06,4.455,0
0.2979,-1.275654E-05,4.4685,0,0.2979,-9.735256E-06,4.4685,0
0.2988,-3.356985E-07,4.482,0,0.2988,-2.920577E-05,4.482,0
0.2997,1.174945E-05,4.4955,0,0.2997,7.721065E-06,4.4955,0
0.3006,3.189136E-05,4.509,0,0.3006,5.035477E-06,4.509,0
0.3015,1.242084E-05,4.5225,0,0.3015,-4.196231E-05,4.5225,0
0.3024,2.1149E-05,4.536,0,0.3024,-4.934768E-05,4.536,0
0.3033,1.208515E-05,4.5495,0,0.3033,3.692683E-06,4.5495,0
0.3042,-1.208515E-05,4.563,0,0.3042,-1.644922E-05,4.563,0
0.3051,-1.678492E-06,4.5765,0,0.3051,-6.51255E-05,4.5765,0
0.306,-1.644922E-05,4.59,0,0.306,-8.728161E-06,4.59,0
0.3069,-3.659113E-05,4.6035,0,0.3069,9.063859E-06,4.6035,0
0.3078,-3.356985E-05,4.617,0,0.3078,-2.517739E-05,4.617,0
0.3087,-6.042573E-06,4.6305,0,0.3087,-2.887007E-05,4.6305,0
0.3096,-4.36408E-06,4.644,0,0.3096,3.356985E-07,4.644,0
0.3105,-2.349889E-05,4.6575,0,0.3105,-1.040665E-05,4.6575,0
0.3114,-1.644922E-05,4.671,0,0.3114,-1.779202E-05,4.671,0
0.3123,-4.36408E-06,4.6845,0,0.3123,-4.129091E-05,4.6845,0
0.3132,-1.477073E-05,4.698,0,0.3132,-1.577783E-05,4.698,0
0.3141,-1.644922E-05,4.7115,0,0.3141,7.049668E-06,4.7115,0
0.315,-3.021286E-06,4.725,0,0.315,-1.779202E-05,4.725,0
0.3159,6.378271E-06,4.7385,0,0.3159,-3.524834E-05,4.7385,0
0.3168,-3.256275E-05,4.752,0,0.3168,1.477073E-05,4.752,0
0.3177,-3.256275E-05,4.7655,0,0.3177,8.392462E-06,4.7655,0
0.3186,1.947051E-05,4.779,0,0.3186,-4.061952E-05,4.779,0
0.3195,-3.356985E-07,4.7925,0,0.3195,1.376364E-05,4.7925,0
0.3204,-1.007095E-06,4.806,0,0.3204,9.735256E-06,4.806,0
0.3213,2.450599E-05,4.8195,0,0.3213,-4.39765E-05,4.8195,0
0.3222,-3.121996E-05,4.833,0,0.3222,-3.726253E-05,4.833,0
0.3231,-3.994812E-05,4.8465,0,0.3231,-4.36408E-06,4.8465,0
0.324,-2.383459E-05,4.86,0,0.324,-8.392462E-06,4.86,0
0.3249,-1.947051E-05,4.8735,0,0.3249,-3.021286E-05,4.8735,0
0.3258,-1.007095E-05,4.887,0,0.3258,-5.438316E-05,4.887,0
0.3267,-3.356985E-07,4.9005,0,0.3267,-2.517739E-05,4.9005,0
0.3276,-1.007095E-05,4.914,0,0.3276,-1.107805E-05,4.914,0
0.3285,-1.947051E-05,4.9275,0,0.3285,-4.49836E-05,4.9275,0
0.3294,-7.049668E-06,4.941,0,0.3294,-6.143282E-05,4.941,0
0.3303,3.021286E-06,4.9545,0,0.3303,-7.049668E-06,4.9545,0
0.3312,5.706874E-06,4.968,0,0.3312,-1.040665E-05,4.968,0
0.3321,2.987716E-05,4.9815,0,0.3321,-5.337606E-05,4.9815,0
0.333,1.577783E-05,4.995,0,0.333,-2.21561E-05,4.995,0
0.3339,1.376364E-05,5.0085,0,0.3339,-1.712062E-05,5.0085,0
0.3348,1.342794E-06,5.022,0,0.3348,-6.277562E-05,5.022,0
0.3357,5.706874E-06,5.0355,0,0.3357,-2.18204E-05,5.0355,0
0.3366,-3.390555E-05,5.049,0,0.3366,-3.021286E-06,5.049,0
0.3375,-2.786297E-05,5.0625,0,0.3375,-1.577783E-05,5.0625,0
0.3384,-6.042573E-06,5.076,0,0.3384,0,5.076,0
0.3393,-1.242084E-05,5.0895,0,0.3393,-2.450599E-05,5.0895,0
0.3402,1.745632E-05,5.103,0,0.3402,-1.242084E-05,5.103,0
0.3411,3.289845E-05,5.1165,0,0.3411,-8.392462E-06,5.1165,0
0.342,2.316319E-05,5.13,0,0.342,-2.14847E-05,5.13,0
0.3429,2.652018E-05,5.1435,0,0.3429,-3.659113E-05,5.1435,0
0.3438,9.399558E-06,5.157,0,0.3438,5.035477E-06,5.157,0
0.3447,9.399558E-06,5.1705,0,0.3447,-1.242084E-05,5.1705,0
0.3456,1.174945E-05,5.184,0,0.3456,-5.337606E-05,5.184,0
0.3465,-4.699779E-06,5.1975,0,0.3465,-7.049668E-06,5.1975,0
0.3474,1.947051E-05,5.211,0,0.3474,9.735256E-06,5.211,0
0.3483,-3.021286E-06,5.2245,0,0.3483,-3.088426E-05,5.2245,0
0.3492,-1.779202E-05,5.238,0,0.3492,-2.987716E-05,5.238,0
0.3501,-1.141375E-05,5.2515,0,0.3501,9.735256E-06,5.2515,0
0.351,-1.309224E-05,5.265,0,0.351,2.349889E-06,5.265,0
0.3519,-2.18204E-05,5.2785,0,0.3519,-1.712062E-05,5.2785,0
0.3528,-1.577783E-05,5.292,0,0.3528,-3.054856E-05,5.292,0
0.3537,-2.24918E-05,5.3055,0,0.3537,-4.36408E-06,5.3055,0
0.3546,-3.524834E-05,5.319,0,0.3546,-1.678492E-06,5.319,0
0.3555,-2.21561E-05,5.3325,0,0.3555,-2.618448E-05,5.3325,0
0.3564,7.721065E-06,5.346,0,0.3564,-3.961242E-05,5.346,0
0.3573,-2.014191E-05,5.3595,0,0.3573,-1.040665E-05,5.3595,0
0.3582,-1.644922E-05,5.373,0,0.3582,-1.779202E-05,5.373,0
0.3591,6.378271E-06,5.3865,0,0.3591,-5.975433E-05,5.3865,0
0.36,-1.275654E-05,5.4,0,0.36,-3.021286E-06,5.4,0
0.3609,-3.390555E-05,5.4135,0,0.3609,-2.349889E-06,5.4135,0
0.3618,-2.853437E-05,5.427,0,0.3618,-4.565499E-05,5.427,0
0.3627,1.342794E-06,5.4405,0,0.3627,-4.028382E-06,5.4405,0
0.3636,-1.745632E-05,5.454,0,0.3636,9.063859E-06,5.454,0
0.3645,-7.385367E-06,5.4675,0,0.3645,-8.056763E-06,5.4675,0
0.3654,-1.141375E-05,5.481,0,0.3654,-2.450599E-05,5.481,0
0.3663,-1.242084E-05,5.4945,0,0.3663,-4.666209E-05,5.4945,0
0.3672,-2.484169E-05,5.508,0,0.3672,-2.21561E-05,5.508,0
0.3681,-2.484169E-05,5.5215,0,0.3681,-1.342794E-06,5.5215,0
0.369,-2.652018E-05,5.535,0,0.369,-4.33051E-05,5.535,0
0.3699,-1.779202E-05,5.5485,0,0.3699,-4.733349E-05,5.5485,0
0.3708,-1.846342E-05,5.562,0,0.3708,2.014191E-06,5.562,0
0.3717,-2.786297E-05,5.5755,0,0.3717,-1.309224E-05,5.5755,0
0.3726,-2.719158E-05,5.589,0,0.3726,-5.539025E-05,5.589,0
0.3735,-1.409934E-05,5.6025,0,0.3735,3.692683E-06,5.6025,0
0.3744,1.007095E-05,5.616,0,0.3744,1.141375E-05,5.616,0
0.3753,-2.349889E-06,5.6295,0,0.3753,-4.666209E-05,5.6295,0
0.3762,2.047761E-05,5.643,0,0.3762,-9.399558E-06,5.643,0
0.3771,2.685588E-06,5.6565,0,0.3771,1.846342E-05,5.6565,0
0.378,-5.035477E-06,5.67,0,0.378,4.699779E-06,5.67,0
0.3789,-1.040665E-05,5.6835,0,0.3789,-1.242084E-05,5.6835,0
0.3798,-4.36408E-06,5.697,0,0.3798,-3.994812E-05,5.697,0
0.3807,1.376364E-05,5.7105,0,0.3807,-1.947051E-05,5.7105,0
0.3816,-3.021286E-06,5.724,0,0.3816,-5.706874E-06,5.724,0
0.3825,-7.721065E-06,5.7375,0,0.3825,-2.18204E-05,5.7375,0
0.3834,3.356985E-07,5.751,0,0.3834,-3.726253E-05,5.751,0
0.3843,-2.014191E-06,5.7645,0,0.3843,1.678492E-06,5.7645,0
0.3852,1.007095E-05,5.778,0,0.3852,-1.577783E-05,5.778,0
0.3861,1.577783E-05,5.7915,0,0.3861,-5.740444E-05,5.7915,0
0.387,0,5.805,0,0.387,-4.36408E-06,5.805,0
0.3879,1.879912E-05,5.8185,0,0.3879,2.517739E-05,5.8185,0
0.3888,8.392462E-06,5.832,0,0.3888,-1.477073E-05,5.832,0
0.3897,-1.712062E-05,5.8455,0,0.3897,-9.735256E-06,5.8455,0
0.3906,-2.18204E-05,5.859,0,0.3906,1.107805E-05,5.859,0
0.3915,1.040665E-05,5.8725,0,0.3915,-5.706874E-06,5.8725,0
0.3924,-9.735256E-06,5.886,0,0.3924,-1.007095E-05,5.886,0
0.3933,-5.706874E-06,5.8995,0,0.3933,-4.867628E-05,5.8995,0
0.3942,2.819867E-05,5.913,0,0.3942,-2.014191E-05,5.913,0
0.3951,-7.049668E-06,5.9265,0,0.3951,-1.712062E-05,5.9265,0
0.396,-2.584878E-05,5.94,0,0.396,-5.203327E-05,5.94,0
0.3969,-8.392462E-06,5.9535,0,0.3969,-6.411841E-05,5.9535,0
0.3978,-1.443504E-05,5.967,0,0.3978,-1.644922E-05,5.967,0
0.3987,-1.980621E-05,5.9805,0,0.3987,-5.035477E-06,5.9805,0
0.3996,8.056763E-06,5.994,0,0.3996,-5.941863E-05,5.994,0
0.4005,-3.356985E-07,6.0075,0,0.4005,-1.040665E-05,6.0075,0
0.4014,1.644922E-05,6.021,0,0.4014,1.376364E-05,6.021,0
0.4023,2.1149E-05,6.0345,0,0.4023,-3.927672E-05,6.0345,0
0.4032,1.309224E-05,6.048,0,0.4032,-1.342794E-05,6.048,0
0.4041,-2.987716E-05,6.0615,0,0.4041,2.450599E-05,6.0615,0
0.405,-2.719158E-05,6.075,0,0.405,-1.779202E-05,6.075,0
0.4059,-9.735256E-06,6.0885,0,0.4059,-2.584878E-05,6.0885,0
0.4068,2.349889E-06,6.102,0,0.4068,-4.263371E-05,6.102,0
0.4077,-5.035477E-06,6.1155,0,0.4077,-1.443504E-05,6.1155,0
0.4086,-5.371176E-06,6.129,0,0.4086,-1.947051E-05,6.129,0
0.4095,-4.699779E-06,6.1425,0,0.4095,-4.33051E-05,6.1425,0
0.4104,3.692683E-06,6.156,0,0.4104,-4.162661E-05,6.156,0
0.4113,4.699779E-06,6.1695,0,0.4113,5.035477E-06,6.1695,0
0.4122,-3.021286E-05,6.183,0,0.4122,-2.450599E-05,6.183,0
0.4131,-7.385367E-06,6.1965,0,0.4131,-6.042573E-05,6.1965,0
0.414,-6.378271E-06,6.21,0,0.414,-1.040665E-05,6.21,0
0.4149,-1.107805E-05,6.2235,0,0.4149,5.706874E-06,6.2235,0
0.4158,-1.947051E-05,6.237,0,0.4158,-2.28275E-05,6.237,0
0.4167,-2.719158E-05,6.2505,0,0.4167,-3.390555E-05,6.2505,0
0.4176,-2.417029E-05,6.264,0,0.4176,2.349889E-06,6.264,0
0.4185,-2.618448E-05,6.2775,0,0.4185,-5.371176E-06,6.2775,0
0.4194,-1.174945E-05,6.291,0,0.4194,-2.014191E-05,6.291,0
0.4203,-3.356985E-07,6.3045,0,0.4203,-2.920577E-05,6.3045,0
0.4212,-2.517739E-05,6.318,0,0.4212,-4.699779E-06,6.318,0
0.4221,-2.786297E-05,6.3315,0,0.4221,3.256275E-05,6.3315,0
0.423,-6.713969E-06,6.345,0,0.423,5.035477E-06,6.345,0
0.4239,-8.392462E-06,6.3585,0,0.4239,-3.793393E-05,6.3585,0
0.4248,-1.644922E-05,6.372,0,0.4248,6.042573E-06,6.372,0
0.4257,-1.376364E-05,6.3855,0,0.4257,-2.014191E-05,6.3855,0
0.4266,1.040665E-05,6.399,0,0.4266,-7.653925E-05,6.399,0
0.4275,-1.174945E-05,6.4125,0,0.4275,-7.721065E-06,6.4125,0
0.4284,-3.289845E-05,6.426,0,0.4284,-4.028382E-06,6.426,0
0.4293,-2.517739E-05,6.4395,0,0.4293,-5.001907E-05,6.4395,0
0.4302,-3.356985E-05,6.453,0,0.4302,-3.256275E-05,6.453,0
0.4311,-3.659113E-05,6.4665,0,0.4311,-1.678492E-06,6.4665,0
0.432,-1.409934E-05,6.48,0,0.432,-5.706874E-06,6.48,0
0.4329,-1.846342E-05,6.4935,0,0.4329,-2.081331E-05,6.4935,0
0.4338,-2.450599E-05,6.507,0,0.4338,-4.196231E-05,6.507,0
0.4347,-7.049668E-06,6.5205,0,0.4347,2.349889E-06,6.5205,0
0.4356,1.712062E-05,6.534,0,0.4356,7.049668E-06,6.534,0
0.4365,1.309224E-05,6.5475,0,0.4365,-2.551309E-05,6.5475,0
0.4374,1.846342E-05,6.561,0,0.4374,-3.591974E-05,6.561,0
0.4383,1.980621E-05,6.5745,0,0.4383,4.36408E-06,6.5745,0
0.4392,-2.685588E-06,6.588,0,0.4392,-1.107805E-05,6.588,0
0.4401,4.028382E-06,6.6015,0,0.4401,-5.740444E-05,6.6015,0
0.441,2.014191E-05,6.615,0,0.441,-1.577783E-05,6.615,0
0.4419,1.947051E-05,6.6285,0,0.4419,1.913481E-05,6.6285,0
0.4428,-3.021286E-06,6.642,0,0.4428,-3.054856E-05,6.642,0
0.4437,-3.390555E-05,6.6555,0,0.4437,-1.846342E-05,6.6555,0
0.4446,-3.088426E-05,6.669,0,0.4446,9.735256E-06,6.669,0
0.4455,-1.074235E-05,6.6825,0,0.4455,-1.007095E-05,6.6825,0
0.4464,-4.699779E-06,6.696,0,0.4464,-1.980621E-05,6.696,0
0.4473,-1.275654E-05,6.7095,0,0.4473,-3.524834E-05,6.7095,0
0.4482,4.36408E-06,6.723,0,0.4482,-1.376364E-05,6.723,0
0.4491,3.155566E-05,6.7365,0,0.4491,-2.18204E-05,6.7365,0
0.45,3.189136E-05,6.75,0,0.45,-4.39765E-05,6.75,0
0.4509,1.712062E-05,6.7635,0,0.4509,-6.51255E-05,6.7635,0
0.4518,-7.049668E-06,6.777,0,0.4518,-4.36408E-06,6.777,0
0.4527,3.356985E-07,6.7905,0,0.4527,-1.443504E-05,6.7905,0
0.4536,1.577783E-05,6.804,0,0.4536,-5.941863E-05,6.804,0
0.4545,-6.042573E-06,6.8175,0,0.4545,-1.107805E-05,6.8175,0
0.4554,-5.035477E-06,6.831,0,0.4554,2.21561E-05,6.831,0
0.4563,-3.256275E-05,6.8445,0,0.4563,-2.18204E-05,6.8445,0
0.4572,-1.107805E-05,6.858,0,0.4572,-2.584878E-05,6.858,0
0.4581,-9.735256E-06,6.8715,0,0.4581,1.040665E-05,6.8715,0
0.459,-2.719158E-05,6.885,0,0.459,-5.706874E-06,6.885,0
0.4599,-2.987716E-05,6.8985,0,0.4599,-3.256275E-05,6.8985,0
0.4608,-3.356985E-07,6.912,0,0.4608,-3.826963E-05,6.912,0
0.4617,0,6.9255,0,0.4617,-1.779202E-05,6.9255,0
0.4626,-3.155566E-05,6.939,0,0.4626,-2.484169E-05,6.939,0
0.4635,-2.584878E-05,6.9525,0,0.4635,-4.196231E-05,6.9525,0
0.4644,-1.007095E-06,6.966,0,0.4644,-5.673304E-05,6.966,0
0.4653,-1.577783E-05,6.9795,0,0.4653,-1.309224E-05,6.9795,0
0.4662,-3.356985E-06,6.993,0,0.4662,-1.107805E-05,6.993,0
0.4671,8.392462E-06,7.0065,0,0.4671,-6.076142E-05,7.0065,0
0.468,-5.706874E-06,7.02,0,0.468,-1.443504E-05,7.02,0
0.4689,1.980621E-05,7.0335,0,0.4689,5.706874E-06,7.0335,0
0.4698,2.584878E-05,7.047,0,0.4698,-3.356985E-05,7.047,0
0.4707,4.36408E-06,7.0605,0,0.4707,-7.385367E-06,7.0605,0
0.4716,-1.376364E-05,7.074,0,0.4716,4.36408E-06,7.074,0
0.4725,-5.706874E-06,7.0875,0,0.4725,-1.309224E-05,7.0875,0
0.4734,-2.014191E-06,7.101,0,0.4734,-1.477073E-05,7.101,0
0.4743,-6.378271E-06,7.1145,0,0.4743,-3.591974E-05,7.1145,0
0.4752,3.356985E-06,7.128,0,0.4752,-9.399558E-06,7.128,0
0.4761,-3.692683E-06,7.1415,0,0.4761,1.242084E-05,7.1415,0
0.477,7.049668E-06,7.155,0,0.477,-2.584878E-05,7.155,0
0.4779,2.584878E-05,7.1685,0,0.4779,-3.793393E-05,7.1685,0
0.4788,1.678492E-06,7.182,0,0.4788,1.409934E-05,7.182,0
0.4797,-2.28275E-05,7.1955,0,0.4797,2.349889E-06,7.1955,0
0.4806,-5.035477E-06,7.209,0,0.4806,-5.102617E-05,7.209,0
0.4815,-1.040665E-05,7.2225,0,0.4815,5.035477E-06,7.2225,0
0.4824,-3.759823E-05,7.236,0,0.4824,3.021286E-05,7.236,0
0.4833,-1.980621E-05,7.2495,0,0.4833,-1.309224E-05,7.2495,0
0.4842,-2.383459E-05,7.263,0,0.4842,-1.812772E-05,7.263,0
0.4851,-2.484169E-05,7.2765,0,0.4851,7.721065E-06,7.2765,0
0.486,-2.081331E-05,7.29,0,0.486,-5.371176E-06,7.29,0
0.4869,-2.24918E-05,7.3035,0,0.4869,-2.047761E-05,7.3035,0
0.4878,-4.699779E-06,7.317,0,0.4878,-4.29694E-05,7.317,0
0.4887,-4.36408E-06,7.3305,0,0.4887,-1.644922E-05,7.3305,0
0.4896,-3.894102E-05,7.344,0,0.4896,9.399558E-06,7.344,0
0.4905,-2.450599E-05,7.3575,0,0.4905,-2.014191E-05,7.3575,0
0.4914,-2.786297E-05,7.371,0,0.4914,-3.759823E-05,7.371,0
0.4923,-3.558404E-05,7.3845,0,0.4923,7.049668E-06,7.3845,0
0.4932,-6.713969E-07,7.398,0,0.4932,-1.544213E-05,7.398,0
0.4941,-2.685588E-06,7.4115,0,0.4941,-5.975433E-05,7.4115,0
0.495,-1.309224E-05,7.425,0,0.495,-4.699779E-06,7.425,0
0.4959,8.392462E-06,7.4385,0,0.4959,-2.21561E-05,7.4385,0
0.4968,6.378271E-06,7.452,0,0.4968,-5.941863E-05,7.452,0
0.4977,3.457694E-05,7.4655,0,0.4977,-1.275654E-05,7.4655,0
0.4986,8.056763E-06,7.479,0,0.4986,1.007095E-06,7.479,0
0.4995,7.721065E-06,7.4925,0,0.4995,-8.728161E-06,7.4925,0
0.5004,-5.371176E-06,7.506,0,0.5004,-2.920577E-05,7.506,0
0.5013,-3.021286E-06,7.5195,0,0.5013,-5.136187E-05,7.5195,0
0.5022,9.063859E-06,7.533,0,0.5022,-3.826963E-05,7.533,0
0.5031,-2.24918E-05,7.5465,0,0.5031,-3.356985E-05,7.5465,0
0.504,-6.378271E-06,7.56,0,0.504,-4.33051E-05,7.56,0
0.5049,1.007095E-06,7.5735,0,0.5049,-4.968337E-05,7.5735,0
0.5058,-1.007095E-05,7.587,0,0.5058,7.049668E-06,7.587,0
0.5067,-3.356985E-07,7.6005,0,0.5067,-3.021286E-06,7.6005,0
0.5076,-3.356985E-07,7.614,0,0.5076,-6.344701E-05,7.614,0
0.5085,-2.484169E-05,7.6275,0,0.5085,-8.056763E-06,7.6275,0
0.5094,-3.121996E-05,7.641,0,0.5094,9.735256E-06,7.641,0
0.5103,-3.826963E-05,7.6545,0,0.5103,-3.121996E-05,7.6545,0
0.5112,-1.443504E-05,7.668,0,0.5112,-7.049668E-06,7.668,0
0.5121,-3.894102E-05,7.6815,0,0.5121,1.544213E-05,7.6815,0
0.513,-2.316319E-05,7.695,0,0.513,-7.385367E-06,7.695,0
0.5139,2.349889E-06,7.7085,0,0.5139,-8.392462E-06,7.7085,0
0.5148,-1.342794E-06,7.722,0,0.5148,-3.256275E-05,7.722,0
0.5157,-9.735256E-06,7.7355,0,0.5157,-5.706874E-06,7.7355,0
0.5166,1.242084E-05,7.749,0,0.5166,-5.706874E-06,7.749,0
0.5175,1.174945E-05,7.7625,0,0.5175,-2.786297E-05,7.7625,0
0.5184,1.678492E-05,7.776,0,0.5184,-3.659113E-05,7.776,0
0.5193,2.1149E-05,7.7895,0,0.5193,3.356985E-07,7.7895,0
0.5202,1.174945E-05,7.803,0,0.5202,-9.399558E-06,7.803,0
0.5211,1.040665E-05,7.8165,0,0.5211,-6.814679E-05,7.8165,0
0.522,-4.36408E-06,7.83,0,0.522,-1.980621E-05,7.83,0
0.5229,3.021286E-06,7.8435,0,0.5229,1.242084E-05,7.8435,0
0.5238,4.36408E-06,7.857,0,0.5238,-2.853437E-05,7.857,0
0.5247,2.349889E-06,7.8705,0,0.5247,-3.524834E-05,7.8705,0
0.5256,-1.107805E-05,7.884,0,0.5256,3.356985E-06,7.884,0
0.5265,-1.376364E-05,7.8975,0,0.5265,-5.035477E-06,7.8975,0
0.5274,3.692683E-06,7.911,0,0.5274,3.021286E-06,7.911,0
0.5283,-7.049668E-06,7.9245,0,0.5283,-4.39765E-05,7.9245,0
0.5292,-3.390555E-05,7.938,0,0.5292,-2.18204E-05,7.938,0
0.5301,-1.846342E-05,7.9515,0,0.5301,2.18204E-05,7.9515,0
0.531,-6.378271E-06,7.965,0,0.531,-1.443504E-05,7.965,0
0.5319,-5.706874E-06,7.9785,0,0.5319,-2.752728E-05,7.9785,0
0.5328,-2.786297E-05,7.992,0,0.5328,1.577783E-05,7.992,0
0.5337,-7.049668E-06,8.0055,0,0.5337,5.706874E-06,8.0055,0
0.5346,1.678492E-06,8.019,0,0.5346,-4.43122E-05,8.019,0
0.5355,-2.853437E-05,8.0325,0,0.5355,-2.014191E-06,8.0325,0
0.5364,-3.659113E-05,8.046,0,0.5364,-7.049668E-06,8.046,0
0.5373,-4.699779E-06,8.0595,0,0.5373,-5.505455E-05,8.0595,0
0.5382,1.275654E-05,8.073,0,0.5382,-4.934768E-05,8.073,0
0.5391,-1.376364E-05,8.0865,0,0.5391,-7.385367E-06,8.0865,0
0.54,1.007095E-06,8.1,0,0.54,-1.275654E-05,8.1,0
0.5409,-1.342794E-06,8.1135,0,0.5409,-2.28275E-05,8.1135,0
0.5418,-7.721065E-06,8.127,0,0.5418,-4.766919E-05,8.127,0
0.5427,-5.706874E-06,8.1405,0,0.5427,-4.36408E-06,8.1405,0
0.5436,-4.36408E-05,8.154,0,0.5436,3.021286E-06,8.154,0
0.5445,-4.196231E-05,8.1675,0,0.5445,-2.987716E-05,8.1675,0
0.5454,-1.712062E-05,8.181,0,0.5454,-4.901198E-05,8.181,0
0.5463,-1.275654E-05,8.1945,0,0.5463,-1.812772E-05,8.1945,0
0.5472,-1.510643E-05,8.208,0,0.5472,-2.450599E-05,8.208,0
0.5481,6.042573E-06,8.2215,0,0.5481,-6.411841E-05,8.2215,0
0.549,-2.349889E-06,8.235,0,0.549,-1.544213E-05,8.235,0
0.5499,1.980621E-05,8.2485,0,0.5499,6.378271E-06,8.2485,0
0.5508,3.558404E-05,8.262,0,0.5508,-2.047761E-05,8.262,0
0.5517,2.819867E-05,8.2755,0,0.5517,7.721065E-06,8.2755,0
0.5526,-2.316319E-05,8.289,0,0.5526,-1.007095E-06,8.289,0
0.5535,-4.36408E-06,8.3025,0,0.5535,-1.745632E-05,8.3025,0
0.5544,1.577783E-05,8.316,0,0.5544,-1.678492E-06,8.316,0
0.5553,-1.107805E-05,8.3295,0,0.5553,-3.793393E-05,8.3295,0
0.5562,-1.947051E-05,8.343,0,0.5562,-1.208515E-05,8.343,0
0.5571,-1.443504E-05,8.3565,0,0.5571,-1.644922E-05,8.3565,0
0.558,1.309224E-05,8.37,0,0.558,-4.43122E-05,8.37,0
0.5589,1.443504E-05,8.3835,0,0.5589,-5.169757E-05,8.3835,0
0.5598,-3.021286E-06,8.397,0,0.5598,-1.040665E-05,8.397,0
0.5607,-6.713969E-07,8.4105,0,0.5607,-3.860533E-05,8.4105,0
0.5616,3.692683E-06,8.424,0,0.5616,-5.471885E-05,8.424,0
0.5625,-5.706874E-06,8.4375,0,0.5625,3.021286E-06,8.4375,0
0.5634,-2.584878E-05,8.451,0,0.5634,3.994812E-05,8.451,0
0.5643,-4.196231E-05,8.4645,0,0.5643,-9.735256E-06,8.4645,0
0.5652,-2.450599E-05,8.478,0,0.5652,2.014191E-06,8.478,0
0.5661,-2.047761E-05,8.4915,0,0.5661,2.719158E-05,8.4915,0
0.567,-3.692683E-05,8.505,0,0.567,-1.342794E-06,8.505,0
0.5679,-2.1149E-05,8.5185,0,0.5679,-3.793393E-05,8.5185,0
0.5688,4.36408E-06,8.532,0,0.5688,-7.217517E-05,8.532,0
0.5697,5.035477E-06,8.5455,0,0.5697,-5.841154E-05,8.5455,0
0.5706,-1.846342E-05,8.559,0,0.5706,-3.793393E-05,8.559,0
0.5715,6.042573E-06,8.5725,0,0.5715,-2.853437E-05,8.5725,0
0.5724,1.174945E-05,8.586,0,0.5724,-4.39765E-05,8.586,0
0.5733,-2.719158E-05,8.5995,0,0.5733,-3.692683E-06,8.5995,0
0.5742,-2.484169E-05,8.613,0,0.5742,-9.063859E-06,8.613,0
0.5751,7.721065E-06,8.6265,0,0.5751,-4.162661E-05,8.6265,0
0.576,3.021286E-06,8.64,0,0.576,-2.349889E-06,8.64,0
0.5769,6.378271E-06,8.6535,0,0.5769,9.735256E-06,8.6535,0
0.5778,1.141375E-05,8.667,0,0.5778,-2.987716E-05,8.667,0
0.5787,4.028382E-05,8.6805,0,0.5787,-1.544213E-05,8.6805,0
0.5796,1.174945E-05,8.694,0,0.5796,2.349889E-06,8.694,0
0.5805,6.378271E-06,8.7075,0,0.5805,-2.618448E-05,8.7075,0
0.5814,-2.349889E-06,8.721,0,0.5814,-2.316319E-05,8.721,0
0.5823,-1.913481E-05,8.7345,0,0.5823,-3.927672E-05,8.7345,0
0.5832,-7.049668E-06,8.748,0,0.5832,-7.385367E-06,8.748,0
0.5841,-5.438316E-05,8.7615,0,0.5841,-1.107805E-05,8.7615,0
0.585,-5.136187E-05,8.775,0,0.585,-3.591974E-05,8.775,0
0.5859,-4.028382E-06,8.7885,0,0.5859,-4.565499E-05,8.7885,0
0.5868,-2.719158E-05,8.802,0,0.5868,-2.349889E-06,8.802,0
0.5877,-1.510643E-05,8.8155,0,0.5877,3.021286E-06,8.8155,0
0.5886,3.256275E-05,8.829,0,0.5886,-4.43122E-05,8.829,0
0.5895,8.728161E-06,8.8425,0,0.5895,7.049668E-06,8.8425,0
0.5904,1.779202E-05,8.856,0,0.5904,2.551309E-05,8.856,0
0.5913,3.927672E-05,8.8695,0,0.5913,-4.632639E-05,8.8695,0
0.5922,1.846342E-05,8.883,0,0.5922,-6.009003E-05,8.883,0
0.5931,1.107805E-05,8.8965,0,0.5931,-4.33051E-05,8.8965,0
0.594,-1.007095E-06,8.91,0,0.594,-5.169757E-05,8.91,0
0.5949,5.706874E-06,8.9235,0,0.5949,-4.632639E-05,8.9235,0
0.5958,1.644922E-05,8.937,0,0.5958,-3.256275E-05,8.937,0
0.5967,-6.378271E-06,8.9505,0,0.5967,2.920577E-05,8.9505,0
0.5976,-1.846342E-05,8.964,0,0.5976,4.766919E-05,8.964,0
0.5985,-2.450599E-05,8.9775,0,0.5985,-1.242084E-05,8.9775,0
0.5994,-2.517739E-05,8.991,0,0.5994,-2.584878E-05,8.991,0
0.6003,-1.913481E-05,9.0045,0,0.6003,1.309224E-05,9.0045,0
0.6012,-2.24918E-05,9.018,0,0.6012,6.042573E-06,9.018,0
0.6021,-1.107805E-05,9.0315,0,0.6021,-3.121996E-05,9.0315,0
0.603,-1.174945E-05,9.045,0,0.603,8.392462E-06,9.045,0
0.6039,8.728161E-06,9.0585,0,0.6039,1.745632E-05,9.0585,0
0.6048,-7.385367E-06,9.072001,0,0.6048,-1.779202E-05,9.072001,0
0.6057,-1.544213E-05,9.0855,0,0.6057,3.021286E-06,9.0855,0
0.6066,-3.356985E-07,9.099,0,0.6066,1.577783E-05,9.099,0
0.6075,-9.735256E-06,9.1125,0,0.6075,4.699779E-06,9.1125,0
0.6084,-3.256275E-05,9.126,0,0.6084,-2.081331E-05,9.126,0
0.6093,-7.385367E-06,9.1395,0,0.6093,-4.129091E-05,9.1395,0
0.6102,-2.18204E-05,9.153,0,0.6102,-1.242084E-05,9.153,0
0.6111,-6.478981E-05,9.1665,0,0.6111,1.007095E-06,9.1665,0
0.612,-3.256275E-05,9.18,0,0.612,-3.021286E-05,9.18,0
0.6129,-2.584878E-05,9.1935,0,0.6129,-5.606165E-05,9.1935,0
0.6138,-3.054856E-05,9.207,0,0.6138,-8.056763E-06,9.207,0
0.6147,-2.014191E-06,9.2205,0,0.6147,3.356985E-07,9.2205,0
0.6156,-3.356985E-07,9.234,0,0.6156,-7.821774E-05,9.234,0
0.6165,-3.121996E-05,9.2475,0,0.6165,-3.927672E-05,9.2475,0
0.6174,1.678492E-06,9.261,0,0.6174,-7.049668E-06,9.261,0
0.6183,1.779202E-05,9.2745,0,0.6183,-4.129091E-05,9.2745,0
0.6192,-1.678492E-06,9.288,0,0.6192,-5.673304E-05,9.288,0
0.6201,-7.049668E-06,9.3015,0,0.6201,-2.14847E-05,9.3015,0
0.621,1.678492E-05,9.315,0,0.621,-3.256275E-05,9.315,0
0.6219,5.706874E-06,9.3285,0,0.6219,-2.719158E-05,9.3285,0
0.6228,4.36408E-06,9.342,0,0.6228,-5.270466E-05,9.342,0
0.6237,7.721065E-06,9.3555,0,0.6237,-1.611353E-05,9.3555,0
0.6246,-2.349889E-06,9.369,0,0.6246,8.728161E-06,9.369,0
0.6255,-6.042573E-06,9.3825,0,0.6255,-2.853437E-05,9.3825,0
0.6264,-6.378271E-06,9.396,0,0.6264,-3.994812E-05,9.396,0
0.6273,-1.846342E-05,9.4095,0,0.6273,1.477073E-05,9.4095,0
0.6282,-1.577783E-05,9.423,0,0.6282,9.735256E-06,9.423,0
0.6291,-7.721065E-06,9.4365,0,0.6291,-4.53193E-05,9.4365,0
0.63,-9.063859E-06,9.45,0,0.63,-1.074235E-05,9.45,0
0.6309,-2.484169E-05,9.4635,0,0.6309,5.706874E-06,9.4635,0
0.6318,-2.383459E-05,9.477,0,0.6318,-3.155566E-05,9.477,0
0.6327,4.263371E-05,9.4905,0,0.6327,-3.256275E-05,9.4905,0
0.6336,-3.692683E-06,9.504,0,0.6336,3.021286E-06,9.504,0
0.6345,-3.189136E-05,9.5175,0,0.6345,-1.242084E-05,9.5175,0
0.6354,6.378271E-06,9.531,0,0.6354,-5.035477E-06,9.531,0
0.6363,-3.356985E-07,9.5445,0,0.6363,-2.987716E-05,9.5445,0
0.6372,-1.779202E-05,9.558,0,0.6372,-2.1149E-05,9.558,0
0.6381,1.510643E-05,9.5715,0,0.6381,2.1149E-05,9.5715,0
0.639,1.678492E-06,9.585,0,0.639,-1.712062E-05,9.585,0
0.6399,-1.678492E-06,9.5985,0,0.6399,-3.793393E-05,9.5985,0
0.6408,2.685588E-06,9.612,0,0.6408,2.014191E-06,9.612,0
0.6417,1.275654E-05,9.6255,0,0.6417,-2.18204E-05,9.6255,0
0.6426,1.947051E-05,9.639,0,0.6426,-5.841154E-05,9.639,0
0.6435,4.028382E-06,9.6525,0,0.6435,4.36408E-06,9.6525,0
0.6444,6.042573E-06,9.666,0,0.6444,-5.371176E-06,9.666,0
0.6453,3.692683E-06,9.6795,0,0.6453,-4.800488E-05,9.6795,0
0.6462,-5.001907E-05,9.693,0,0.6462,-4.565499E-05,9.693,0
0.6471,-5.270466E-05,9.7065,0,0.6471,7.049668E-06,9.7065,0
0.648,-1.947051E-05,9.72,0,0.648,1.947051E-05,9.72,0
0.6489,-2.752728E-05,9.7335,0,0.6489,-8.056763E-06,9.7335,0
0.6498,-1.947051E-05,9.747,0,0.6498,-3.826963E-05,9.747,0
0.6507,-8.728161E-06,9.7605,0,0.6507,-1.141375E-05,9.7605,0
0.6516,-1.309224E-05,9.774,0,0.6516,2.014191E-05,9.774,0
0.6525,-7.385367E-06,9.7875,0,0.6525,1.007095E-06,9.7875,0
0.6534,-9.735256E-06,9.801,0,0.6534,-4.061952E-05,9.801,0
0.6543,-2.18204E-05,9.8145,0,0.6543,2.349889E-06,9.8145,0
0.6552,-1.913481E-05,9.828,0,0.6552,1.174945E-05,9.828,0
0.6561,1.040665E-05,9.8415,0,0.6561,-5.337606E-05,9.8415,0
0.657,3.692683E-06,9.855,0,0.657,-1.242084E-05,9.855,0
0.6579,1.007095E-06,9.8685,0,0.6579,-9.735256E-06,9.8685,0
0.6588,9.399558E-06,9.882,0,0.6588,-4.599069E-05,9.882,0
0.6597,3.591974E-05,9.8955,0,0.6597,-4.934768E-05,9.8955,0
0.6606,9.399558E-06,9.909,0,0.6606,-2.752728E-05,9.909,0
0.6615,-6.042573E-06,9.9225,0,0.6615,-4.028382E-05,9.9225,0
0.6624,-1.846342E-05,9.936,0,0.6624,-3.189136E-05,9.936,0
0.6633,3.356985E-07,9.9495,0,0.6633,-4.49836E-05,9.9495,0
0.6642,-1.007095E-05,9.963,0,0.6642,-1.980621E-05,9.963,0
0.6651,-1.644922E-05,9.976501,0,0.6651,-5.035477E-06,9.976501,0
0.666,-1.510643E-05,9.99,0,0.666,-4.129091E-05,9.99,0
0.6669,-3.692683E-05,10.0035,0,0.6669,-4.53193E-05,10.0035,0
0.6678,-2.987716E-05,10.017,0,0.6678,3.021286E-05,10.017,0
0.6687,-1.644922E-05,10.0305,0,0.6687,2.786297E-05,10.0305,0
0.6696,1.376364E-05,10.044,0,0.6696,-6.378271E-06,10.044,0
0.6705,6.378271E-06,10.0575,0,0.6705,2.618448E-05,10.0575,0
0.6714,-1.510643E-05,10.071,0,0.6714,4.699779E-05,10.071,0
0.6723,-8.392462E-06,10.0845,0,0.6723,-2.24918E-05,10.0845,0
0.6732,2.316319E-05,10.098,0,0.6732,-5.941863E-05,10.098,0
0.6741,1.812772E-05,10.1115,0,0.6741,-5.807584E-05,10.1115,0
0.675,-1.309224E-05,10.125,0,0.675,-8.661021E-05,10.125,0
0.6759,-2.349889E-06,10.1385,0,0.6759,-4.39765E-05,10.1385,0
0.6768,2.383459E-05,10.152,0,0.6768,-4.196231E-05,10.152,0
0.6777,2.685588E-06,10.1655,0,0.6777,-2.081331E-05,10.1655,0
0.6786,-5.337606E-05,10.179,0,0.6786,6.378271E-06,10.179,0
0.6795,-3.390555E-05,10.1925,0,0.6795,-2.887007E-05,10.1925,0
0.6804,-1.510643E-05,10.206,0,0.6804,-7.150377E-05,10.206,0
0.6813,-3.021286E-05,10.2195,0,0.6813,6.713969E-07,10.2195,0
0.6822,-1.712062E-05,10.233,0,0.6822,3.289845E-05,10.233,0
0.6831,7.721065E-06,10.2465,0,0.6831,-3.591974E-05,10.2465,0
0.684,-1.409934E-05,10.26,0,0.684,-7.049668E-06,10.26,0
0.6849,1.376364E-05,10.2735,0,0.6849,-7.721065E-06,10.2735,0
0.6858,1.980621E-05,10.287,0,0.6858,-5.471885E-05,10.287,0
0.6867,5.706874E-06,10.3005,0,0.6867,-4.39765E-05,10.3005,0
0.6876,-1.007095E-05,10.314,0,0.6876,-1.510643E-05,10.314,0
0.6885,4.36408E-06,10.3275,0,0.6885,1.007095E-06,10.3275,0
0.6894,-1.678492E-06,10.341,0,0.6894,2.383459E-05,10.341,0
0.6903,-4.36408E-06,10.3545,0,0.6903,1.208515E-05,10.3545,0
0.6912,-7.049668E-06,10.368,0,0.6912,3.759823E-05,10.368,0
0.6921,-5.203327E-05,10.3815,0,0.6921,9.735256E-06,10.3815,0
0.693,-6.948959E-05,10.395,0,0.693,-5.136187E-05,10.395,0
0.6939,-1.510643E-05,10.4085,0,0.6939,-5.270466E-05,10.4085,0
0.6948,-1.980621E-05,10.422,0,0.6948,-9.735256E-06,10.422,0
0.6957,-2.047761E-05,10.4355,0,0.6957,-2.719158E-05,10.4355,0
0.6966,5.270466E-05,10.449,0,0.6966,-4.867628E-05,10.449,0
0.6975,1.040665E-05,10.4625,0,0.6975,8.056763E-06,10.4625,0
0.6984,9.399558E-06,10.476,0,0.6984,1.342794E-05,10.476,0
0.6993,1.242084E-05,10.4895,0,0.6993,-3.356985E-05,10.4895,0
0.7002,2.014191E-06,10.503,0,0.7002,-5.673304E-05,10.503,0
0.7011,0,10.5165,0,0.7011,-1.745632E-05,10.5165,0
0.702,-5.706874E-06,10.53,0,0.702,-8.392462E-06,10.53,0
0.7029,-1.712062E-05,10.5435,0,0.7029,-4.666209E-05,10.5435,0
0.7038,-4.028382E-06,10.557,0,0.7038,-7.351797E-05,10.557,0
0.7047,3.692683E-06,10.5705,0,0.7047,-2.18204E-05,10.5705,0
0.7056,1.812772E-05,10.584,0,0.7056,4.162661E-05,10.584,0
0.7065,4.36408E-06,10.5975,0,0.7065,-1.174945E-05,10.5975,0
0.7074,3.692683E-06,10.611,0,0.7074,-3.726253E-05,10.611,0
0.7083,-3.356985E-06,10.6245,0,0.7083,-3.021286E-06,10.6245,0
0.7092,-2.24918E-05,10.638,0,0.7092,-1.309224E-05,10.638,0
0.7101,-1.913481E-05,10.6515,0,0.7101,-3.961242E-05,10.6515,0
0.711,-3.524834E-05,10.665,0,0.711,1.477073E-05,10.665,0
0.7119,2.316319E-05,10.6785,0,0.7119,3.524834E-05,10.6785,0
0.7128,3.625543E-05,10.692,0,0.7128,6.713969E-06,10.692,0
0.7137,1.443504E-05,10.7055,0,0.7137,-2.047761E-05,10.7055,0
0.7146,1.779202E-05,10.719,0,0.7146,-7.721065E-06,10.719,0
0.7155,1.174945E-05,10.7325,0,0.7155,5.035477E-06,10.7325,0
0.7164,1.107805E-05,10.746,0,0.7164,-1.678492E-06,10.746,0
0.7173,1.208515E-05,10.7595,0,0.7173,-3.356985E-05,10.7595,0
0.7182,-1.174945E-05,10.773,0,0.7182,-9.735256E-06,10.773,0
0.7191,-3.390555E-05,10.7865,0,0.7191,5.035477E-06,10.7865,0
0.72,-2.349889E-05,10.8,0,0.72,-4.934768E-05,10.8,0
0.7209,-1.376364E-05,10.8135,0,0.7209,-7.049668E-05,10.8135,0
0.7218,-1.913481E-05,10.827,0,0.7218,1.342794E-06,10.827,0
0.7227,-1.208515E-05,10.8405,0,0.7227,1.678492E-06,10.8405,0
0.7236,2.014191E-05,10.854,0,0.7236,-4.028382E-05,10.854,0
0.7245,-1.510643E-05,10.8675,0,0.7245,2.685588E-06,10.8675,0
0.7254,-5.572595E-05,10.881,0,0.7254,9.063859E-06,10.881,0
0.7263,-3.726253E-05,10.8945,0,0.7263,-4.33051E-05,10.8945,0
0.7272,-2.517739E-05,10.908,0,0.7272,-2.987716E-05,10.908,0
0.7281,-4.129091E-05,10.9215,0,0.7281,-2.316319E-05,10.9215,0
0.729,-2.685588E-05,10.935,0,0.729,-5.069047E-05,10.935,0
0.7299,-2.014191E-05,10.9485,0,0.7299,-6.71397E-05,10.9485,0
0.7308,-1.141375E-05,10.962,0,0.7308,-8.358892E-05,10.962,0
0.7317,1.980621E-05,10.9755,0,0.7317,-5.001907E-05,10.9755,0
0.7326,-1.712062E-05,10.989,0,0.7326,-5.236896E-05,10.989,0
0.7335,-2.047761E-05,11.0025,0,0.7335,-4.968337E-05,11.0025,0
0.7344,-2.014191E-06,11.016,0,0.7344,-1.678492E-05,11.016,0
0.7353,-1.779202E-05,11.0295,0,0.7353,4.53193E-05,11.0295,0
0.7362,-1.947051E-05,11.043,0,0.7362,3.524834E-05,11.043,0
0.7371,-4.699779E-06,11.0565,0,0.7371,5.035477E-06,11.0565,0
0.738,-7.721065E-06,11.07,0,0.738,2.047761E-05,11.07,0
0.7389,-3.189136E-05,11.0835,0,0.7389,3.021286E-06,11.0835,0
0.7398,-1.107805E-05,11.097,0,0.7398,-4.263371E-05,11.097,0
0.7407,1.040665E-05,11.1105,0,0.7407,-1.510643E-05,11.1105,0
0.7416,-2.047761E-05,11.124,0,0.7416,-3.356985E-07,11.124,0
0.7425,-1.376364E-05,11.1375,0,0.7425,-2.853437E-05,11.1375,0
0.7434,-5.035477E-06,11.151,0,0.7434,-3.524834E-05,11.151,0
0.7443,-1.275654E-05,11.1645,0,0.7443,-7.049668E-05,11.1645,0
0.7452,-1.779202E-05,11.178,0,0.7452,-3.927672E-05,11.178,0
0.7461,-1.712062E-05,11.1915,0,0.7461,-1.040665E-05,11.1915,0
0.747,3.692683E-06,11.205,0,0.747,-3.994812E-05,11.205,0
0.7479,-1.644922E-05,11.2185,0,0.7479,-3.826963E-05,11.2185,0
0.7488,-1.779202E-05,11.232,0,0.7488,1.040665E-05,11.232,0
0.7497,2.752728E-05,11.2455,0,0.7497,7.721065E-06,11.2455,0
0.7506,1.208515E-05,11.259,0,0.7506,-3.558404E-05,11.259,0
0.7515,-7.049668E-06,11.2725,0,0.7515,1.174945E-05,11.2725,0
0.7524,8.056763E-06,11.286,0,0.7524,7.721065E-06,11.286,0
0.7533,-3.356985E-06,11.2995,0,0.7533,-2.954147E-05,11.2995,0
0.7542,-3.256275E-05,11.313,0,0.7542,-2.819867E-05,11.313,0
0.7551,-2.752728E-05,11.3265,0,0.7551,1.309224E-05,11.3265,0
0.756,-1.745632E-05,11.34,0,0.756,1.040665E-05,11.34,0
0.7569,-1.409934E-05,11.3535,0,0.7569,-3.021286E-06,11.3535,0
0.7578,1.040665E-05,11.367,0,0.7578,-3.256275E-05,11.367,0
0.7587,3.256275E-05,11.3805,0,0.7587,-7.385367E-06,11.3805,0
0.7596,9.735256E-06,11.394,0,0.7596,-1.107805E-05,11.394,0
0.7605,-7.721065E-06,11.4075,0,0.7605,-5.404745E-05,11.4075,0
0.7614,-4.028382E-06,11.421,0,0.7614,-5.001907E-05,11.421,0
0.7623,-5.371176E-06,11.4345,0,0.7623,-1.577783E-05,11.4345,0
0.7632,9.735256E-06,11.448,0,0.7632,-3.390555E-05,11.448,0
0.7641,4.766919E-05,11.4615,0,0.7641,-8.560311E-05,11.4615,0
0.765,-1.510643E-05,11.475,0,0.765,-6.74754E-05,11.475,0
0.7659,-1.947051E-05,11.4885,0,0.7659,-3.390555E-05,11.4885,0
0.7668,1.678492E-06,11.502,0,0.7668,-6.143282E-05,11.502,0
0.7677,-3.256275E-05,11.5155,0,0.7677,-3.323415E-05,11.5155,0
0.7686,-2.517739E-05,11.529,0,0.7686,6.378271E-06,11.529,0
0.7695,-3.021286E-06,11.5425,0,0.7695,-3.021286E-06,11.5425,0
0.7704,1.174945E-05,11.556,0,0.7704,-2.081331E-05,11.556,0
0.7713,1.141375E-05,11.5695,0,0.7713,-5.572595E-05,11.5695,0
0.7722,-2.1149E-05,11.583,0,0.7722,-1.208515E-05,11.583,0
0.7731,-1.980621E-05,11.5965,0,0.7731,4.934768E-05,11.5965,0
0.774,1.342794E-06,11.61,0,0.774,3.390555E-05,11.61,0
0.7749,6.042573E-06,11.6235,0,0.7749,2.24918E-05,11.6235,0
0.7758,1.678492E-05,11.637,0,0.7758,7.083238E-05,11.637,0
0.7767,1.678492E-06,11.6505,0,0.7767,4.095522E-05,11.6505,0
0.7776,7.049668E-06,11.664,0,0.7776,-2.920577E-05,11.664,0
0.7785,1.913481E-05,11.6775,0,0.7785,-1.242084E-05,11.6775,0
0.7794,-2.349889E-06,11.691,0,0.7794,2.584878E-05,11.691,0
0.7803,-1.443504E-05,11.7045,0,0.7803,-4.699779E-05,11.7045,0
0.7812,-6.243992E-05,11.718,0,0.7812,-4.867628E-05,11.718,0
0.7821,-0.0001117876,11.7315,0,0.7821,-4.36408E-06,11.7315,0
0.783,-0.0001010452,11.745,0,0.783,-2.987716E-05,11.745,0
0.7839,-7.855344E-05,11.7585,0,0.7839,-4.33051E-05,11.7585,0
0.7848,-1.913481E-05,11.772,0,0.7848,-6.74754E-05,11.772,0
0.7857,1.577783E-05,11.7855,0,0.7857,-2.18204E-05,11.7855,0
0.7866,6.411841E-05,11.799,0,0.7866,2.1149E-05,11.799,0
0.7875,7.687495E-05,11.8125,0,0.7875,-2.1149E-05,11.8125,0
0.7884,8.056764E-05,11.826,0,0.7884,-3.994812E-05,11.826,0
0.7893,4.800488E-05,11.8395,0,0.7893,1.275654E-05,11.8395,0
0.7902,2.752728E-05,11.853,0,0.7902,1.678492E-06,11.853,0
0.7911,1.510643E-05,11.8665,0,0.7911,-3.289845E-05,11.8665,0
0.792,-2.987716E-05,11.88,0,0.792,3.692683E-06,11.88,0
0.7929,-1.510643E-05,11.8935,0,0.7929,-9.735256E-06,11.8935,0
0.7938,-2.719158E-05,11.907,0,0.7938,-6.277562E-05,11.907,0
0.7947,-5.337606E-05,11.9205,0,0.7947,-6.982528E-05,11.9205,0
0.7956,-1.376364E-05,11.934,0,0.7956,-1.275654E-05,11.934,0
0.7965,2.349889E-06,11.9475,0,0.7965,-2.752728E-05,11.9475,0
0.7974,-8.728161E-06,11.961,0,0.7974,-3.726253E-05,11.961,0
0.7983,-1.644922E-05,11.9745,0,0.7983,-5.941863E-05,11.9745,0
0.7992,2.081331E-05,11.988,0,0.7992,-1.342794E-06,11.988,0
0.8001,6.378271E-06,12.0015,0,0.8001,4.36408E-06,12.0015,0
0.801,-1.712062E-05,12.015,0,0.801,-4.666209E-05,12.015,0
0.8019,-7.385367E-06,12.0285,0,0.8019,-6.411841E-05,12.0285,0
0.8028,-6.210422E-05,12.042,0,0.8028,2.349889E-06,12.042,0
0.8037,-6.277562E-05,12.0555,0,0.8037,-3.356985E-07,12.0555,0
0.8046,-6.713969E-07,12.069,0,0.8046,-6.076142E-05,12.069,0
0.8055,-4.162661E-05,12.0825,0,0.8055,-2.18204E-05,12.0825,0
0.8064,-1.040665E-05,12.096,0,0.8064,-9.735256E-06,12.096,0
0.8073,2.752728E-05,12.1095,0,0.8073,-7.284657E-05,12.1095,0
0.8082,1.913481E-05,12.123,0,0.8082,-5.102617E-05,12.123,0
0.8091,-1.007095E-05,12.1365,0,0.8091,-1.141375E-05,12.1365,0
0.81,4.061952E-05,12.15,0,0.81,-2.18204E-05,12.15,0
0.8109,3.927672E-05,12.1635,0,0.8109,-2.014191E-05,12.1635,0
0.8118,2.1149E-05,12.177,0,0.8118,-2.719158E-05,12.177,0
0.8127,7.385367E-06,12.1905,0,0.8127,8.728161E-06,12.1905,0
0.8136,-7.049668E-06,12.204,0,0.8136,2.853437E-05,12.204,0
0.8145,-2.316319E-05,12.2175,0,0.8145,-8.392462E-06,12.2175,0
0.8154,-3.692683E-06,12.231,0,0.8154,-1.779202E-05,12.231,0
0.8163,7.049668E-06,12.2445,0,0.8163,6.411841E-05,12.2445,0
0.8172,-1.107805E-05,12.258,0,0.8172,1.846342E-05,12.258,0
0.8181,-3.021286E-06,12.2715,0,0.8181,-7.620356E-05,12.2715,0
0.819,1.040665E-05,12.285,0,0.819,-3.256275E-05,12.285,0
0.8199,4.36408E-06,12.2985,0,0.8199,-2.24918E-05,12.2985,0
0.8208,-7.049668E-06,12.312,0,0.8208,-4.867628E-05,12.312,0
0.8217,-1.007095E-06,12.3255,0,0.8217,-1.208515E-05,12.3255,0
0.8226,-3.021286E-06,12.339,0,0.8226,4.061952E-05,12.339,0
0.8235,-1.712062E-05,12.3525,0,0.8235,4.162661E-05,12.3525,0
0.8244,-5.706874E-06,12.366,0,0.8244,1.443504E-05,12.366,0
0.8253,2.349889E-06,12.3795,0,0.8253,-4.061952E-05,12.3795,0
0.8262,-1.644922E-05,12.393,0,0.8262,-3.054856E-05,12.393,0
0.8271,-2.18204E-05,12.4065,0,0.8271,7.721065E-06,12.4065,0
0.828,-9.063859E-06,12.42,0,0.828,-3.558404E-05,12.42,0
0.8289,-1.107805E-05,12.4335,0,0.8289,-4.39765E-05,12.4335,0
0.8298,-1.342794E-05,12.447,0,0.8298,2.786297E-05,12.447,0
0.8307,-1.980621E-05,12.4605,0,0.8307,4.632639E-05,12.4605,0
0.8316,-2.014191E-05,12.474,0,0.8316,-1.510643E-05,12.474,0
0.8325,-6.076142E-05,12.4875,0,0.8325,-6.713969E-07,12.4875,0
0.8334,-3.726253E-05,12.501,0,0.8334,2.349889E-05,12.501,0
0.8343,1.007095E-06,12.5145,0,0.8343,-2.081331E-05,12.5145,0
0.8352,3.860533E-05,12.528,0,0.8352,-1.174945E-05,12.528,0
0.8361,2.1149E-05,12.5415,0,0.8361,2.685588E-06,12.5415,0
0.837,3.558404E-05,12.555,0,0.837,-4.867628E-05,12.555,0
0.8379,2.920577E-05,12.5685,0,0.8379,-6.64683E-05,12.5685,0
0.8388,1.107805E-05,12.582,0,0.8388,-8.996719E-05,12.582,0
0.8397,2.349889E-06,12.5955,0,0.8397,-9.332418E-05,12.5955,0
0.8406,-3.793393E-05,12.609,0,0.8406,-2.987716E-05,12.609,0
0.8415,-4.129091E-05,12.6225,0,0.8415,-5.471885E-05,12.6225,0
0.8424,-2.450599E-05,12.636,0,0.8424,-6.57969E-05,12.636,0
0.8433,-3.524834E-05,12.6495,0,0.8433,-1.174945E-05,12.6495,0
0.8442,-3.054856E-05,12.663,0,0.8442,-4.028382E-06,12.663,0
0.8451,-2.887007E-05,12.6765,0,0.8451,-6.143282E-05,12.6765,0
0.846,-3.927672E-05,12.69,0,0.846,-2.383459E-05,12.69,0
0.8469,-5.270466E-05,12.7035,0,0.8469,1.309224E-05,12.7035,0
0.8478,-5.941863E-05,12.717,0,0.8478,-2.920577E-05,12.717,0
0.8487,-2.920577E-05,12.7305,0,0.8487,-3.021286E-05,12.7305,0
0.8496,-5.069047E-05,12.744,0,0.8496,-3.021286E-06,12.744,0
0.8505,-2.18204E-05,12.7575,0,0.8505,-1.443504E-05,12.7575,0
0.8514,1.007095E-06,12.771,0,0.8514,-5.706874E-06,12.771,0
0.8523,6.378271E-06,12.7845,0,0.8523,-2.047761E-05,12.7845,0
0.8532,3.289845E-05,12.798,0,0.8532,-3.356985E-07,12.798,0
0.8541,9.063859E-06,12.8115,0,0.8541,2.652018E-05,12.8115,0
0.855,-7.049668E-06,12.825,0,0.855,-2.853437E-05,12.825,0
0.8559,1.678492E-05,12.8385,0,0.8559,-4.028382E-05,12.8385,0
0.8568,-9.063859E-06,12.852,0,0.8568,8.392462E-06,12.852,0
0.8577,-6.713969E-07,12.8655,0,0.8577,-2.081331E-05,12.8655,0
0.8586,1.980621E-05,12.879,0,0.8586,-5.203327E-05,12.879,0
0.8595001,1.040665E-05,12.8925,0,0.8595001,-2.014191E-06,12.8925,0
0.8604,2.920577E-05,12.906,0,0.8604,1.007095E-06,12.906,0
0.8613,5.035477E-06,12.9195,0,0.8613,-5.001907E-05,12.9195,0
0.8622,2.652018E-05,12.933,0,0.8622,-4.46479E-05,12.933,0
0.8631,3.356985E-07,12.9465,0,0.8631,4.36408E-05,12.9465,0
0.864,1.678492E-06,12.96,0,0.864,1.376364E-05,12.96,0
0.8649,7.721065E-06,12.9735,0,0.8649,-3.692683E-06,12.9735,0
0.8658,-3.356985E-07,12.987,0,0.8658,-1.443504E-05,12.987,0
0.8667,1.275654E-05,13.0005,0,0.8667,-2.316319E-05,13.0005,0
0.8676,-3.994812E-05,13.014,0,0.8676,-3.155566E-05,13.014,0
0.8685,-2.484169E-05,13.0275,0,0.8685,-3.659113E-05,13.0275,0
0.8694,1.040665E-05,13.041,0,0.8694,-3.121996E-05,13.041,0
0.8703,-1.376364E-05,13.0545,0,0.8703,5.035477E-06,13.0545,0
0.8712,-2.047761E-05,13.068,0,0.8712,7.385367E-06,13.068,0
0.8721,-3.356985E-07,13.0815,0,0.8721,-7.486076E-05,13.0815,0
0.873,-8.392462E-06,13.095,0,0.873,-7.016098E-05,13.095,0
0.8739,-2.349889E-06,13.1085,0,0.8739,-4.129091E-05,13.1085,0
0.8748,1.007095E-06,13.122,0,0.8748,-5.337606E-05,13.122,0
0.8757,5.035477E-06,13.1355,0,0.8757,-5.203327E-05,13.1355,0
0.8766,4.36408E-06,13.149,0,0.8766,-7.049668E-06,13.149,0
0.8775,-2.450599E-05,13.1625,0,0.8775,1.577783E-05,13.1625,0
0.8784,-5.706874E-06,13.176,0,0.8784,1.577783E-05,13.176,0
0.8793,1.678492E-06,13.1895,0,0.8793,-1.007095E-06,13.1895,0
0.8802,1.544213E-05,13.203,0,0.8802,3.692683E-06,13.203,0
0.8811,3.860533E-05,13.2165,0,0.8811,1.644922E-05,13.2165,0
0.882,1.577783E-05,13.23,0,0.882,-3.189136E-05,13.23,0
0.8829,3.021286E-06,13.2435,0,0.8829,-5.572595E-05,13.2435,0
0.8838,-4.36408E-06,13.257,0,0.8838,-3.356985E-06,13.257,0
0.8847,-1.544213E-05,13.2705,0,0.8847,9.399558E-06,13.2705,0
0.8856,-1.007095E-06,13.284,0,0.8856,-3.256275E-05,13.284,0
0.8865,-1.510643E-05,13.2975,0,0.8865,2.349889E-06,13.2975,0
0.8874,-5.874724E-05,13.311,0,0.8874,4.263371E-05,13.311,0
0.8883,-3.591974E-05,13.3245,0,0.8883,1.443504E-05,13.3245,0
0.8892,-3.927672E-05,13.338,0,0.8892,3.860533E-05,13.338,0
0.8901,-5.203327E-05,13.3515,0,0.8901,4.934768E-05,13.3515,0
0.891,-4.599069E-05,13.365,0,0.891,3.692683E-06,13.365,0
0.8919,-2.047761E-05,13.3785,0,0.8919,1.007095E-06,13.3785,0
0.8928,-1.409934E-05,13.392,0,0.8928,-8.728161E-06,13.392,0
0.8937,1.510643E-05,13.4055,0,0.8937,-4.36408E-06,13.4055,0
0.8946,-9.735256E-06,13.419,0,0.8946,-7.385367E-06,13.419,0
0.8955,-1.443504E-05,13.4325,0,0.8955,-5.841154E-05,13.4325,0
0.8964,1.040665E-05,13.446,0,0.8964,-0.000102388,13.446,0
0.8973,2.081331E-05,13.4595,0,0.8973,-5.236896E-05,13.4595,0
0.8982,2.349889E-05,13.473,0,0.8982,-6.6804E-05,13.473,0
0.8991,3.894102E-05,13.4865,0,0.8991,-8.82887E-05,13.4865,0
0.9,-6.713969E-07,13.5,0,0.9,-3.256275E-05,13.5,0
0.9009,-9.399558E-06,13.5135,0,0.9009,8.392462E-06,13.5135,0
0.9018,-2.652018E-05,13.527,0,0.9018,5.706874E-06,13.527,0
0.9027,3.021286E-06,13.5405,0,0.9027,3.726253E-05,13.5405,0
0.9036,-2.920577E-05,13.554,0,0.9036,3.994812E-05,13.554,0
0.9045,-3.692683E-05,13.5675,0,0.9045,7.049668E-06,13.5675,0
0.9054,-1.208515E-05,13.581,0,0.9054,-1.510643E-05,13.581,0
0.9063,2.752728E-05,13.5945,0,0.9063,-6.243992E-05,13.5945,0
0.9072,5.706874E-06,13.608,0,0.9072,-4.229801E-05,13.608,0
0.9081,-4.028382E-05,13.6215,0,0.9081,-3.927672E-05,13.6215,0
0.909,-1.107805E-05,13.635,0,0.909,-4.934768E-05,13.635,0
0.9099,6.378271E-06,13.6485,0,0.9099,-6.344701E-05,13.6485,0
0.9108,-1.107805E-05,13.662,0,0.9108,5.035477E-06,13.662,0
0.9117,3.021286E-06,13.6755,0,0.9117,-4.028382E-06,13.6755,0
0.9126,1.309224E-05,13.689,0,0.9126,-4.33051E-05,13.689,0
0.9135,1.242084E-05,13.7025,0,0.9135,1.644922E-05,13.7025,0
0.9144,8.728161E-06,13.716,0,0.9144,1.678492E-05,13.716,0
0.9153,4.36408E-06,13.7295,0,0.9153,-7.486076E-05,13.7295,0
0.9162,-3.021286E-06,13.743,0,0.9162,-7.284657E-05,13.743,0
0.9171,-1.712062E-05,13.7565,0,0.9171,-4.061952E-05,13.7565,0
0.918,-3.356985E-06,13.77,0,0.918,-5.404745E-05,13.77,0
0.9189,-1.644922E-05,13.7835,0,0.9189,-3.457694E-05,13.7835,0
0.9198,-2.047761E-05,13.797,0,0.9198,-6.71397E-05,13.797,0
0.9207,-1.107805E-05,13.8105,0,0.9207,-2.18204E-05,13.8105,0
0.9216,-7.721065E-06,13.824,0,0.9216,2.081331E-05,13.824,0
0.9225,-3.994812E-05,13.8375,0,0.9225,1.477073E-05,13.8375,0
0.9234,-2.987716E-05,13.851,0,0.9234,1.007095E-05,13.851,0
0.9243,-3.524834E-05,13.8645,0,0.9243,3.054856E-05,13.8645,0
0.9252,-2.18204E-05,13.878,0,0.9252,2.786297E-05,13.878,0
0.9261,9.735256E-06,13.8915,0,0.9261,-2.652018E-05,13.8915,0
0.927,-1.611353E-05,13.905,0,0.927,9.063859E-06,13.905,0
0.9279,-4.061952E-05,13.9185,0,0.9279,7.385367E-06,13.9185,0
0.9288,-3.155566E-05,13.932,0,0.9288,-1.913481E-05,13.932,0
0.9297,-2.24918E-05,13.9455,0,0.9297,-3.021286E-05,13.9455,0
0.9306,-1.812772E-05,13.959,0,0.9306,-1.007095E-05,13.959,0
0.9315,-8.728161E-06,13.9725,0,0.9315,-4.129091E-05,13.9725,0
0.9324,2.920577E-05,13.986,0,0.9324,-4.263371E-05,13.986,0
0.9333,6.143282E-05,13.9995,0,0.9333,-2.1149E-05,13.9995,0
0.9342,3.860533E-05,14.013,0,0.9342,-3.021286E-06,14.013,0
0.9351,-1.745632E-05,14.0265,0,0.9351,3.356985E-07,14.0265,0
0.936,-1.812772E-05,14.04,0,0.936,-5.337606E-05,14.04,0
0.9369,-3.356985E-07,14.0535,0,0.9369,-7.452507E-05,14.0535,0
0.9378,-1.913481E-05,14.067,0,0.9378,-1.040665E-05,14.067,0
0.9387,-3.356985E-06,14.0805,0,0.9387,-8.728161E-06,14.0805,0
0.9396001,3.021286E-06,14.094,0,0.9396001,-0.000102388,14.094,0
0.9405,-2.987716E-05,14.1075,0,0.9405,-8.023193E-05,14.1075,0
0.9414001,1.242084E-05,14.121,0,0.9414001,-6.74754E-05,14.121,0
0.9423,2.047761E-05,14.1345,0,0.9423,-8.795301E-05,14.1345,0
0.9432001,7.049668E-06,14.148,0,0.9432001,-1.779202E-05,14.148,0
0.9441,6.713969E-06,14.1615,0,0.9441,4.129091E-05,14.1615,0
0.9450001,1.846342E-05,14.175,0,0.9450001,5.539025E-05,14.175,0
0.9459,8.056763E-06,14.1885,0,0.9459,3.021286E-06,14.1885,0
0.9468,1.174945E-05,14.202,0,0.9468,5.706874E-06,14.202,0
0.9477,3.692683E-06,14.2155,0,0.9477,4.061952E-05,14.2155,0
0.9486,-3.054856E-05,14.229,0,0.9486,2.417029E-05,14.229,0
0.9495,2.349889E-06,14.2425,0,0.9495,-5.001907E-05,14.2425,0
0.9504,1.342794E-06,14.256,0,0.9504,-9.701686E-05,14.256,0
0.9513,3.692683E-06,14.2695,0,0.9513,-6.848249E-05,14.2695,0
0.9522,-9.735256E-06,14.283,0,0.9522,-4.33051E-05,14.283,0
0.9531,5.035477E-06,14.2965,0,0.9531,-1.107805E-05,14.2965,0
0.954,-1.007095E-06,14.31,0,0.954,3.323415E-05,14.31,0
0.9549,-4.263371E-05,14.3235,0,0.9549,5.069047E-05,14.3235,0
0.9558,-9.735256E-06,14.337,0,0.9558,1.577783E-05,14.337,0
0.9567,3.256275E-05,14.3505,0,0.9567,1.745632E-05,14.3505,0
0.9576,-1.007095E-05,14.364,0,0.9576,5.136187E-05,14.364,0
0.9585,-1.409934E-05,14.3775,0,0.9585,1.947051E-05,14.3775,0
0.9594,-3.021286E-05,14.391,0,0.9594,-1.141375E-05,14.391,0
0.9603,-3.994812E-05,14.4045,0,0.9603,-4.028382E-05,14.4045,0
0.9612,-2.786297E-05,14.418,0,0.9612,-1.980621E-05,14.418,0
0.9621,-1.678492E-06,14.4315,0,0.9621,7.385367E-06,14.4315,0
0.963,-2.047761E-05,14.445,0,0.963,-2.383459E-05,14.445,0
0.9639,-4.699779E-06,14.4585,0,0.9639,-1.846342E-05,14.4585,0
0.9648,-1.040665E-05,14.472,0,0.9648,2.819867E-05,14.472,0
0.9657,-4.196231E-05,14.4855,0,0.9657,-4.699779E-06,14.4855,0
0.9666,-2.786297E-05,14.499,0,0.9666,-4.129091E-05,14.499,0
0.9675,-2.517739E-05,14.5125,0,0.9675,-6.713969E-07,14.5125,0
0.9684,-1.712062E-05,14.526,0,0.9684,2.014191E-06,14.526,0
0.9693,-5.706874E-06,14.5395,0,0.9693,-3.659113E-05,14.5395,0
0.9702,-6.713969E-07,14.553,0,0.9702,-6.076142E-05,14.553,0
0.9711,-3.256275E-05,14.5665,0,0.9711,-1.678492E-05,14.5665,0
0.972,-2.316319E-05,14.58,0,0.972,-4.33051E-05,14.58,0
0.9729,4.196231E-05,14.5935,0,0.9729,-5.371176E-06,14.5935,0
0.9738,6.277562E-05,14.607,0,0.9738,-2.819867E-05,14.607,0
0.9747,4.263371E-05,14.6205,0,0.9747,-4.733349E-05,14.6205,0
0.9756,1.812772E-05,14.634,0,0.9756,-2.920577E-05,14.634,0
0.9765,6.378271E-06,14.6475,0,0.9765,-6.243992E-05,14.6475,0
0.9774,-1.712062E-05,14.661,0,0.9774,-0.0001050736,14.661,0
0.9783,-3.054856E-05,14.6745,0,0.9783,-3.927672E-05,14.6745,0
0.9792,-6.915389E-05,14.688,0,0.9792,-3.256275E-05,14.688,0
0.9801,-5.874724E-05,14.7015,0,0.9801,-7.083238E-05,14.7015,0
0.981,-2.28275E-05,14.715,0,0.981,3.826963E-05,14.715,0
0.9819,-3.021286E-05,14.7285,0,0.9819,3.659113E-05,14.7285,0
0.9828,-3.256275E-05,14.742,0,0.9828,6.378271E-06,14.742,0
0.9837,-2.484169E-05,14.7555,0,0.9837,-3.894102E-05,14.7555,0
0.9846,-4.43122E-05,14.769,0,0.9846,-5.673304E-05,14.769,0
0.9855,-3.054856E-05,14.7825,0,0.9855,-2.18204E-05,14.7825,0
0.9864,-3.927672E-05,14.796,0,0.9864,-8.392462E-06,14.796,0
0.9873,-4.33051E-05,14.8095,0,0.9873,-1.812772E-05,14.8095,0
0.9882,-1.644922E-05,14.823,0,0.9882,-1.443504E-05,14.823,0
0.9891,-1.342794E-06,14.8365,0,0.9891,-1.376364E-05,14.8365,0
0.99,1.577783E-05,14.85,0,0.99,-5.673304E-05,14.85,0
0.9909,3.692683E-05,14.8635,0,0.9909,-7.553216E-05,14.8635,0
0.9918,1.141375E-05,14.877,0,0.9918,-5.807584E-05,14.877,0
0.9927,-1.007095E-06,14.8905,0,0.9927,-9.130999E-05,14.8905,0
0.9936,2.1149E-05,14.904,0,0.9936,-0.0001420005,14.904,0
0.9945,2.1149E-05,14.9175,0,0.9945,-6.948959E-05,14.9175,0
0.9954,3.524834E-05,14.931,0,0.9954,-9.063859E-06,14.931,0
0.9963,1.846342E-05,14.9445,0,0.9963,-3.726253E-05,14.9445,0
0.9972,1.477073E-05,14.958,0,0.9972,3.692683E-06,14.958,0
0.9981,-2.484169E-05,14.9715,0,0.9981,5.203327E-05,14.9715,0
0.999,-1.242084E-05,14.985,0,0.999,3.289845E-05,14.985,0
0.9999,1.174945E-05,14.9985,0,0.9999,1.846342E-05,14.9985,0
1.0008,-2.014191E-06,15.012,0,1.0008,-5.706874E-06,15.012,0
1.0017,1.678492E-06,15.0255,0,1.0017,1.007095E-06,15.0255,0
1.0026,2.316319E-05,15.039,0,1.0026,1.007095E-05,15.039,0
1.0035,3.424125E-05,15.0525,0,1.0035,3.692683E-05,15.0525,0
1.0044,7.721065E-06,15.066,0,1.0044,6.78111E-05,15.066,0
1.0053,-5.706874E-06,15.0795,0,1.0053,0.000119173,15.0795,0
1.0062,1.208515E-05,15.093,0,1.0062,5.740444E-05,15.093,0
1.0071,1.040665E-05,15.1065,0,1.0071,-2.652018E-05,15.1065,0
1.008,-1.913481E-05,15.12,0,1.008,1.040665E-05,15.12,0
1.0089,2.685588E-06,15.1335,0,1.0089,1.712062E-05,15.1335,0
1.0098,-1.174945E-05,15.147,0,1.0098,-3.927672E-05,15.147,0
1.0107,-2.853437E-05,15.1605,0,1.0107,-4.36408E-05,15.1605,0
1.0116,-5.539025E-05,15.174,0,1.0116,-1.712062E-05,15.174,0
1.0125,-0.0001309224,15.1875,0,1.0125,-3.927672E-05,15.1875,0
1.0134,-0.0001453574,15.201,0,1.0134,-8.661021E-05,15.201,0
1.0143,-5.035477E-05,15.2145,0,1.0143,-9.466698E-05,15.2145,0
1.0152,5.035477E-06,15.228,0,1.0152,-2.383459E-05,15.228,0
1.0161,3.558404E-05,15.2415,0,1.0161,-6.713969E-07,15.2415,0
1.017,5.673304E-05,15.255,0,1.017,-2.21561E-05,15.255,0
1.0179,8.560311E-05,15.2685,0,1.0179,-7.049668E-06,15.2685,0
1.0188,5.539025E-05,15.282,0,1.0188,7.620356E-05,15.282,0
1.0197,1.376364E-05,15.2955,0,1.0197,1.577783E-05,15.2955,0
1.0206,2.987716E-05,15.309,0,1.0206,-2.719158E-05,15.309,0
1.0215,1.644922E-05,15.3225,0,1.0215,3.860533E-05,15.3225,0
1.0224,1.007095E-06,15.336,0,1.0224,3.558404E-05,15.336,0
1.0233,1.510643E-05,15.3495,0,1.0233,-3.356985E-05,15.3495,0
1.0242,-1.644922E-05,15.363,0,1.0242,-3.323415E-05,15.363,0
1.0251,-2.21561E-05,15.3765,0,1.0251,1.678492E-06,15.3765,0
1.026,3.356985E-05,15.39,0,1.026,-2.1149E-05,15.39,0
1.0269,2.719158E-05,15.4035,0,1.0269,-3.659113E-05,15.4035,0
1.0278,1.678492E-06,15.417,0,1.0278,-5.069047E-05,15.417,0
1.0287,3.054856E-05,15.4305,0,1.0287,-1.846342E-05,15.4305,0
1.0296,5.539025E-05,15.444,0,1.0296,-9.063859E-06,15.444,0
1.0305,1.174945E-05,15.4575,0,1.0305,-4.49836E-05,15.4575,0
1.0314,2.383459E-05,15.471,0,1.0314,-6.61326E-05,15.471,0
1.0323,7.721065E-06,15.4845,0,1.0323,-2.316319E-05,15.4845,0
1.0332,-4.229801E-05,15.498,0,1.0332,-2.853437E-05,15.498,0
1.0341,-6.411841E-05,15.5115,0,1.0341,-6.210422E-05,15.5115,0
1.035,-9.701686E-05,15.525,0,1.035,-5.404745E-05,15.525,0
1.0359,-8.426032E-05,15.5385,0,1.0359,-6.915389E-05,15.5385,0
1.0368,-5.270466E-05,15.552,0,1.0368,-0.0001013809,15.552,0
1.0377,-1.376364E-05,15.5655,0,1.0377,-0.0001033951,15.5655,0
1.0386,-5.706874E-06,15.579,0,1.0386,-9.735256E-05,15.579,0
1.0395,-2.652018E-05,15.5925,0,1.0395,-0.0001077592,15.5925,0
1.0404,-2.853437E-05,15.606,0,1.0404,-9.634547E-05,15.606,0
1.0413,-6.74754E-05,15.6195,0,1.0413,-3.356985E-05,15.6195,0
1.0422,-6.64683E-05,15.633,0,1.0422,6.311131E-05,15.633,0
1.0431,-3.491264E-05,15.6465,0,1.0431,0.0001164874,15.6465,0
1.044,-1.846342E-05,15.66,0,1.044,7.083238E-05,15.66,0
1.0449,-1.208515E-05,15.6735,0,1.0449,7.016098E-05,15.6735,0
1.0458,-3.692683E-06,15.687,0,1.0458,9.802396E-05,15.687,0
1.0467,-2.349889E-06,15.7005,0,1.0467,2.853437E-05,15.7005,0
1.0476,3.356985E-05,15.714,0,1.0476,-2.316319E-05,15.714,0
1.0485,1.846342E-05,15.7275,0,1.0485,1.980621E-05,15.7275,0
1.0494,-6.713969E-06,15.741,0,1.0494,-3.021286E-06,15.741,0
1.0503,-5.740444E-05,15.7545,0,1.0503,-5.975433E-05,15.7545,0
1.0512,-4.666209E-05,15.768,0,1.0512,-4.33051E-05,15.768,0
1.0521,-2.349889E-06,15.7815,0,1.0521,-7.150377E-05,15.7815,0
1.053,-3.356985E-07,15.795,0,1.053,-0.0001040665,15.795,0
1.0539,2.652018E-05,15.8085,0,1.0539,-6.64683E-05,15.8085,0
1.0548,3.860533E-05,15.822,0,1.0548,-2.517739E-05,15.822,0
1.0557,5.606165E-05,15.8355,0,1.0557,5.035477E-06,15.8355,0
1.0566,3.692683E-05,15.849,0,1.0566,1.712062E-05,15.849,0
1.0575,-5.035477E-06,15.8625,0,1.0575,1.779202E-05,15.8625,0
1.0584,5.471885E-05,15.876,0,1.0584,4.666209E-05,15.876,0
1.0593,-8.728161E-06,15.8895,0,1.0593,6.881819E-05,15.8895,0
1.0602,-3.021286E-05,15.903,0,1.0602,1.980621E-05,15.903,0
1.0611,9.063859E-06,15.9165,0,1.0611,-9.298848E-05,15.9165,0
1.062,-3.659113E-05,15.93,0,1.062,-9.634547E-05,15.93,0
1.0629,-3.189136E-05,15.9435,0,1.0629,-0.0001033951,15.9435,0
1.0638,7.721065E-06,15.957,0,1.0638,-0.000133608,15.957,0
1.0647,-9.063859E-06,15.9705,0,1.0647,-7.183947E-05,15.9705,0
1.0656,-1.577783E-05,15.984,0,1.0656,2.484169E-05,15.984,0
1.0665,2.551309E-05,15.9975,0,1.0665,7.150377E-05,15.9975,0
1.0674,4.934768E-05,16.011,0,1.0674,0.0001101091,16.011,0
1.0683,4.867628E-05,16.0245,0,1.0683,0.0001104448,16.0245,0
1.0692,1.913481E-05,16.038,0,1.0692,5.505455E-05,16.038,0
1.0701,-2.014191E-05,16.0515,0,1.0701,1.577783E-05,16.0515,0
1.071,-0.0001101091,16.065,0,1.071,-3.424125E-05,16.065,0
1.0719,-0.0001037308,16.0785,0,1.0719,-4.196231E-05,16.0785,0
1.0728,-6.74754E-05,16.092,0,1.0728,-1.443504E-05,16.092,0
1.0737,-5.169757E-05,16.1055,0,1.0737,-7.284657E-05,16.1055,0
1.0746,-1.712062E-05,16.119,0,1.0746,-0.0001265583,16.119,0
1.0755,2.1149E-05,16.1325,0,1.0755,-9.970245E-05,16.1325,0
1.0764,4.53193E-05,16.146,0,1.0764,-8.358892E-05,16.146,0
1.0773,5.740444E-05,16.1595,0,1.0773,-6.64683E-05,16.1595,0
1.0782,3.659113E-05,16.173,0,1.0782,3.994812E-05,16.173,0
1.0791,-1.107805E-05,16.1865,0,1.0791,9.567407E-05,16.1865,0
1.08,8.728161E-06,16.2,0,1.08,6.6804E-05,16.2,0
1.0809,3.927672E-05,16.2135,0,1.0809,-2.551309E-05,16.2135,0
1.0818,7.821774E-05,16.227,0,1.0818,-4.766919E-05,16.227,0
1.0827,6.74754E-05,16.2405,0,1.0827,-4.061952E-05,16.2405,0
1.0836,4.901198E-05,16.254,0,1.0836,3.692683E-05,16.254,0
1.0845,-6.713969E-06,16.2675,0,1.0845,-8.392462E-06,16.2675,0
1.0854,-2.18204E-05,16.281,0,1.0854,-5.404745E-05,16.281,0
1.0863,-8.224613E-05,16.2945,0,1.0863,1.577783E-05,16.2945,0
1.0872,-9.332418E-05,16.308,0,1.0872,8.392462E-06,16.308,0
1.0881,-5.136187E-05,16.3215,0,1.0881,-8.89601E-05,16.3215,0
1.089,-9.466698E-05,16.335,0,1.089,-4.934768E-05,16.335,0
1.0899,-1.141375E-05,16.3485,0,1.0899,-2.316319E-05,16.3485,0
1.0908,3.356985E-07,16.362,0,1.0908,-2.786297E-05,16.362,0
1.0917,-8.728161E-06,16.3755,0,1.0917,-7.150377E-05,16.3755,0
1.0926,-3.692683E-05,16.389,0,1.0926,-0.0001228656,16.389,0
1.0935,-8.493171E-05,16.4025,0,1.0935,-0.000148043,16.4025,0
1.0944,-5.471885E-05,16.416,0,1.0944,-0.0001309224,16.416,0
1.0953,-3.659113E-05,16.4295,0,1.0953,-0.0001708705,16.4295,0
1.0962,2.987716E-05,16.443,0,1.0962,-9.130999E-05,16.443,0
1.0971,6.009003E-05,16.4565,0,1.0971,2.450599E-05,16.4565,0
1.098,6.915389E-05,16.47,0,1.098,9.030289E-05,16.47,0
1.0989,0.0001255512,16.4835,0,1.0989,0.0001245441,16.4835,0
1.0998,1.443504E-05,16.497,0,1.0998,6.478981E-05,16.497,0
1.1007,-4.196231E-05,16.5105,0,1.1007,3.591974E-05,16.5105,0
1.1016,-1.712062E-05,16.524,0,1.1016,1.107805E-05,16.524,0
1.1025,1.779202E-05,16.5375,0,1.1025,5.673304E-05,16.5375,0
1.1034,-4.632639E-05,16.551,0,1.1034,1.678492E-05,16.551,0
1.1043,-0.000102388,16.5645,0,1.1043,-3.021286E-06,16.5645,0
1.1052,-1.913481E-05,16.578,0,1.1052,2.920577E-05,16.578,0
1.1061,5.035477E-06,16.5915,0,1.1061,3.054856E-05,16.5915,0
1.107,2.383459E-05,16.605,0,1.107,-2.685588E-06,16.605,0
1.1079,2.887007E-05,16.6185,0,1.1079,-7.049668E-06,16.6185,0
1.1088,-2.24918E-05,16.632,0,1.1088,-1.980621E-05,16.632,0
1.1097,-5.035477E-06,16.6455,0,1.1097,6.713969E-07,16.6455,0
1.1106,-1.644922E-05,16.659,0,1.1106,2.517739E-05,16.659,0
1.1115,-0.0001074235,16.6725,0,1.1115,-3.121996E-05,16.6725,0
1.1124,-7.855344E-05,16.686,0,1.1124,-3.659113E-05,16.686,0
1.1133,-7.721065E-06,16.6995,0,1.1133,-2.047761E-05,16.6995,0
1.1142,9.298848E-05,16.713,0,1.1142,-4.39765E-05,16.713,0
1.1151,0.0001577783,16.7265,0,1.1151,-7.217517E-05,16.7265,0
1.116,9.533837E-05,16.74,0,1.116,-3.491264E-05,16.74,0
1.1169,4.53193E-05,16.7535,0,1.1169,-5.035477E-05,16.7535,0
1.1178,6.378271E-06,16.767,0,1.1178,-6.54612E-05,16.767,0
1.1187,-7.016098E-05,16.7805,0,1.1187,-3.054856E-05,16.7805,0
1.1196,-0.0001114519,16.794,0,1.1196,-1.107805E-05,16.794,0
1.1205,-9.903105E-05,16.8075,0,1.1205,-2.551309E-05,16.8075,0
1.1214,-5.203327E-05,16.821,0,1.1214,-3.860533E-05,16.821,0
1.1223,-7.385367E-06,16.8345,0,1.1223,-5.505455E-05,16.8345,0
1.1232,-1.342794E-05,16.848,0,1.1232,-2.014191E-05,16.848,0
1.1241,-4.196231E-05,16.8615,0,1.1241,1.678492E-06,16.8615,0
1.125,-9.735256E-06,16.875,0,1.125,5.706874E-06,16.875,0
1.1259,7.049668E-06,16.8885,0,1.1259,-8.728161E-06,16.8885,0
1.1268,1.577783E-05,16.902,0,1.1268,3.994812E-05,16.902,0
1.1277,7.217517E-05,16.9155,0,1.1277,-3.021286E-06,16.9155,0
1.1286,8.72816E-05,16.929,0,1.1286,-6.54612E-05,16.929,0
1.1295,2.18204E-05,16.9425,0,1.1295,-2.349889E-05,16.9425,0
1.1304,-2.685588E-06,16.956,0,1.1304,-9.063859E-06,16.956,0
1.1313,-1.242084E-05,16.9695,0,1.1313,-2.786297E-05,16.9695,0
1.1322,-2.21561E-05,16.983,0,1.1322,9.399558E-06,16.983,0
1.1331,-1.242084E-05,16.9965,0,1.1331,1.712062E-05,16.9965,0
1.134,-3.021286E-06,17.01,0,1.134,-4.33051E-05,17.01,0
1.1349,-4.632639E-05,17.0235,0,1.1349,-3.726253E-05,17.0235,0
1.1358,-6.076142E-05,17.037,0,1.1358,-4.901198E-05,17.037,0
1.1367,-3.692683E-06,17.0505,0,1.1367,-3.894102E-05,17.0505,0
1.1376,-5.102617E-05,17.064,0,1.1376,-2.18204E-05,17.064,0
1.1385,-5.236896E-05,17.0775,0,1.1385,-1.443504E-05,17.0775,0
1.1394,2.652018E-05,17.091,0,1.1394,-3.256275E-05,17.091,0
1.1403,1.712062E-05,17.1045,0,1.1403,2.383459E-05,17.1045,0
1.1412,-1.107805E-05,17.118,0,1.1412,2.349889E-06,17.118,0
1.1421,2.21561E-05,17.1315,0,1.1421,-4.33051E-05,17.1315,0
1.143,3.054856E-05,17.145,0,1.143,-3.927672E-05,17.145,0
1.1439,-1.007095E-06,17.1585,0,1.1439,-2.18204E-05,17.1585,0
1.1448,-2.584878E-05,17.172,0,1.1448,-2.18204E-05,17.172,0
1.1457,1.443504E-05,17.1855,0,1.1457,-2.24918E-05,17.1855,0
1.1466,-5.337606E-05,17.199,0,1.1466,2.685588E-06,17.199,0
1.1475,-3.121996E-05,17.2125,0,1.1475,-1.913481E-05,17.2125,0
1.1484,2.047761E-05,17.226,0,1.1484,-4.699779E-06,17.226,0
1.1493,3.289845E-05,17.2395,0,1.1493,-2.752728E-05,17.2395,0
1.1502,2.28275E-05,17.253,0,1.1502,-7.083238E-05,17.253,0
1.1511,1.644922E-05,17.2665,0,1.1511,-6.143282E-05,17.2665,0
1.152,-6.042573E-06,17.28,0,1.152,-0.0001013809,17.28,0
1.1529,-8.325322E-05,17.2935,0,1.1529,-0.0001265583,17.2935,0
1.1538,-5.673304E-05,17.307,0,1.1538,-7.721065E-06,17.307,0
1.1547,-5.774014E-05,17.3205,0,1.1547,6.411841E-05,17.3205,0
1.1556,-3.323415E-05,17.334,0,1.1556,7.183947E-05,17.334,0
1.1565,-2.18204E-05,17.3475,0,1.1565,4.061952E-05,17.3475,0
1.1574,-3.256275E-05,17.361,0,1.1574,-5.236896E-05,17.361,0
1.1583,-1.443504E-05,17.3745,0,1.1583,-0.0001420005,17.3745,0
1.1592,5.673304E-05,17.388,0,1.1592,-0.0001426719,17.388,0
1.1601,7.217517E-05,17.4015,0,1.1601,-9.735256E-05,17.4015,0
1.161,3.457694E-05,17.415,0,1.161,-1.107805E-05,17.415,0
1.1619,-4.599069E-05,17.4285,0,1.1619,0.0001138018,17.4285,0
1.1628,-6.076142E-05,17.442,0,1.1628,0.0001171588,17.442,0
1.1637,-3.121996E-05,17.4555,0,1.1637,4.36408E-05,17.4555,0
1.1646,-6.915389E-05,17.469,0,1.1646,1.879912E-05,17.469,0
1.1655,-1.913481E-05,17.4825,0,1.1655,-1.812772E-05,17.4825,0
1.1664,7.049668E-06,17.496,0,1.1664,-4.263371E-05,17.496,0
1.1673,6.042573E-06,17.5095,0,1.1673,4.229801E-05,17.5095,0
1.1682,0,17.523,0,1.1682,7.049668E-05,17.523,0
1.1691,1.007095E-06,17.5365,0,1.1691,5.069047E-05,17.5365,0
1.17,-1.577783E-05,17.55,0,1.17,6.344701E-05,17.55,0
1.1709,2.047761E-05,17.5635,0,1.1709,2.047761E-05,17.5635,0
1.1718,5.304036E-05,17.577,0,1.1718,-2.719158E-05,17.577,0
1.1727,6.814679E-05,17.5905,0,1.1727,-3.390555E-05,17.5905,0
1.1736,2.819867E-05,17.604,0,1.1736,-9.063859E-06,17.604,0
1.1745,3.155566E-05,17.6175,0,1.1745,-3.155566E-05,17.6175,0
1.1754,6.411841E-05,17.631,0,1.1754,-4.196231E-05,17.631,0
1.1763,5.203327E-05,17.6445,0,1.1763,-5.874724E-05,17.6445,0
1.1772,3.189136E-05,17.658,0,1.1772,-5.404745E-05,17.658,0
1.1781,5.035477E-06,17.6715,0,1.1781,-5.404745E-05,17.6715,0
1.179,-3.994812E-05,17.685,0,1.179,-0.0001013809,17.685,0
1.1799,-6.64683E-05,17.6985,0,1.1799,-0.000102388,17.6985,0
1.1808,-9.030289E-05,17.712,0,1.1808,-3.121996E-05,17.712,0
1.1817,-9.198138E-05,17.7255,0,1.1817,-3.625543E-05,17.7255,0
1.1826,-3.927672E-05,17.739,0,1.1826,-1.309224E-05,17.739,0
1.1835,-1.577783E-05,17.7525,0,1.1835,7.452507E-05,17.7525,0
1.1844,-2.18204E-05,17.766,0,1.1844,3.457694E-05,17.766,0
1.1853,-3.692683E-06,17.7795,0,1.1853,-2.584878E-05,17.7795,0
1.1862,4.028382E-06,17.793,0,1.1862,-4.599069E-05,17.793,0
1.1871,-3.356985E-06,17.8065,0,1.1871,-1.947051E-05,17.8065,0
1.188,-2.584878E-05,17.82,0,1.188,-3.793393E-05,17.82,0
1.1889,-2.18204E-05,17.8335,0,1.1889,-6.74754E-05,17.8335,0
1.1898,-2.752728E-05,17.847,0,1.1898,-4.061952E-05,17.847,0
1.1907,-7.049668E-06,17.8605,0,1.1907,2.652018E-05,17.8605,0
1.1916,2.1149E-05,17.874,0,1.1916,5.438316E-05,17.874,0
1.1925,2.685588E-05,17.8875,0,1.1925,-2.349889E-06,17.8875,0
1.1934,3.961242E-05,17.901,0,1.1934,-5.270466E-05,17.901,0
1.1943,6.6804E-05,17.9145,0,1.1943,-6.713969E-07,17.9145,0
1.1952,4.39765E-05,17.928,0,1.1952,-1.342794E-06,17.928,0
1.1961,-5.706874E-06,17.9415,0,1.1961,-5.539025E-05,17.9415,0
1.197,-5.572595E-05,17.955,0,1.197,-8.392462E-06,17.955,0
1.1979,-8.090334E-05,17.9685,0,1.1979,2.047761E-05,17.9685,0
1.1988,-4.901198E-05,17.982,0,1.1988,-3.961242E-05,17.982,0
1.1997,-3.524834E-05,17.9955,0,1.1997,-7.888914E-05,17.9955,0
1.2006,-1.242084E-05,18.009,0,1.2006,-6.74754E-05,18.009,0
1.2015,7.049668E-06,18.0225,0,1.2015,-5.673304E-05,18.0225,0
1.2024,1.577783E-05,18.036,0,1.2024,-6.109713E-05,18.036,0
1.2033,6.478981E-05,18.0495,0,1.2033,-5.404745E-05,18.0495,0
1.2042,3.692683E-06,18.063,0,1.2042,1.141375E-05,18.063,0
1.2051,-7.418937E-05,18.0765,0,1.2051,3.927672E-05,18.0765,0
1.206,-4.599069E-05,18.09,0,1.206,6.713969E-07,18.09,0
1.2069,-1.678492E-05,18.1035,0,1.2069,-4.968337E-05,18.1035,0
1.2078,-4.46479E-05,18.117,0,1.2078,-2.417029E-05,18.117,0
1.2087,-4.061952E-05,18.1305,0,1.2087,-5.304036E-05,18.1305,0
1.2096,2.014191E-05,18.144,0,1.2096,-7.821774E-05,18.144,0
1.2105,4.867628E-05,18.1575,0,1.2105,-1.779202E-05,18.1575,0
1.2114,2.685588E-05,18.171,0,1.2114,-8.89601E-05,18.171,0
1.2123,1.040665E-05,18.1845,0,1.2123,-0.000158114,18.1845,0
1.2132,9.063859E-06,18.198,0,1.2132,-0.0001003738,18.198,0
1.2141,-3.021286E-06,18.2115,0,1.2141,-5.706874E-06,18.2115,0
1.215,-3.860533E-05,18.225,0,1.215,4.800488E-05,18.225,0
1.2159,-2.517739E-05,18.2385,0,1.2159,0.0001080949,18.2385,0
1.2168,-1.644922E-05,18.252,0,1.2168,9.768826E-05,18.252,0
1.2177,-4.766919E-05,18.2655,0,1.2177,0.000105745,18.2655,0
1.2186,-7.418937E-05,18.279,0,1.2186,5.069047E-05,18.279,0
1.2195,-2.047761E-05,18.2925,0,1.2195,-7.217517E-05,18.2925,0
1.2204,-6.378271E-06,18.306,0,1.2204,-7.284657E-05,18.306,0
1.2213,-3.121996E-05,18.3195,0,1.2213,4.33051E-05,18.3195,0
1.2222,-4.53193E-05,18.333,0,1.2222,2.954147E-05,18.333,0
1.2231,-6.378271E-06,18.3465,0,1.2231,-5.706874E-06,18.3465,0
1.224,-2.584878E-05,18.36,0,1.224,4.632639E-05,18.36,0
1.2249,-5.706874E-06,18.3735,0,1.2249,7.586786E-05,18.3735,0
1.2258,1.678492E-06,18.387,0,1.2258,2.18204E-05,18.387,0
1.2267,1.846342E-05,18.4005,0,1.2267,-3.994812E-05,18.4005,0
1.2276,1.107805E-05,18.414,0,1.2276,-2.316319E-05,18.414,0
1.2285,3.659113E-05,18.4275,0,1.2285,-3.659113E-05,18.4275,0
1.2294,4.129091E-05,18.441,0,1.2294,-4.968337E-05,18.441,0
1.2303,3.591974E-05,18.4545,0,1.2303,-6.143282E-05,18.4545,0
1.2312,4.129091E-05,18.468,0,1.2312,-2.18204E-05,18.468,0
1.2321,4.53193E-05,18.4815,0,1.2321,-4.632639E-05,18.4815,0
1.233,4.867628E-05,18.495,0,1.233,-0.0001131304,18.495,0
1.2339,3.726253E-05,18.5085,0,1.2339,-0.0001080949,18.5085,0
1.2348,3.256275E-05,18.522,0,1.2348,-2.618448E-05,18.522,0
1.2357,7.217517E-05,18.5355,0,1.2357,1.007095E-06,18.5355,0
1.2366,6.948959E-05,18.549,0,1.2366,1.812772E-05,18.549,0
1.2375,-2.652018E-05,18.5625,0,1.2375,0.0001144732,18.5625,0
1.2384,-3.994812E-05,18.576,0,1.2384,0.0001117876,18.576,0
1.2393,-5.404745E-05,18.5895,0,1.2393,1.678492E-06,18.5895,0
1.2402,-8.258183E-05,18.603,0,1.2402,3.692683E-06,18.603,0
1.2411,-5.304036E-05,18.6165,0,1.2411,1.947051E-05,18.6165,0
1.242,2.920577E-05,18.63,0,1.242,-2.853437E-05,18.63,0
1.2429,4.095522E-05,18.6435,0,1.2429,-5.438316E-05,18.6435,0
1.2438,3.994812E-05,18.657,0,1.2438,-8.96315E-05,18.657,0
1.2447,1.779202E-05,18.6705,0,1.2447,-5.774014E-05,18.6705,0
1.2456,-4.53193E-05,18.684,0,1.2456,-2.24918E-05,18.684,0
1.2465,-6.277562E-05,18.6975,0,1.2465,-3.726253E-05,18.6975,0
1.2474,-9.063859E-05,18.711,0,1.2474,-5.438316E-05,18.711,0
1.2483,-9.500267E-05,18.7245,0,1.2483,-7.049668E-06,18.7245,0
1.2492,-7.586786E-05,18.738,0,1.2492,-1.779202E-05,18.738,0
1.2501,-6.176852E-05,18.7515,0,1.2501,-8.761731E-05,18.7515,0
1.251,-7.284657E-05,18.765,0,1.251,-2.719158E-05,18.765,0
1.2519,-5.774014E-05,18.7785,0,1.2519,1.678492E-06,18.7785,0
1.2528,-1.040665E-05,18.792,0,1.2528,-5.136187E-05,18.792,0
1.2537,1.007095E-06,18.8055,0,1.2537,-4.800488E-05,18.8055,0
1.2546,-7.049668E-06,18.819,0,1.2546,-1.644922E-05,18.819,0
1.2555,-6.042573E-06,18.8325,0,1.2555,-1.980621E-05,18.8325,0
1.2564,2.014191E-06,18.846,0,1.2564,-1.644922E-05,18.846,0
1.2573,2.1149E-05,18.8595,0,1.2573,-7.385367E-05,18.8595,0
1.2582,2.517739E-05,18.873,0,1.2582,-8.258183E-05,18.873,0
1.2591,2.450599E-05,18.8865,0,1.2591,-5.001907E-05,18.8865,0
1.26,5.337606E-05,18.9,0,1.26,-3.424125E-05,18.9,0
1.2609,7.284657E-05,18.9135,0,1.2609,-7.351797E-05,18.9135,0
1.2618,7.486076E-05,18.927,0,1.2618,-4.263371E-05,18.927,0
1.2627,3.994812E-05,18.9405,0,1.2627,-8.023193E-05,18.9405,0
1.2636,-6.478981E-05,18.954,0,1.2636,-9.332418E-05,18.954,0
1.2645,-0.0001033951,18.9675,0,1.2645,-1.913481E-05,18.9675,0
1.2654,-5.941863E-05,18.981,0,1.2654,-2.18204E-05,18.981,0
1.2663,-9.768826E-05,18.9945,0,1.2663,6.713969E-06,18.9945,0
1.2672,-0.0001460288,19.008,0,1.2672,9.500267E-05,19.008,0
1.2681,-2.920577E-05,19.0215,0,1.2681,0.0001544213,19.0215,0
1.269,1.242084E-05,19.035,0,1.269,0.0001037308,19.035,0
1.2699,2.1149E-05,19.0485,0,1.2699,3.793393E-05,19.0485,0
1.2708,3.524834E-05,19.062,0,1.2708,2.685588E-06,19.062,0
1.2717,1.040665E-05,19.0755,0,1.2717,5.035477E-06,19.0755,0
1.2726,-1.577783E-05,19.089,0,1.2726,-2.349889E-06,19.089,0
1.2735,-5.069047E-05,19.1025,0,1.2735,-7.217517E-05,19.1025,0
1.2744,-4.39765E-05,19.116,0,1.2744,-6.915389E-05,19.116,0
1.2753,1.040665E-05,19.1295,0,1.2753,2.920577E-05,19.1295,0
1.2762,4.800488E-05,19.143,0,1.2762,3.759823E-05,19.143,0
1.2771,9.433127E-05,19.1565,0,1.2771,2.349889E-06,19.1565,0
1.278,9.030289E-05,19.17,0,1.278,3.659113E-05,19.17,0
1.2789,6.143282E-05,19.1835,0,1.2789,-1.779202E-05,19.1835,0
1.2798,9.735256E-06,19.197,0,1.2798,-0.0001087663,19.197,0
1.2807,-8.526741E-05,19.2105,0,1.2807,-0.0001154803,19.2105,0
1.2816,-7.083238E-05,19.224,0,1.2816,-5.471885E-05,19.224,0
1.2825,-2.517739E-05,19.2375,0,1.2825,-6.51255E-05,19.2375,0
1.2834,-2.450599E-05,19.251,0,1.2834,-5.606165E-05,19.251,0
1.2843,-6.713969E-06,19.2645,0,1.2843,-6.378271E-06,19.2645,0
1.2852,4.800488E-05,19.278,0,1.2852,1.779202E-05,19.278,0
1.2861,0.0001279011,19.2915,0,1.2861,-0.0001013809,19.2915,0
1.287,0.0001393149,19.305,0,1.287,-0.0001628138,19.305,0
1.2879,0.0001040665,19.3185,0,1.2879,-0.0001275654,19.3185,0
1.2888,5.505455E-05,19.332,0,1.2888,-2.584878E-05,19.332,0
1.2897,2.047761E-05,19.3455,0,1.2897,2.21561E-05,19.3455,0
1.2906,-2.719158E-05,19.359,0,1.2906,5.606165E-05,19.359,0
1.2915,-0.0001708705,19.3725,0,1.2915,0.0001742275,19.3725,0
1.2924,-0.0001399863,19.386,0,1.2924,0.0002051118,19.386,0
1.2933,-7.989624E-05,19.3995,0,1.2933,7.183947E-05,19.3995,0
1.2942,-7.016098E-05,19.413,0,1.2942,8.72816E-05,19.413,0
1.2951,-4.33051E-05,19.4265,0,1.2951,4.129091E-05,19.4265,0
1.296,-1.443504E-05,19.44,0,1.296,-6.378271E-06,19.44,0
1.2969,7.183947E-05,19.4535,0,1.2969,-4.867628E-05,19.4535,0
1.2978,0.0001312581,19.467,0,1.2978,-7.620356E-05,19.467,0
1.2987,7.452507E-05,19.4805,0,1.2987,-4.33051E-05,19.4805,0
1.2996,4.699779E-06,19.494,0,1.2996,-6.848249E-05,19.494,0
1.3005,-6.61326E-05,19.5075,0,1.3005,-7.553216E-05,19.5075,0
1.3014,-0.000126894,19.521,0,1.3014,-2.014191E-05,19.521,0
1.3023,-0.0001839628,19.5345,0,1.3023,7.318227E-05,19.5345,0
1.3032,-0.0001178302,19.548,0,1.3032,-4.699779E-06,19.548,0
1.3041,2.349889E-06,19.5615,0,1.3041,-5.941863E-05,19.5615,0
1.305,-7.721065E-06,19.575,0,1.305,-4.699779E-05,19.575,0
1.3059,-2.047761E-05,19.5885,0,1.3059,-8.795301E-05,19.5885,0
1.3068,1.309224E-05,19.602,0,1.3068,-0.0001477073,19.602,0
1.3077,-3.726253E-05,19.6155,0,1.3077,-0.0001144732,19.6155,0
1.3086,-3.021286E-05,19.629,0,1.3086,-6.042573E-05,19.629,0
1.3095,-8.392462E-06,19.6425,0,1.3095,-1.980621E-05,19.6425,0
1.3104,-2.954147E-05,19.656,0,1.3104,-2.081331E-05,19.656,0
1.3113,-1.342794E-06,19.6695,0,1.3113,-2.853437E-05,19.6695,0
1.3122,4.196231E-05,19.683,0,1.3122,5.270466E-05,19.683,0
1.3131,1.040665E-05,19.6965,0,1.3131,0.0001107805,19.6965,0
1.314,1.980621E-05,19.71,0,1.314,5.740444E-05,19.71,0
1.3149,2.349889E-05,19.7235,0,1.3149,-1.577783E-05,19.7235,0
1.3158,-3.189136E-05,19.737,0,1.3158,-1.342794E-05,19.737,0
1.3167,-4.33051E-05,19.7505,0,1.3167,-3.793393E-05,19.7505,0
1.3176,3.591974E-05,19.764,0,1.3176,-4.33051E-05,19.764,0
1.3185,1.544213E-05,19.7775,0,1.3185,1.779202E-05,19.7775,0
1.3194,4.901198E-05,19.791,0,1.3194,-5.035477E-06,19.791,0
1.3203,5.572595E-05,19.8045,0,1.3203,-5.471885E-05,19.8045,0
1.3212,3.289845E-05,19.818,0,1.3212,-4.968337E-05,19.818,0
1.3221,5.706874E-06,19.8315,0,1.3221,-3.558404E-05,19.8315,0
1.323,3.356985E-07,19.845,0,1.323,-6.6804E-05,19.845,0
1.3239,-1.242084E-05,19.8585,0,1.3239,-0.0001148089,19.8585,0
1.3248,-2.014191E-05,19.872,0,1.3248,-0.0002030976,19.872,0
1.3257,2.652018E-05,19.8855,0,1.3257,-0.0001641566,19.8855,0
1.3266,0.0001205158,19.899,0,1.3266,-8.325322E-05,19.899,0
1.3275,0.0001232013,19.9125,0,1.3275,-6.210422E-05,19.9125,0
1.3284,9.768826E-05,19.926,0,1.3284,7.385367E-06,19.926,0
1.3293,7.888914E-05,19.9395,0,1.3293,6.881819E-05,19.9395,0
1.3302,-1.779202E-05,19.953,0,1.3302,9.970245E-05,19.953,0
1.3311,-6.344701E-05,19.9665,0,1.3311,8.795301E-05,19.9665,0
1.332,-0.0001326009,19.98,0,1.332,8.157473E-05,19.98,0
1.3329,-8.92958E-05,19.9935,0,1.3329,1.577783E-05,19.9935,0
1.3338,-3.054856E-05,20.007,0,1.3338,-7.351797E-05,20.007,0
1.3347,-2.584878E-05,20.0205,0,1.3347,-8.224613E-05,20.0205,0
1.3356,-7.586786E-05,20.034,0,1.3356,-3.256275E-05,20.034,0
1.3365,-4.699779E-06,20.0475,0,1.3365,4.36408E-06,20.0475,0
1.3374,4.162661E-05,20.061,0,1.3374,2.584878E-05,20.061,0
1.3383,-1.107805E-05,20.0745,0,1.3383,5.706874E-05,20.0745,0
1.3392,4.699779E-06,20.088,0,1.3392,4.699779E-05,20.088,0
1.3401,-7.821774E-05,20.1015,0,1.3401,-5.706874E-06,20.1015,0
1.341,-0.0001245441,20.115,0,1.341,-3.927672E-05,20.115,0
1.3419,-3.189136E-05,20.1285,0,1.3419,-4.39765E-05,20.1285,0
1.3428,-2.24918E-05,20.142,0,1.3428,6.378271E-05,20.142,0
1.3437,-2.819867E-05,20.1555,0,1.3437,5.471885E-05,20.1555,0
1.3446,3.591974E-05,20.169,0,1.3446,-7.721065E-06,20.169,0
1.3455,0.0001255512,20.1825,0,1.3455,5.941863E-05,20.1825,0
1.3464,0.0001849699,20.196,0,1.3464,4.061952E-05,20.196,0
1.3473,0.0001856413,20.2095,0,1.3473,-6.344701E-05,20.2095,0
1.3482,0.0002212253,20.223,0,1.3482,-7.217517E-05,20.223,0
1.3491,9.600977E-05,20.2365,0,1.3491,-7.217517E-05,20.2365,0
1.35,-0.0001080949,20.25,0,1.35,-6.378271E-05,20.25,0
1.3509,-0.000252781,20.2635,0,1.3509,-4.968337E-05,20.2635,0
1.3518,-0.0001698634,20.277,0,1.3518,3.356985E-07,20.277,0
1.3527,-0.0001054093,20.2905,0,1.3527,8.69459E-05,20.2905,0
1.3536,-0.0002138399,20.304,0,1.3536,-2.551309E-05,20.304,0
1.3545,-0.000185977,20.3175,0,1.3545,-0.0002319677,20.3175,0
1.3554,-0.0001033951,20.331,0,1.3554,-0.000274937,20.331,0
1.3563,-7.351797E-05,20.3445,0,1.3563,-0.0001812772,20.3445,0
1.3572,-0.0001346151,20.358,0,1.3572,-0.0001171588,20.358,0
1.3581,-3.021286E-06,20.3715,0,1.3581,-8.761731E-05,20.3715,0
1.359,0.0001641566,20.385,0,1.359,0.0001215228,20.385,0
1.3599,0.0001040665,20.3985,0,1.3599,0.000309514,20.3985,0
1.3608,6.74754E-05,20.412,0,1.3608,0.0001816129,20.412,0
1.3617,2.014191E-06,20.4255,0,1.3617,4.934768E-05,20.4255,0
1.3626,-8.090334E-05,20.439,0,1.3626,5.471885E-05,20.439,0
1.3635,-8.090334E-05,20.4525,0,1.3635,3.692683E-05,20.4525,0
1.3644,-8.560311E-05,20.466,0,1.3644,1.510643E-05,20.466,0
1.3653,-6.814679E-05,20.4795,0,1.3653,-3.558404E-05,20.4795,0
1.3662,-1.678492E-06,20.493,0,1.3662,-7.049668E-06,20.493,0
1.3671,8.358892E-05,20.5065,0,1.3671,6.378271E-06,20.5065,0
1.368,4.36408E-05,20.52,0,1.368,-5.337606E-05,20.52,0
1.3689,3.390555E-05,20.5335,0,1.3689,-9.265278E-05,20.5335,0
1.3698,5.539025E-05,20.547,0,1.3698,-4.901198E-05,20.547,0
1.3707,2.652018E-05,20.5605,0,1.3707,-5.841154E-05,20.5605,0
1.3716,8.157473E-05,20.574,0,1.3716,-0.0001252155,20.574,0
1.3725,8.627451E-05,20.5875,0,1.3725,-8.996719E-05,20.5875,0
1.3734,6.143282E-05,20.601,0,1.3734,-0.0001943694,20.601,0
1.3743,7.687495E-05,20.6145,0,1.3743,-0.0002581521,20.6145,0
1.3752,2.484169E-05,20.628,0,1.3752,-0.0002447242,20.628,0
1.3761,-0.0001221943,20.6415,0,1.3761,-0.0001621424,20.6415,0
1.377,-0.0001332723,20.655,0,1.377,-2.887007E-05,20.655,0
1.3779,1.007095E-06,20.6685,0,1.3779,0.0001685206,20.6685,0
1.3788,0.0001060807,20.682,0,1.3788,0.0003615473,20.682,0
1.3797,0.0001070878,20.6955,0,1.3797,0.000316228,20.6955,0
1.3806,1.174945E-05,20.709,0,1.3806,0.000119173,20.709,0
1.3815,0,20.7225,0,1.3815,3.692683E-06,20.7225,0
1.3824,-9.433127E-05,20.736,0,1.3824,-4.095522E-05,20.736,0
1.3833,-0.0001255512,20.7495,0,1.3833,2.349889E-06,20.7495,0
1.3842,7.217517E-05,20.763,0,1.3842,-2.349889E-05,20.763,0
1.3851,0.0001554284,20.7765,0,1.3851,-7.486076E-05,20.7765,0
1.386,9.164568E-05,20.79,0,1.386,-1.846342E-05,20.79,0
1.3869,3.860533E-05,20.8035,0,1.3869,1.812772E-05,20.8035,0
1.3878,-1.812772E-05,20.817,0,1.3878,-1.510643E-05,20.817,0
1.3887,-0.0001232013,20.8305,0,1.3887,-2.819867E-05,20.8305,0
1.3896,-0.0003017929,20.844,0,1.3896,1.577783E-05,20.844,0
1.3905,-0.0001443503,20.8575,0,1.3905,6.042573E-05,20.8575,0
1.3914,-4.36408E-05,20.871,0,1.3914,-1.376364E-05,20.871,0
1.3923,1.443504E-05,20.8845,0,1.3923,-7.318227E-05,20.8845,0
1.3932,5.337606E-05,20.898,0,1.3932,-2.719158E-05,20.898,0
1.3941,2.24918E-05,20.9115,0,1.3941,2.551309E-05,20.9115,0
1.395,-3.390555E-05,20.925,0,1.395,6.411841E-05,20.925,0
1.3959,-7.284657E-05,20.9385,0,1.3959,-2.047761E-05,20.9385,0
1.3968,-9.701686E-05,20.952,0,1.3968,-6.948959E-05,20.952,0
1.3977,-1.409934E-05,20.9655,0,1.3977,-6.478981E-05,20.9655,0
1.3986,3.121996E-05,20.979,0,1.3986,-0.0001218585,20.979,0
1.3995,3.356985E-05,20.9925,0,1.3995,-0.0001309224,20.9925,0
1.4004,6.54612E-05,21.006,0,1.4004,-0.0001060807,21.006,0
1.4013,0.0001101091,21.0195,0,1.4013,-0.0001054093,21.0195,0
1.4022,0.0001285725,21.033,0,1.4022,-3.961242E-05,21.033,0
1.4031,9.500267E-05,21.0465,0,1.4031,2.819867E-05,21.0465,0
1.404,0.0001789273,21.06,0,1.404,2.719158E-05,21.06,0
1.4049,0.0001554284,21.0735,0,1.4049,4.666209E-05,21.0735,0
1.4058,-7.284657E-05,21.087,0,1.4058,-8.560311E-05,21.087,0
1.4067,-0.0001560998,21.1005,0,1.4067,-5.807584E-05,21.1005,0
1.4076,-9.164568E-05,21.114,0,1.4076,-6.6804E-05,21.114,0
1.4085,-0.0001668421,21.1275,0,1.4085,-0.0001003738,21.1275,0
1.4094,-0.0002286107,21.141,0,1.4094,-5.841154E-05,21.141,0
1.4103,-7.284657E-05,21.1545,0,1.4103,1.309224E-05,21.1545,0
1.4112,3.021286E-05,21.168,0,1.4112,2.920577E-05,21.168,0
1.4121,-1.846342E-05,21.1815,0,1.4121,9.735256E-06,21.1815,0
1.413,-2.316319E-05,21.195,0,1.413,7.989624E-05,21.195,0
1.4139,2.047761E-05,21.2085,0,1.4139,0.0001211871,21.2085,0
1.4148,-2.450599E-05,21.222,0,1.4148,3.256275E-05,21.222,0
1.4157,7.721065E-06,21.2355,0,1.4157,-3.256275E-05,21.2355,0
1.4166,5.337606E-05,21.249,0,1.4166,-3.793393E-05,21.249,0
1.4175,1.242084E-05,21.2625,0,1.4175,-3.793393E-05,21.2625,0
1.4184,-3.021286E-06,21.276,0,1.4184,-7.016098E-05,21.276,0
1.4193,3.356985E-06,21.2895,0,1.4193,-0.0001013809,21.2895,0
1.4202,-2.18204E-05,21.303,0,1.4202,-8.224613E-05,21.303,0
1.4211,-7.888914E-05,21.3165,0,1.4211,-4.36408E-05,21.3165,0
1.422,-3.994812E-05,21.33,0,1.422,-3.692683E-05,21.33,0
1.4229,1.443504E-05,21.3435,0,1.4229,-2.349889E-05,21.3435,0
1.4238,0.0001923552,21.357,0,1.4238,8.023193E-05,21.357,0
1.4247,0.0003793393,21.3705,0,1.4247,2.786297E-05,21.3705,0
1.4256,0.00042533,21.384,0,1.4256,-7.016098E-05,21.384,0
1.4265,0.0003689326,21.3975,0,1.4265,-1.879912E-05,21.3975,0
1.4274,0.000203769,21.411,0,1.4274,-4.36408E-05,21.411,0
1.4283,6.814679E-05,21.4245,0,1.4283,-6.109713E-05,21.4245,0
1.4292,-0.000119173,21.438,0,1.4292,1.913481E-05,21.438,0
1.4301,-0.0002635233,21.4515,0,1.4301,3.054856E-05,21.4515,0
1.431,-0.0003931029,21.465,0,1.431,3.356985E-07,21.465,0
1.4319,-0.0004256657,21.4785,0,1.4319,-4.43122E-05,21.4785,0
1.4328,-0.0003353628,21.492,0,1.4328,-0.0001164874,21.492,0
1.4337,-0.0002205539,21.5055,0,1.4337,-0.0001064164,21.5055,0
1.4346,-0.0002292821,21.519,0,1.4346,-0.0001225299,21.519,0
1.4355,-0.0001668421,21.5325,0,1.4355,-0.0001554284,21.5325,0
1.4364,-0.0001748989,21.546,0,1.4364,-5.404745E-05,21.546,0
1.4373,-1.913481E-05,21.5595,0,1.4373,0.000235996,21.5595,0
1.4382,5.236896E-05,21.573,0,1.4382,0.0003014572,21.573,0
1.4391,5.337606E-05,21.5865,0,1.4391,7.049668E-06,21.5865,0
1.44,-4.43122E-05,21.6,0,1.44,-1.443504E-05,21.6,0
1.4409,-8.358892E-05,21.6135,0,1.4409,-0.0001225299,21.6135,0
1.4418,-9.500267E-05,21.627,0,1.4418,-0.0002081331,21.627,0
1.4427,-0.0001077592,21.6405,0,1.4427,-0.0001326009,21.6405,0
1.4436,5.035477E-06,21.654,0,1.4436,3.793393E-05,21.654,0
1.4445,0.0001554284,21.6675,0,1.4445,0.0001658351,21.6675,0
1.4454,0.0002813153,21.681,0,1.4454,0.0001138018,21.681,0
1.4463,0.0002910506,21.6945,0,1.4463,4.699779E-05,21.6945,0
1.4472,0.0002682231,21.708,0,1.4472,-3.356985E-06,21.708,0
1.4481,0.0002024262,21.7215,0,1.4481,-1.678492E-05,21.7215,0
1.449,0.0001037308,21.735,0,1.449,-1.242084E-05,21.735,0
1.4499,-8.96315E-05,21.7485,0,1.4499,5.337606E-05,21.7485,0
1.4508,6.311131E-05,21.762,0,1.4508,0.0001500572,21.762,0
1.4517,0.000249424,21.7755,0,1.4517,6.042573E-05,21.7755,0
1.4526,0.0001309224,21.789,0,1.4526,-5.740444E-05,21.789,0
1.4535,-4.699779E-06,21.8025,0,1.4535,2.853437E-05,21.8025,0
1.4544,-0.0001574426,21.816,0,1.4544,1.544213E-05,21.816,0
1.4553,-0.0002286107,21.8295,0,1.4553,-0.0001003738,21.8295,0
1.4562,-0.0004646067,21.843,0,1.4562,-9.399557E-05,21.843,0
1.4571,-0.0004823987,21.8565,0,1.4571,-9.063859E-05,21.8565,0
1.458,-0.0002088045,21.87,0,1.458,-0.0001383078,21.87,0
1.4589,-0.000144686,21.8835,0,1.4589,-0.0001245441,21.8835,0
1.4598,-2.517739E-05,21.897,0,1.4598,-6.210422E-05,21.897,0
1.4607,-3.356985E-06,21.9105,0,1.4607,-4.028382E-05,21.9105,0
1.4616,6.411841E-05,21.924,0,1.4616,1.275654E-05,21.924,0
1.4625,0.0002017548,21.9375,0,1.4625,-2.383459E-05,21.9375,0
1.4634,0.0002514381,21.951,0,1.4634,-2.24918E-05,21.951,0
1.4643,0.0001450217,21.9645,0,1.4643,2.752728E-05,21.9645,0
1.4652,4.49836E-05,21.978,0,1.4652,7.721065E-06,21.978,0
1.4661,1.174945E-05,21.9915,0,1.4661,-2.517739E-05,21.9915,0
1.467,-6.61326E-05,22.005,0,1.467,-8.392462E-06,22.005,0
1.4679,-0.0001211871,22.0185,0,1.4679,-2.517739E-05,22.0185,0
1.4688,-2.1149E-05,22.032,0,1.4688,-2.752728E-05,22.032,0
1.4697,8.661021E-05,22.0455,0,1.4697,-2.349889E-06,22.0455,0
1.4706,-6.71397E-05,22.059,0,1.4706,5.941863E-05,22.059,0
1.4715,-4.33051E-05,22.0725,0,1.4715,4.162661E-05,22.0725,0
1.4724,2.819867E-05,22.086,0,1.4724,3.021286E-06,22.086,0
1.4733,-1.443504E-05,22.0995,0,1.4733,-6.478981E-05,22.0995,0
1.4742,-4.934768E-05,22.113,0,1.4742,-8.123904E-05,22.113,0
1.4751,-6.713969E-06,22.1265,0,1.4751,-9.097429E-05,22.1265,0
1.476,3.591974E-05,22.14,0,1.476,-0.0001218585,22.14,0
1.4769,7.821774E-05,22.1535,0,1.4769,-0.0001352865,22.1535,0
1.4778,4.43122E-05,22.167,0,1.4778,-7.553216E-05,22.167,0
1.4787,4.800488E-05,22.1805,0,1.4787,-7.217517E-05,22.1805,0
1.4796,5.001907E-05,22.194,0,1.4796,-0.0001846342,22.194,0
1.4805,0.0001493858,22.2075,0,1.4805,-0.0001591211,22.2075,0
1.4814,0.0001957122,22.221,0,1.4814,-0.0001037308,22.221,0
1.4823,0.0001453574,22.2345,0,1.4823,-0.0001554284,22.2345,0
1.4832,8.82887E-05,22.248,0,1.4832,-0.0002017548,22.248,0
1.4841,1.577783E-05,22.2615,0,1.4841,-0.0001849699,22.2615,0
1.485,-8.493171E-05,22.275,0,1.485,-0.0002813153,22.275,0
1.4859,-0.0002487526,22.2885,0,1.4859,-0.0001265583,22.2885,0
1.4868,-0.0001775845,22.302,0,1.4868,9.063859E-05,22.302,0
1.4877,-2.786297E-05,22.3155,0,1.4877,0.0003017929,22.3155,0
1.4886,-1.678492E-05,22.329,0,1.4886,0.00042533,22.329,0
1.4895,-3.927672E-05,22.3425,0,1.4895,0.000383032,22.3425,0
1.4904,-2.047761E-05,22.356,0,1.4904,0.0004971694,22.356,0
1.4913,-2.014191E-06,22.3695,0,1.4913,0.0004226444,22.3695,0
1.4922,6.009003E-05,22.383,0,1.4922,0.0002104829,22.383,0
1.4931,2.685588E-05,22.3965,0,1.4931,6.411841E-05,22.3965,0
1.494,-1.644922E-05,22.41,0,1.494,5.673304E-05,22.41,0
1.4949,3.726253E-05,22.4235,0,1.4949,3.121996E-05,22.4235,0
1.4958,2.450599E-05,22.437,0,1.4958,-1.242084E-05,22.437,0
1.4967,-8.996719E-05,22.4505,0,1.4967,-1.007095E-05,22.4505,0
1.4976,-4.39765E-05,22.464,0,1.4976,-1.913481E-05,22.464,0
1.4985,7.385367E-06,22.4775,0,1.4985,-3.961242E-05,22.4775,0
1.4994,-3.323415E-05,22.491,0,1.4994,-0.000185977,22.491,0
1.5003,-8.090334E-05,22.5045,0,1.5003,-0.0002967575,22.5045,0
1.5012,6.378271E-06,22.518,0,1.5012,-0.0002803082,22.518,0
1.5021,-3.491264E-05,22.5315,0,1.5021,-0.0003477836,22.5315,0
1.503,-2.1149E-05,22.545,0,1.503,-0.0003293202,22.545,0
1.5039,3.994812E-05,22.5585,0,1.5039,-0.0002027619,22.5585,0
1.5048,0.0001007095,22.572,0,1.5048,3.793393E-05,22.572,0
1.5057,0.0001876554,22.5855,0,1.5057,0.0001812772,22.5855,0
1.5066,0.0001258869,22.599,0,1.5066,0.0001594568,22.599,0
1.5075,3.054856E-05,22.6125,0,1.5075,0.0002064546,22.6125,0
1.5084,6.814679E-05,22.626,0,1.5084,0.000105745,22.626,0
1.5093,-0.000105745,22.6395,0,1.5093,-2.685588E-06,22.6395,0
1.5102,-0.0002893721,22.653,0,1.5102,-1.544213E-05,22.653,0
1.5111,-0.0001742275,22.6665,0,1.5111,-1.812772E-05,22.6665,0
1.512,1.678492E-06,22.68,0,1.512,-6.210422E-05,22.68,0
1.5129,2.652018E-05,22.6935,0,1.5129,-7.888914E-05,22.6935,0
1.5138,8.89601E-05,22.707,0,1.5138,-0.0001373007,22.707,0
1.5147,7.956054E-05,22.7205,0,1.5147,-0.0001393149,22.7205,0
1.5156,-7.318227E-05,22.734,0,1.5156,-0.0001003738,22.734,0
1.5165,-2.24918E-05,22.7475,0,1.5165,-4.46479E-05,22.7475,0
1.5174,9.903105E-05,22.761,0,1.5174,-2.316319E-05,22.761,0
1.5183,5.841154E-05,22.7745,0,1.5183,3.256275E-05,22.7745,0
1.5192,7.452507E-05,22.788,0,1.5192,3.356985E-05,22.788,0
1.5201,1.040665E-05,22.8015,0,1.5201,1.812772E-05,22.8015,0
1.521,-0.000144686,22.815,0,1.521,3.390555E-05,22.815,0
1.5219,-0.0001816129,22.8285,0,1.5219,4.46479E-05,22.8285,0
1.5228,-0.0001060807,22.842,0,1.5228,-2.450599E-05,22.842,0
1.5237,-6.915389E-05,22.8555,0,1.5237,-2.1149E-05,22.8555,0
1.5246,-7.083238E-05,22.869,0,1.5246,-8.392462E-06,22.869,0
1.5255,-8.224613E-05,22.8825,0,1.5255,-2.887007E-05,22.8825,0
1.5264,-5.069047E-05,22.896,0,1.5264,-5.203327E-05,22.896,0
1.5273,-0.0001070878,22.9095,0,1.5273,-0.0001218585,22.9095,0
1.5282,-0.0001255512,22.923,0,1.5282,-0.0001258869,22.923,0
1.5291,2.014191E-06,22.9365,0,1.5291,-0.0001228656,22.9365,0
1.53,-8.392462E-06,22.95,0,1.53,-0.0001675135,22.95,0
1.5309,-1.644922E-05,22.9635,0,1.5309,-0.000164828,22.9635,0
1.5318,-2.081331E-05,22.977,0,1.5318,-2.752728E-05,22.977,0
1.5327,6.713969E-07,22.9905,0,1.5327,3.894102E-05,22.9905,0
1.5336,-4.061952E-05,23.004,0,1.5336,6.378271E-06,23.004,0
1.5345,4.733349E-05,23.0175,0,1.5345,9.701686E-05,23.0175,0
1.5354,0.0002762798,23.031,0,1.5354,4.263371E-05,23.031,0
1.5363,0.0001265583,23.0445,0,1.5363,-0.0001054093,23.0445,0
1.5372,-3.390555E-05,23.058,0,1.5372,-4.36408E-05,23.058,0
1.5381,-9.433127E-05,23.0715,0,1.5381,3.961242E-05,23.0715,0
1.539,-9.433127E-05,23.085,0,1.539,1.644922E-05,23.085,0
1.5399,-9.198138E-05,23.0985,0,1.5399,5.539025E-05,23.0985,0
1.5408,-6.713969E-07,23.112,0,1.5408,9.768826E-05,23.112,0
1.5417,6.277562E-05,23.1255,0,1.5417,5.102617E-05,23.1255,0
1.5426,3.390555E-05,23.139,0,1.5426,-6.076142E-05,23.139,0
1.5435,7.217517E-05,23.1525,0,1.5435,-8.258183E-05,23.1525,0
1.5444,1.477073E-05,23.166,0,1.5444,-8.258183E-05,23.166,0
1.5453,-2.081331E-05,23.1795,0,1.5453,1.007095E-05,23.1795,0
1.5462,-3.726253E-05,23.193,0,1.5462,-3.356985E-07,23.193,0
1.5471,-5.371176E-06,23.2065,0,1.5471,-8.86244E-05,23.2065,0
1.548,-3.256275E-05,23.22,0,1.548,-0.0001537499,23.22,0
1.5489,-4.46479E-05,23.2335,0,1.5489,-0.0001695277,23.2335,0
1.5498,2.853437E-05,23.247,0,1.5498,-0.0001359579,23.247,0
1.5507,3.961242E-05,23.2605,0,1.5507,7.049668E-06,23.2605,0
1.5516,-5.304036E-05,23.274,0,1.5516,0.000164828,23.274,0
1.5525,-5.941863E-05,23.2875,0,1.5525,0.0003038071,23.2875,0
1.5534,4.263371E-05,23.301,0,1.5534,0.0002329748,23.301,0
1.5543,5.874724E-05,23.3145,0,1.5543,5.438316E-05,23.3145,0
1.5552,0.0001520714,23.328,0,1.5552,-5.371176E-05,23.328,0
1.5561,0.0001863127,23.3415,0,1.5561,-6.61326E-05,23.3415,0
1.557,-2.652018E-05,23.355,0,1.557,-3.994812E-05,23.355,0
1.5579,-4.162661E-05,23.3685,0,1.5579,2.920577E-05,23.3685,0
1.5588,5.606165E-05,23.382,0,1.5588,3.558404E-05,23.382,0
1.5597,-1.107805E-05,23.3955,0,1.5597,2.786297E-05,23.3955,0
1.5606,3.054856E-05,23.409,0,1.5606,-6.713969E-07,23.409,0
1.5615,9.030289E-05,23.4225,0,1.5615,-3.793393E-05,23.4225,0
1.5624,-4.46479E-05,23.436,0,1.5624,-7.284657E-05,23.436,0
1.5633,-3.021286E-06,23.4495,0,1.5633,-0.0001060807,23.4495,0
1.5642,4.934768E-05,23.463,0,1.5642,-5.203327E-05,23.463,0
1.5651,-0.0001040665,23.4765,0,1.5651,3.726253E-05,23.4765,0
1.566,-0.0001695277,23.49,0,1.566,5.975433E-05,23.49,0
1.5669,-2.954147E-05,23.5035,0,1.5669,-9.063859E-06,23.5035,0
1.5678,-4.33051E-05,23.517,0,1.5678,-0.0001426719,23.517,0
1.5687,-2.685588E-06,23.5305,0,1.5687,-0.0002534524,23.5305,0
1.5696,1.443504E-05,23.544,0,1.5696,-0.0003293202,23.544,0
1.5705,2.786297E-05,23.5575,0,1.5705,-0.0003014572,23.5575,0
1.5714,-2.450599E-05,23.571,0,1.5714,-0.0002302892,23.571,0
1.5723,-7.418937E-05,23.5845,0,1.5723,-1.242084E-05,23.5845,0
1.5732,-2.752728E-05,23.598,0,1.5732,0.0002118257,23.598,0
1.5741,-3.424125E-05,23.6115,0,1.5741,0.0003205921,23.6115,0
1.575,-4.196231E-05,23.625,0,1.575,0.000291722,23.625,0
1.5759,0.0001111162,23.6385,0,1.5759,0.0001433432,23.6385,0
1.5768,0.0001658351,23.652,0,1.5768,2.853437E-05,23.652,0
1.5777,-3.356985E-07,23.6655,0,1.5777,3.356985E-05,23.6655,0
1.5786,-3.860533E-05,23.679,0,1.5786,1.812772E-05,23.679,0
1.5795,5.740444E-05,23.6925,0,1.5795,-4.49836E-05,23.6925,0
1.5804,6.344701E-05,23.706,0,1.5804,-4.867628E-05,23.706,0
1.5813,-2.786297E-05,23.7195,0,1.5813,-1.678492E-05,23.7195,0
1.5822,-4.36408E-06,23.733,0,1.5822,-1.342794E-05,23.733,0
1.5831,-0.0001198444,23.7465,0,1.5831,-5.169757E-05,23.7465,0
1.584,-0.0001802701,23.76,0,1.584,-0.0001060807,23.76,0
1.5849,-0.000102388,23.7735,0,1.5849,-9.835965E-05,23.7735,0
1.5858,-7.754635E-05,23.787,0,1.5858,-8.493171E-05,23.787,0
1.5867,-6.378271E-06,23.8005,0,1.5867,-0.0001272297,23.8005,0
1.5876,9.063859E-06,23.814,0,1.5876,-8.090334E-05,23.814,0
1.5885,3.591974E-05,23.8275,0,1.5885,3.289845E-05,23.8275,0
1.5894,8.493171E-05,23.841,0,1.5894,0.0001621424,23.841,0
1.5903,5.606165E-05,23.8545,0,1.5903,8.023193E-05,23.8545,0
1.5912,-1.980621E-05,23.868,0,1.5912,-7.049668E-06,23.868,0
1.5921,-3.457694E-05,23.8815,0,1.5921,-3.994812E-05,23.8815,0
1.593,-7.956054E-05,23.895,0,1.593,-8.090334E-05,23.895,0
1.5939,-8.69459E-05,23.9085,0,1.5939,-9.433127E-05,23.9085,0
1.5948,-0.0001688563,23.922,0,1.5948,-9.970245E-05,23.922,0
1.5957,-2.18204E-05,23.9355,0,1.5957,-4.599069E-05,23.9355,0
1.5966,0.0001138018,23.949,0,1.5966,2.316319E-05,23.949,0
1.5975,8.023193E-05,23.9625,0,1.5975,6.61326E-05,23.9625,0
1.5984,6.948959E-05,23.976,0,1.5984,2.819867E-05,23.976,0
1.5993,8.661021E-05,23.9895,0,1.5993,-2.685588E-06,23.9895,0
1.6002,7.318227E-05,24.003,0,1.6002,-0.0001013809,24.003,0
1.6011,1.376364E-05,24.0165,0,1.6011,-0.0001822843,24.0165,0
1.602,-8.69459E-05,24.03,0,1.602,-0.0001322652,24.03,0
1.6029,-5.706874E-06,24.0435,0,1.6029,-0.0001238727,24.0435,0
1.6038,0.0002890364,24.057,0,1.6038,-6.445411E-05,24.057,0
1.6047,0.000288365,24.0705,0,1.6047,0.000102388,24.0705,0
1.6056,-7.553216E-05,24.084,0,1.6056,8.82887E-05,24.084,0
1.6065,-0.0001420005,24.0975,0,1.6065,6.378271E-06,24.0975,0
1.6074,-0.0002531167,24.111,0,1.6074,4.46479E-05,24.111,0
1.6083,-0.0005693446,24.1245,0,1.6083,1.644922E-05,24.1245,0
1.6092,-8.661021E-05,24.138,0,1.6092,3.692683E-06,24.138,0
1.6101,0.0001641566,24.1515,0,1.6101,2.1149E-05,24.1515,0
1.611,6.143282E-05,24.165,0,1.611,1.678492E-05,24.165,0
1.6119,0.0001842985,24.1785,0,1.6119,-4.934768E-05,24.1785,0
1.6128,0.00033402,24.192,0,1.6128,-1.342794E-06,24.192,0
1.6137,0.00033402,24.2055,0,1.6137,-0.0001420005,24.2055,0
1.6146,6.076142E-05,24.219,0,1.6146,-0.0002893721,24.219,0
1.6155,-0.0002077974,24.2325,0,1.6155,-0.0002124971,24.2325,0
1.6164,-0.0003766537,24.246,0,1.6164,-0.0001467002,24.246,0
1.6173,-0.0004595712,24.2595,0,1.6173,-0.0001322652,24.2595,0
1.6182,-0.0003776608,24.273,0,1.6182,2.517739E-05,24.273,0
1.6191,-0.0001923552,24.2865,0,1.6191,0.0002490883,24.2865,0
1.62,-3.927672E-05,24.3,0,1.62,0.0003051499,24.3,0
1.6209,2.349889E-06,24.3135,0,1.6209,0.0002168612,24.3135,0
1.6218,-1.712062E-05,24.327,0,1.6218,0.0001638209,24.327,0
1.6227,-6.344701E-05,24.3405,0,1.6227,0.0001816129,24.3405,0
1.6236,-5.035477E-06,24.354,0,1.6236,0.0001534142,24.354,0
1.6245,6.344701E-05,24.3675,0,1.6245,1.242084E-05,24.3675,0
1.6254,3.927672E-05,24.381,0,1.6254,-6.51255E-05,24.381,0
1.6263,5.069047E-05,24.3945,0,1.6263,-4.968337E-05,24.3945,0
1.6272,7.049668E-05,24.408,0,1.6272,-9.500267E-05,24.408,0
1.6281,0.0001393149,24.4215,0,1.6281,-0.0001658351,24.4215,0
1.629,0.0002245823,24.435,0,1.629,-9.701686E-05,24.435,0
1.6299,9.097429E-05,24.4485,0,1.6299,-1.477073E-05,24.4485,0
1.6308,-7.418937E-05,24.462,0,1.6308,-2.584878E-05,24.462,0
1.6317,-7.083238E-05,24.4755,0,1.6317,-2.28275E-05,24.4755,0
1.6326,-9.835965E-05,24.489,0,1.6326,-1.107805E-05,24.489,0
1.6335,3.155566E-05,24.5025,0,1.6335,1.007095E-06,24.5025,0
1.6344,0.0001527428,24.516,0,1.6344,2.819867E-05,24.516,0
1.6353,0.0001161517,24.5295,0,1.6353,1.342794E-06,24.5295,0
1.6362,2.987716E-05,24.543,0,1.6362,-9.231708E-05,24.543,0
1.6371,-2.819867E-05,24.5565,0,1.6371,-0.0002759442,24.5565,0
1.638,-3.356985E-07,24.57,0,1.638,-0.0003246204,24.57,0
1.6389,2.853437E-05,24.5835,0,1.6389,-0.0003360342,24.5835,0
1.6398,1.510643E-05,24.597,0,1.6398,-0.0002329748,24.597,0
1.6407,2.954147E-05,24.6105,0,1.6407,-0.0001087663,24.6105,0
1.6416,3.457694E-05,24.624,0,1.6416,7.586786E-05,24.624,0
1.6425,1.376364E-05,24.6375,0,1.6425,0.0003326772,24.6375,0
1.6434,2.1149E-05,24.651,0,1.6434,0.0002772869,24.651,0
1.6443,4.800488E-05,24.6645,0,1.6443,0.0001178302,24.6645,0
1.6452,5.740444E-05,24.678,0,1.6452,-3.692683E-06,24.678,0
1.6461,-1.644922E-05,24.6915,0,1.6461,-0.0001500572,24.6915,0
1.647,6.009003E-05,24.705,0,1.647,-0.0002692302,24.705,0
1.6479,3.558404E-05,24.7185,0,1.6479,-0.0002584878,24.7185,0
1.6488,-6.076142E-05,24.732,0,1.6488,-0.000189334,24.732,0
1.6497,7.385367E-06,24.7455,0,1.6497,7.452507E-05,24.7455,0
1.6506,-1.712062E-05,24.759,0,1.6506,0.0002923934,24.759,0
1.6515,2.383459E-05,24.7725,0,1.6515,0.0003917601,24.7725,0
1.6524,6.713969E-07,24.786,0,1.6524,0.0002541238,24.786,0
1.6533,-2.24918E-05,24.7995,0,1.6533,0.0001540856,24.7995,0
1.6542,-1.510643E-05,24.813,0,1.6542,4.565499E-05,24.813,0
1.6551,-2.920577E-05,24.8265,0,1.6551,-6.61326E-05,24.8265,0
1.656,-6.982528E-05,24.84,0,1.656,-1.242084E-05,24.84,0
1.6569,-9.164568E-05,24.8535,0,1.6569,-1.242084E-05,24.8535,0
1.6578,-0.0001094377,24.867,0,1.6578,-3.524834E-05,24.867,0
1.6587,-0.0001044022,24.8805,0,1.6587,-2.987716E-05,24.8805,0
1.6596,-2.853437E-05,24.894,0,1.6596,-1.107805E-05,24.894,0
1.6605,5.270466E-05,24.9075,0,1.6605,-3.692683E-06,24.9075,0
1.6614,7.217517E-05,24.921,0,1.6614,-3.356985E-06,24.921,0
1.6623,0.0001272297,24.9345,0,1.6623,-3.289845E-05,24.9345,0
1.6632,0.0001661708,24.948,0,1.6632,-7.385367E-05,24.948,0
1.6641,8.023193E-05,24.9615,0,1.6641,-0.0001571069,24.9615,0
1.665,7.351797E-05,24.975,0,1.665,-0.0001755703,24.975,0
1.6659,0.0002218967,24.9885,0,1.6659,-0.000246067,24.9885,0
1.6668,0.0001997406,25.002,0,1.6668,-0.0002000763,25.002,0
1.6677,0.0001376364,25.0155,0,1.6677,-0.0001319295,25.0155,0
1.6686,8.023193E-05,25.029,0,1.6686,8.157473E-05,25.029,0
1.6695,-0.0001604639,25.0425,0,1.6695,0.0003165637,25.0425,0
1.6704,-0.000482063,25.056,0,1.6704,0.0002104829,25.056,0
1.6713,-0.0003541619,25.0695,0,1.6713,0.0001164874,25.0695,0
1.6722,-0.0001567712,25.083,0,1.6722,4.53193E-05,25.083,0
1.6731,-7.721065E-06,25.0965,0,1.6731,1.040665E-05,25.0965,0
1.674,0.0001030594,25.11,0,1.674,-8.392462E-06,25.11,0
1.6749,0.0001389792,25.1235,0,1.6749,-4.49836E-05,25.1235,0
1.6758,0.0001070878,25.137,0,1.6758,-0.0001534142,25.137,0
1.6767,-5.673304E-05,25.1505,0,1.6767,-0.0002531167,25.1505,0
1.6776,-5.606165E-05,25.164,0,1.6776,-0.0003823606,25.164,0
1.6785,1.309224E-05,25.1775,0,1.6785,-0.0005136187,25.1775,0
1.6794,-0.0001722133,25.191,0,1.6794,-0.000467628,25.191,0
1.6803,-0.000270573,25.2045,0,1.6803,-0.0002474098,25.2045,0
1.6812,-0.0003091783,25.218,0,1.6812,7.049668E-06,25.218,0
1.6821,-0.000144686,25.2315,0,1.6821,0.000288365,25.2315,0
1.683,-0.0002286107,25.245,0,1.683,0.0004679637,25.245,0
1.6839,-0.0002514381,25.2585,0,1.6839,0.0005361105,25.2585,0
1.6848,-4.46479E-05,25.272,0,1.6848,0.0003497978,25.272,0
1.6857,0.0001242084,25.2855,0,1.6857,0.000161471,25.2855,0
1.6866,0.0001983978,25.299,0,1.6866,0.0001164874,25.299,0
1.6875,0.0001594568,25.3125,0,1.6875,9.030289E-05,25.3125,0
1.6884,1.040665E-05,25.326,0,1.6884,3.994812E-05,25.326,0
1.6893,8.728161E-06,25.3395,0,1.6893,-1.644922E-05,25.3395,0
1.6902,8.224613E-05,25.353,0,1.6902,-2.349889E-05,25.353,0
1.6911,3.155566E-05,25.3665,0,1.6911,-1.208515E-05,25.3665,0
1.692,-6.411841E-05,25.38,0,1.692,-5.706874E-06,25.38,0
1.6929,-1.678492E-05,25.3935,0,1.6929,-3.860533E-05,25.3935,0
1.6938,-0.000207126,25.407,0,1.6938,-8.661021E-05,25.407,0
1.6947,-5.740444E-05,25.4205,0,1.6947,-0.0001037308,25.4205,0
1.6956,0.0002047761,25.434,0,1.6956,-0.0001990692,25.434,0
1.6965,0.0001990692,25.4475,0,1.6965,-0.0002245823,25.4475,0
1.6974,0.0002584878,25.461,0,1.6974,-0.000228275,25.461,0
1.6983,0.0002588235,25.4745,0,1.6983,-0.0002517739,25.4745,0
1.6992,2.349889E-06,25.488,0,1.6992,-0.0001527428,25.488,0
1.7001,-0.0002074617,25.5015,0,1.7001,3.021286E-05,25.5015,0
1.701,3.726253E-05,25.515,0,1.701,0.000161471,25.515,0
1.7019,-1.309224E-05,25.5285,0,1.7019,9.164568E-05,25.5285,0
1.7028,-4.162661E-05,25.542,0,1.7028,-1.678492E-06,25.542,0
1.7037,0.0001282368,25.5555,0,1.7037,-3.189136E-05,25.5555,0
1.7046,0.0001275654,25.569,0,1.7046,-1.141375E-05,25.569,0
1.7055,-0.0001359579,25.5825,0,1.7055,-2.081331E-05,25.5825,0
1.7064,-0.0002467384,25.596,0,1.7064,-7.452507E-05,25.596,0
1.7073,-7.418937E-05,25.6095,0,1.7073,-7.385367E-05,25.6095,0
1.7082,-6.478981E-05,25.623,0,1.7082,-0.000112459,25.623,0
1.7091,-0.0001722133,25.6365,0,1.7091,-0.000140322,25.6365,0
1.71,-7.553216E-05,25.65,0,1.71,-7.049668E-05,25.65,0
1.7109,7.620356E-05,25.6635,0,1.7109,-3.189136E-05,25.6635,0
1.7118,6.948959E-05,25.677,0,1.7118,4.061952E-05,25.677,0
1.7127,0.0001238727,25.6905,0,1.7127,0.0001393149,25.6905,0
1.7136,6.042573E-06,25.704,0,1.7136,0.0001070878,25.704,0
1.7145,-3.726253E-05,25.7175,0,1.7145,3.356985E-05,25.7175,0
1.7154,-1.644922E-05,25.731,0,1.7154,8.056763E-06,25.731,0
1.7163,-3.692683E-05,25.7445,0,1.7163,-4.162661E-05,25.7445,0
1.7172,-4.867628E-05,25.758,0,1.7172,-8.392462E-06,25.758,0
1.7181,-1.275654E-05,25.7715,0,1.7181,-2.517739E-05,25.7715,0
1.719,7.620356E-05,25.785,0,1.719,-0.0001117876,25.785,0
1.7199,5.169757E-05,25.7985,0,1.7199,-0.000148043,25.7985,0
1.7208,5.035477E-06,25.812,0,1.7208,-6.378271E-05,25.812,0
1.7217,9.063859E-05,25.8255,0,1.7217,-4.43122E-05,25.8255,0
1.7226,0.000154757,25.839,0,1.7226,-9.097429E-05,25.839,0
1.7235,-6.948959E-05,25.8525,0,1.7235,3.189136E-05,25.8525,0
1.7244,-0.000133608,25.866,0,1.7244,4.229801E-05,25.866,0
1.7253,3.659113E-05,25.8795,0,1.7253,-1.879912E-05,25.8795,0
1.7262,7.888914E-05,25.893,0,1.7262,-0.0001084306,25.893,0
1.7271,6.915389E-05,25.9065,0,1.7271,-0.0002870222,25.9065,0
1.728,-7.989624E-05,25.92,0,1.728,-0.0004894484,25.92,0
1.7289,-0.0001198444,25.9335,0,1.7289,-0.0005502098,25.9335,0
1.7298,-0.0001003738,25.947,0,1.7298,-0.0004468147,25.947,0
1.7307,-9.164568E-05,25.9605,0,1.7307,-0.0002124971,25.9605,0
1.7316,-4.934768E-05,25.974,0,1.7316,0.0001876554,25.974,0
1.7325,-2.349889E-06,25.9875,0,1.7325,0.0005871367,25.9875,0
1.7334,2.24918E-05,26.001,0,1.7334,0.0006932174,26.001,0
1.7343,1.980621E-05,26.0145,0,1.7343,0.0007294728,26.0145,0
1.7352,-3.692683E-06,26.028,0,1.7352,0.0004766918,26.028,0
1.7361,-6.042573E-06,26.0415,0,1.7361,0.0002111543,26.0415,0
1.737,4.599069E-05,26.055,0,1.737,0.0002094759,26.055,0
1.7379,1.577783E-05,26.0685,0,1.7379,4.263371E-05,26.0685,0
1.7388,1.107805E-05,26.082,0,1.7388,-0.0002601663,26.082,0
1.7397,4.39765E-05,26.0955,0,1.7397,-0.0003779965,26.0955,0
1.7406,2.719158E-05,26.109,0,1.7406,-0.0003165637,26.109,0
1.7415,3.356985E-07,26.1225,0,1.7415,-0.0002118257,26.1225,0
1.7424,-3.021286E-06,26.136,0,1.7424,-2.24918E-05,26.136,0
1.7433,-6.713969E-07,26.1495,0,1.7433,0.0001849699,26.1495,0
1.7442,8.560311E-05,26.163,0,1.7442,0.000327306,26.163,0
1.7451,9.365987E-05,26.1765,0,1.7451,0.0003350271,26.1765,0
1.746,2.047761E-05,26.19,0,1.746,0.0001003738,26.19,0
1.7469,-1.510643E-05,26.2035,0,1.7469,-7.418937E-05,26.2035,0
1.7478,-7.385367E-06,26.217,0,1.7478,-3.356985E-06,26.217,0
1.7487,5.001907E-05,26.2305,0,1.7487,2.21561E-05,26.2305,0
1.7496,2.349889E-06,26.244,0,1.7496,-5.035477E-05,26.244,0
1.7505,0.0001111162,26.2575,0,1.7505,-2.719158E-05,26.2575,0
1.7514,0.0002692302,26.271,0,1.7514,2.349889E-06,26.271,0
1.7523,0.0001607996,26.2845,0,1.7523,-4.49836E-05,26.2845,0
1.7532,-5.941863E-05,26.298,0,1.7532,-4.33051E-05,26.298,0
1.7541,-0.0001587854,26.3115,0,1.7541,-9.835965E-05,26.3115,0
1.755,-0.0003508049,26.325,0,1.755,-0.0002786297,26.325,0
1.7559,-0.0003826963,26.3385,0,1.7559,-0.0002699016,26.3385,0
1.7568,-0.0001252155,26.352,0,1.7568,-0.0002594949,26.352,0
1.7577,-1.443504E-05,26.3655,0,1.7577,-0.0002380102,26.3655,0
1.7586,1.980621E-05,26.379,0,1.7586,-0.000186984,26.379,0
1.7595,-1.879912E-05,26.3925,0,1.7595,-0.0001171588,26.3925,0
1.7604,-1.510643E-05,26.406,0,1.7604,-1.510643E-05,26.406,0
1.7613,7.888914E-05,26.4195,0,1.7613,5.572595E-05,26.4195,0
1.7622,8.72816E-05,26.433,0,1.7622,8.291753E-05,26.433,0
1.7631,6.948959E-05,26.4465,0,1.7631,9.332418E-05,26.4465,0
1.764,-0.0001309224,26.46,0,1.764,8.627451E-05,26.46,0
1.7649,-0.0002286107,26.4735,0,1.7649,3.860533E-05,26.4735,0
1.7658,-0.0002269322,26.487,0,1.7658,-6.243992E-05,26.487,0
1.7667,-0.0001423362,26.5005,0,1.7667,-8.090334E-05,26.5005,0
1.7676,2.652018E-05,26.514,0,1.7676,-0.000172549,26.514,0
1.7685,0.0001604639,26.5275,0,1.7685,-0.0002443885,26.5275,0
1.7694,0.000197055,26.541,0,1.7694,-0.0002870222,26.541,0
1.7703,0.0004035096,26.5545,0,1.7703,-0.0002490883,26.5545,0
1.7712,0.0002856794,26.568,0,1.7712,-9.500267E-05,26.568,0
1.7721,1.678492E-05,26.5815,0,1.7721,9.063859E-06,26.5815,0
1.773,-0.0002178683,26.595,0,1.773,0.0001889983,26.595,0
1.7739,-0.0003232776,26.6085,0,1.7739,0.0002007477,26.6085,0
1.7748,-0.0003135424,26.622,0,1.7748,0.0002212253,26.622,0
1.7757,-0.0002793011,26.6355,0,1.7757,0.0001362936,26.6355,0
1.7766,-0.0001534142,26.649,0,1.7766,0.000102388,26.649,0
1.7775,6.814679E-05,26.6625,0,1.7775,0.0001983978,26.6625,0
1.7784,0.0002225681,26.676,0,1.7784,0.0001211871,26.676,0
1.7793,0.0001121233,26.6895,0,1.7793,3.558404E-05,26.6895,0
1.7802,1.577783E-05,26.703,0,1.7802,7.351797E-05,26.703,0
1.7811,4.632639E-05,26.7165,0,1.7811,3.927672E-05,26.7165,0
1.782,9.063859E-06,26.73,0,1.782,-4.43122E-05,26.73,0
1.7829,-0.0001490501,26.7435,0,1.7829,-7.620356E-05,26.7435,0
1.7838,2.383459E-05,26.757,0,1.7838,-0.0001299153,26.757,0
1.7847,0.0001319295,26.7705,0,1.7847,-0.0001467002,26.7705,0
1.7856,8.82887E-05,26.784,0,1.7856,-9.835965E-05,26.784,0
1.7865,-2.584878E-05,26.7975,0,1.7865,-6.478981E-05,26.7975,0
1.7874,3.692683E-06,26.811,0,1.7874,-5.001907E-05,26.811,0
1.7883,5.270466E-05,26.8245,0,1.7883,2.047761E-05,26.8245,0
1.7892,-3.390555E-05,26.838,0,1.7892,-4.36408E-05,26.838,0
1.7901,-0.000270573,26.8515,0,1.7901,-0.0002051118,26.8515,0
1.791,-0.0002158541,26.865,0,1.791,-0.0002366674,26.865,0
1.7919,-0.0001775845,26.8785,0,1.7919,-0.0002628519,26.8785,0
1.7928,-0.0001221943,26.892,0,1.7928,-0.0002091402,26.892,0
1.7937,7.721065E-06,26.9055,0,1.7937,-1.779202E-05,26.9055,0
1.7946,4.129091E-05,26.919,0,1.7946,0.0001527428,26.919,0
1.7955,9.835965E-05,26.9325,0,1.7955,0.0001816129,26.9325,0
1.7964,9.298848E-05,26.946,0,1.7964,0.0002296178,26.946,0
1.7973,0.0001309224,26.9595,0,1.7973,0.0001963836,26.9595,0
1.7982,0.0001601282,26.973,0,1.7982,0.000109102,26.973,0
1.7991,0.000158114,26.9865,0,1.7991,-5.035477E-06,26.9865,0
1.8,0.0002480812,27,0,1.8,-5.874724E-05,27,0
1.8009,0.0001836271,27.0135,0,1.8009,-9.835965E-05,27.0135,0
1.8018,0.0001738918,27.027,0,1.8018,-4.028382E-06,27.027,0
1.8027,0.0002265965,27.0405,0,1.8027,3.994812E-05,27.0405,0
1.8036,5.471885E-05,27.054,0,1.8036,5.270466E-05,27.054,0
1.8045,-0.0002138399,27.0675,0,1.8045,7.183947E-05,27.0675,0
1.8054,-0.0002514381,27.081,0,1.8054,2.18204E-05,27.081,0
1.8063,-0.000161471,27.0945,0,1.8063,-1.678492E-05,27.0945,0
1.8072,-9.231708E-05,27.108,0,1.8072,-1.846342E-05,27.108,0
1.8081,-1.913481E-05,27.1215,0,1.8081,-5.740444E-05,27.1215,0
1.809,-0.0001097734,27.135,0,1.809,-8.761731E-05,27.135,0
1.8099,-3.256275E-05,27.1485,0,1.8099,-4.36408E-05,27.1485,0
1.8108,4.968337E-05,27.162,0,1.8108,-6.210422E-05,27.162,0
1.8117,-9.735256E-06,27.1755,0,1.8117,-5.404745E-05,27.1755,0
1.8126,1.309224E-05,27.189,0,1.8126,-4.800488E-05,27.189,0
1.8135,2.349889E-05,27.2025,0,1.8135,-0.0001050736,27.2025,0
1.8144,9.433127E-05,27.216,0,1.8144,-0.0002192111,27.216,0
1.8153,0.0001232013,27.2295,0,1.8153,-0.0002974289,27.2295,0
1.8162,8.96315E-05,27.243,0,1.8162,-0.000330663,27.243,0
1.8171,8.560311E-05,27.2565,0,1.8171,-0.0004834058,27.2565,0
1.818,6.378271E-05,27.27,0,1.818,-0.0004166018,27.27,0
1.8189,-0.0001258869,27.2835,0,1.8189,-0.0002464027,27.2835,0
