X[s],"Trigno IM sensor 3: EMG 3 (IM)",X[s],"Trigno IM sensor 3: Mag 3.Z (IM)",X[s],"Trigno IM sensor 4: EMG 4 (IM)",X[s],"Trigno IM sensor 4: Mag 4.Z (IM)"
0.000000,7.721065E-06,0.000000,118,0.000000,-8.392462E-06,0.000000,-1
0.0009,-2.652018E-05,0.0135,118,0.0009,-6.042573E-06,0.0135,1
0.0018,-3.155566E-05,0.027,118,0.0018,1.611353E-05,0.027,1
0.0027,-1.141375E-05,0.0405,118,0.0027,9.063859E-06,0.0405,0
0.0036,-5.001907E-05,0.054,118,0.0036,1.309224E-05,0.054,1
0.0045,-3.860533E-05,0.0675,119,0.0045,6.378271E-06,0.0675,1
0.0054,-2.450599E-05,0.081,117,0.0054,7.049668E-06,0.081,0
0.0063,-3.088426E-05,0.0945,118,0.0063,-8.392462E-06,0.0945,-2
0.0072,-2.484169E-05,0.108,117,0.0072,-2.987716E-05,0.108,1
0.0081,-1.309224E-05,0.1215,116,0.0081,-2.954147E-05,0.1215,1
0.009000001,-2.685588E-05,0.135,118,0.009000001,-2.719158E-05,0.135,0
0.0099,2.081331E-05,0.1485,116,0.0099,-2.047761E-05,0.1485,0
0.0108,9.063859E-06,0.162,117,0.0108,-4.599069E-05,0.162,-1
0.0117,3.524834E-05,0.1755,118,0.0117,-4.129091E-05,0.1755,1
0.0126,1.174945E-05,0.189,118,0.0126,-3.826963E-05,0.189,-2
0.0135,1.577783E-05,0.2025,117,0.0135,-2.450599E-05,0.2025,0
0.0144,1.712062E-05,0.216,118,0.0144,-2.887007E-05,0.216,0
0.0153,1.242084E-05,0.2295,119,0.0153,-2.584878E-05,0.2295,1
0.0162,1.309224E-05,0.243,118,0.0162,-1.107805E-05,0.243,0
0.0171,-3.189136E-05,0.2565,119,0.0171,-2.24918E-05,0.2565,1
0.018,-3.390555E-05,0.27,119,0.018,-2.987716E-05,0.27,0
0.0189,-1.376364E-05,0.2835,117,0.0189,-1.443504E-05,0.2835,-3
0.0198,-8.728161E-06,0.297,119,0.0198,-2.24918E-05,0.297,0
0.0207,-1.879912E-05,0.3105,117,0.0207,-1.846342E-05,0.3105,-1
0.0216,-2.786297E-05,0.324,118,0.0216,-1.107805E-05,0.324,0
0.0225,-1.174945E-05,0.3375,118,0.0225,-1.846342E-05,0.3375,0
0.0234,1.309224E-05,0.351,118,0.0234,-3.323415E-05,0.351,0
0.0243,7.385367E-06,0.3645,119,0.0243,-5.001907E-05,0.3645,1
0.0252,-1.947051E-05,0.378,118,0.0252,-6.78111E-05,0.378,1
0.0261,-6.378271E-06,0.3915,118,0.0261,-5.874724E-05,0.3915,0
0.027,-1.409934E-05,0.405,117,0.027,-4.867628E-05,0.405,0
0.0279,2.685588E-06,0.4185,119,0.0279,3.356985E-06,0.4185,0
0.0288,7.385367E-06,0.432,118,0.0288,1.242084E-05,0.432,0
0.0297,-1.174945E-05,0.4455,117,0.0297,-9.399558E-06,0.4455,2
0.0306,-1.812772E-05,0.459,116,0.0306,2.1149E-05,0.459,-1
0.0315,-2.383459E-05,0.4725,116,0.0315,-1.376364E-05,0.4725,0
0.0324,2.383459E-05,0.486,118,0.0324,-4.49836E-05,0.486,-3
0.0333,0,0.4995,119,0.0333,-1.712062E-05,0.4995,-2
0.0342,-5.706874E-06,0.513,118,0.0342,-9.063859E-06,0.513,0
0.0351,1.644922E-05,0.5265,120,0.0351,-5.471885E-05,0.5265,0
0.036,-1.007095E-06,0.54,119,0.036,-1.309224E-05,0.54,0
0.0369,2.954147E-05,0.5535,120,0.0369,-1.443504E-05,0.5535,-1
0.0378,4.095522E-05,0.567,119,0.0378,-5.136187E-05,0.567,0
0.0387,-2.081331E-05,0.5805,119,0.0387,-2.047761E-05,0.5805,1
0.0396,-2.047761E-05,0.594,119,0.0396,1.107805E-05,0.594,0
0.0405,-1.577783E-05,0.6075,119,0.0405,5.706874E-06,0.6075,0
0.0414,6.378271E-06,0.621,118,0.0414,-1.007095E-05,0.621,0
0.0423,1.846342E-05,0.6345,118,0.0423,-3.390555E-05,0.6345,-1
0.0432,1.980621E-05,0.648,119,0.0432,-7.721065E-06,0.648,-2
0.0441,-1.107805E-05,0.6615,118,0.0441,-3.021286E-06,0.6615,-3
0.045,-1.376364E-05,0.675,117,0.045,-4.061952E-05,0.675,-2
0.0459,-3.356985E-07,0.6885,118,0.0459,-5.471885E-05,0.6885,1
0.0468,-1.577783E-05,0.702,119,0.0468,-1.275654E-05,0.702,0
0.0477,-3.457694E-05,0.7155,119,0.0477,-1.544213E-05,0.7155,0
0.0486,-1.174945E-05,0.729,118,0.0486,-5.438316E-05,0.729,0
0.0495,-2.047761E-05,0.7425,119,0.0495,2.853437E-05,0.7425,-1
0.0504,1.342794E-06,0.756,119,0.0504,1.040665E-05,0.756,0
0.0513,1.577783E-05,0.7695,117,0.0513,-5.136187E-05,0.7695,1
0.0522,-1.678492E-06,0.783,119,0.0522,-2.987716E-05,0.783,1
0.0531,-2.1149E-05,0.7965,119,0.0531,6.713969E-07,0.7965,1
0.054,-2.584878E-05,0.81,119,0.054,-1.242084E-05,0.81,-1
0.0549,-1.913481E-05,0.8235,119,0.0549,-1.913481E-05,0.8235,-2
0.0558,-1.644922E-05,0.837,119,0.0558,-3.659113E-05,0.837,0
0.0567,-4.36408E-06,0.8505,118,0.0567,-1.309224E-05,0.8505,0
0.0576,-1.376364E-05,0.864,118,0.0576,9.735256E-06,0.864,2
0.0585,-2.316319E-05,0.8775,119,0.0585,-2.28275E-05,0.8775,-1
0.0594,-1.107805E-05,0.891,119,0.0594,-3.625543E-05,0.891,2
0.0603,-1.644922E-05,0.9045,120,0.0603,5.706874E-06,0.9045,-2
0.0612,-2.786297E-05,0.918,119,0.0612,-4.028382E-06,0.918,-1
0.0621,-1.678492E-05,0.9315,120,0.0621,-4.934768E-05,0.9315,0
0.063,-5.371176E-06,0.945,119,0.063,-2.786297E-05,0.945,0
0.0639,-2.316319E-05,0.9585,120,0.0639,-2.18204E-05,0.9585,-1
0.0648,-3.121996E-05,0.972,120,0.0648,-5.471885E-05,0.972,-1
0.0657,-1.040665E-05,0.9855,121,0.0657,-4.934768E-05,0.9855,-1
0.0666,-6.042573E-06,0.999,122,0.0666,1.141375E-05,0.999,0
0.0675,-4.36408E-06,1.0125,121,0.0675,5.169757E-05,1.0125,2
0.0684,-5.035477E-06,1.026,121,0.0684,3.961242E-05,1.026,0
0.0693,1.208515E-05,1.0395,119,0.0693,-9.399558E-06,1.0395,-1
0.0702,-1.644922E-05,1.053,121,0.0702,3.021286E-06,1.053,-2
0.0711,-3.155566E-05,1.0665,121,0.0711,1.040665E-05,1.0665,0
0.072,-1.846342E-05,1.08,121,0.072,-1.947051E-05,1.08,0
0.0729,-1.846342E-05,1.0935,121,0.0729,-3.927672E-05,1.0935,0
0.07380001,-2.887007E-05,1.107,120,0.07380001,2.1149E-05,1.107,0
0.07470001,-9.735256E-06,1.1205,121,0.07470001,-2.685588E-06,1.1205,0
0.0756,-1.007095E-06,1.134,120,0.0756,-4.196231E-05,1.134,-1
0.0765,-1.174945E-05,1.1475,120,0.0765,1.678492E-05,1.1475,0
0.0774,1.678492E-06,1.161,120,0.0774,2.1149E-05,1.161,1
0.0783,-1.409934E-05,1.1745,120,0.0783,-3.457694E-05,1.1745,0
0.0792,1.812772E-05,1.188,120,0.0792,-3.793393E-05,1.188,-1
0.0801,8.056763E-06,1.2015,119,0.0801,-5.706874E-06,1.2015,-1
0.081,7.049668E-06,1.215,119,0.081,-2.786297E-05,1.215,-1
0.0819,1.510643E-05,1.2285,122,0.0819,-2.1149E-05,1.2285,1
0.0828,-3.692683E-06,1.242,120,0.0828,-5.941863E-05,1.242,0
0.0837,-3.021286E-06,1.2555,120,0.0837,-3.457694E-05,1.2555,-1
0.0846,-1.779202E-05,1.269,121,0.0846,-2.652018E-05,1.269,0
0.0855,-3.021286E-06,1.2825,120,0.0855,-4.800488E-05,1.2825,2
0.0864,2.081331E-05,1.296,120,0.0864,-5.404745E-05,1.296,-3
0.0873,-1.712062E-05,1.3095,120,0.0873,1.309224E-05,1.3095,-1
0.0882,-9.735256E-06,1.323,119,0.0882,6.713969E-07,1.323,0
0.0891,3.155566E-05,1.3365,120,0.0891,-5.807584E-05,1.3365,2
0.09,-3.356985E-07,1.35,119,0.09,-1.510643E-05,1.35,-1
0.0909,-2.652018E-05,1.3635,120,0.0909,-2.014191E-06,1.3635,1
0.0918,-2.987716E-05,1.377,120,0.0918,-5.136187E-05,1.377,0
0.0927,-2.18204E-05,1.3905,120,0.0927,-4.33051E-05,1.3905,-1
0.0936,-3.558404E-05,1.404,120,0.0936,-2.685588E-06,1.404,0
0.09450001,-2.316319E-05,1.4175,119,0.09450001,-1.779202E-05,1.4175,-3
0.09540001,-6.713969E-07,1.431,122,0.09540001,-3.088426E-05,1.431,3
0.09630001,-1.040665E-05,1.4445,121,0.09630001,-4.666209E-05,1.4445,-1
0.0972,-3.692683E-06,1.458,122,0.0972,-1.779202E-05,1.458,0
0.0981,-3.692683E-06,1.4715,122,0.0981,1.678492E-06,1.4715,0
0.099,-2.18204E-05,1.485,121,0.099,-3.793393E-05,1.485,1
0.0999,-7.385367E-06,1.4985,121,0.0999,-5.471885E-05,1.4985,-1
0.1008,-1.242084E-05,1.512,121,0.1008,5.035477E-06,1.512,1
0.1017,-2.21561E-05,1.5255,121,0.1017,-2.081331E-05,1.5255,1
0.1026,-6.378271E-06,1.539,121,0.1026,-6.076142E-05,1.539,2
0.1035,-3.021286E-06,1.5525,122,0.1035,-1.242084E-05,1.5525,-1
0.1044,2.786297E-05,1.566,122,0.1044,4.028382E-06,1.566,0
0.1053,2.349889E-06,1.5795,121,0.1053,-3.390555E-05,1.5795,0
0.1062,3.121996E-05,1.593,122,0.1062,-1.376364E-05,1.593,2
0.1071,9.735256E-06,1.6065,122,0.1071,8.392462E-06,1.6065,2
0.108,-5.706874E-06,1.62,121,0.108,-5.035477E-06,1.62,3
0.1089,6.378271E-06,1.6335,120,0.1089,-1.242084E-05,1.6335,-1
0.1098,1.947051E-05,1.647,120,0.1098,-2.18204E-05,1.647,-1
0.1107,-1.510643E-05,1.6605,121,0.1107,-1.376364E-05,1.6605,0
0.1116,-1.208515E-05,1.674,120,0.1116,3.692683E-06,1.674,1
0.1125,1.644922E-05,1.6875,120,0.1125,-2.484169E-05,1.6875,-1
0.1134,-3.692683E-06,1.701,119,0.1134,-4.632639E-05,1.701,0
0.1143,-1.644922E-05,1.7145,120,0.1143,1.678492E-06,1.7145,0
0.1152,-1.544213E-05,1.728,122,0.1152,-1.443504E-05,1.728,-1
0.1161,-5.035477E-06,1.7415,121,0.1161,-5.740444E-05,1.7415,0
0.117,-1.913481E-05,1.755,120,0.117,-9.735256E-06,1.755,0
0.1179,-3.289845E-05,1.7685,121,0.1179,1.107805E-05,1.7685,0
0.1188,-2.652018E-05,1.782,121,0.1188,-4.196231E-05,1.782,0
0.1197,-4.028382E-05,1.7955,121,0.1197,-4.699779E-05,1.7955,-2
0.1206,-4.095522E-05,1.809,120,0.1206,-2.685588E-06,1.809,0
0.1215,-2.349889E-06,1.8225,121,0.1215,-3.356985E-07,1.8225,2
0.1224,-1.040665E-05,1.836,121,0.1224,-2.21561E-05,1.836,-2
0.1233,9.735256E-06,1.8495,121,0.1233,-4.733349E-05,1.8495,0
0.1242,3.054856E-05,1.863,120,0.1242,-1.779202E-05,1.863,0
0.1251,2.920577E-05,1.8765,120,0.1251,4.36408E-06,1.8765,-1
0.126,5.706874E-06,1.89,120,0.126,-3.424125E-05,1.89,0
0.1269,6.042573E-06,1.9035,121,0.1269,-4.599069E-05,1.9035,0
0.1278,-6.713969E-07,1.917,122,0.1278,8.728161E-06,1.917,-2
0.1287,-3.356985E-07,1.9305,121,0.1287,-5.706874E-06,1.9305,1
0.1296,2.014191E-06,1.944,119,0.1296,-3.793393E-05,1.944,0
0.1305,5.035477E-06,1.9575,120,0.1305,-3.692683E-06,1.9575,0
0.1314,-1.812772E-05,1.971,120,0.1314,1.913481E-05,1.971,1
0.1323,-1.275654E-05,1.9845,120,0.1323,-2.18204E-05,1.9845,2
0.1332,4.36408E-06,1.998,119,0.1332,-1.107805E-05,1.998,-1
0.1341,-3.121996E-05,2.0115,119,0.1341,1.913481E-05,2.0115,1
0.135,-3.356985E-05,2.025,120,0.135,6.713969E-07,2.025,0
0.1359,-1.913481E-05,2.0385,121,0.1359,-1.477073E-05,2.0385,0
0.1368,-9.735256E-06,2.052,120,0.1368,-1.980621E-05,2.052,2
0.1377,-1.812772E-05,2.0655,120,0.1377,-8.728161E-06,2.0655,-1
0.1386,-1.376364E-05,2.079,121,0.1386,2.349889E-06,2.079,-1
0.1395,-2.551309E-05,2.0925,120,0.1395,-1.174945E-05,2.0925,1
0.1404,-6.042573E-06,2.106,120,0.1404,-3.424125E-05,2.106,1
0.1413,-1.913481E-05,2.1195,120,0.1413,1.275654E-05,2.1195,0
0.1422,-7.049668E-06,2.133,121,0.1422,-2.685588E-06,2.133,1
0.1431,1.208515E-05,2.1465,120,0.1431,-5.069047E-05,2.1465,1
0.144,4.028382E-06,2.16,119,0.144,-1.376364E-05,2.16,0
0.1449,1.577783E-05,2.1735,120,0.1449,-5.706874E-06,2.1735,0
0.1458,-7.721065E-06,2.187,120,0.1458,-4.632639E-05,2.187,-3
0.1467,-1.577783E-05,2.2005,120,0.1467,-4.599069E-05,2.2005,-1
0.1476,-9.735256E-06,2.214,119,0.1476,-9.735256E-06,2.214,0
0.1485,-1.174945E-05,2.2275,120,0.1485,-3.356985E-06,2.2275,-2
0.1494,-3.021286E-06,2.241,119,0.1494,-1.644922E-05,2.241,0
0.1503,2.316319E-05,2.2545,120,0.1503,-4.968337E-05,2.2545,0
0.1512,1.242084E-05,2.268,119,0.1512,-2.819867E-05,2.268,1
0.1521,1.712062E-05,2.2815,119,0.1521,-6.713969E-07,2.2815,1
0.153,1.644922E-05,2.295,119,0.153,-2.786297E-05,2.295,1
0.1539,1.980621E-05,2.3085,119,0.1539,-3.289845E-05,2.3085,2
0.1548,-6.713969E-07,2.322,119,0.1548,-3.021286E-06,2.322,-1
0.1557,-1.779202E-05,2.3355,120,0.1557,-6.378271E-06,2.3355,0
0.1566,1.007095E-06,2.349,120,0.1566,-3.356985E-05,2.349,0
0.1575,-9.063859E-06,2.3625,120,0.1575,1.712062E-05,2.3625,0
0.1584,-3.491264E-05,2.376,119,0.1584,4.36408E-06,2.376,0
0.1593,-3.457694E-05,2.3895,120,0.1593,-3.894102E-05,2.3895,0
0.1602,-4.968337E-05,2.403,121,0.1602,-2.786297E-05,2.403,0
0.1611,-4.162661E-05,2.4165,119,0.1611,-2.383459E-05,2.4165,-1
0.162,-9.735256E-06,2.43,119,0.162,-5.035477E-05,2.43,1
0.1629,7.385367E-06,2.4435,122,0.1629,-1.611353E-05,2.4435,0
0.1638,-7.049668E-06,2.457,120,0.1638,-4.36408E-05,2.457,0
0.1647,-5.035477E-06,2.4705,120,0.1647,-4.061952E-05,2.4705,1
0.1656,-1.007095E-06,2.484,120,0.1656,9.063859E-06,2.484,0
0.1665,-1.544213E-05,2.4975,119,0.1665,-3.054856E-05,2.4975,0
0.1674,2.349889E-06,2.511,120,0.1674,-4.53193E-05,2.511,2
0.1683,-4.699779E-06,2.5245,121,0.1683,-1.208515E-05,2.5245,1
0.1692,-2.417029E-05,2.538,119,0.1692,-6.378271E-06,2.538,1
0.1701,8.728161E-06,2.5515,121,0.1701,-5.572595E-05,2.5515,0
0.171,6.378271E-06,2.565,119,0.171,-2.383459E-05,2.565,0
0.1719,1.040665E-05,2.5785,120,0.1719,-4.36408E-06,2.5785,0
0.1728,-5.371176E-06,2.592,119,0.1728,-3.121996E-05,2.592,1
0.1737,-5.706874E-06,2.6055,120,0.1737,-3.457694E-05,2.6055,0
0.1746,-1.812772E-05,2.619,119,0.1746,-9.399558E-06,2.619,1
0.1755,-7.385367E-06,2.6325,120,0.1755,-1.107805E-05,2.6325,1
0.1764,-9.063859E-06,2.646,121,0.1764,-1.644922E-05,2.646,3
0.1773,7.049668E-06,2.6595,121,0.1773,-1.980621E-05,2.6595,0
0.1782,9.735256E-06,2.673,119,0.1782,-3.356985E-07,2.673,1
0.1791,-7.049668E-06,2.6865,121,0.1791,-6.713969E-07,2.6865,-1
0.18,-6.378271E-06,2.7,121,0.18,-2.584878E-05,2.7,0
0.1809,7.721065E-06,2.7135,119,0.1809,-4.33051E-05,2.7135,1
0.1818,-1.107805E-05,2.727,120,0.1818,-1.678492E-06,2.727,2
0.1827,-7.385367E-06,2.7405,120,0.1827,-2.920577E-05,2.7405,0
0.1836,3.356985E-07,2.754,120,0.1836,-6.076142E-05,2.754,0
0.1845,-1.242084E-05,2.7675,120,0.1845,-3.356985E-07,2.7675,1
0.1854,2.1149E-05,2.781,121,0.1854,2.316319E-05,2.781,0
0.1863,-7.049668E-06,2.7945,120,0.1863,-2.584878E-05,2.7945,1
0.1872,2.584878E-05,2.808,119,0.1872,-2.081331E-05,2.808,0
0.1881,-2.349889E-06,2.8215,119,0.1881,3.692683E-06,2.8215,1
0.189,-5.706874E-06,2.835,120,0.189,-5.035477E-06,2.835,0
0.1899,-3.692683E-06,2.8485,120,0.1899,-6.713969E-06,2.8485,1
0.1908,-6.042573E-06,2.862,121,0.1908,-3.558404E-05,2.862,2
0.1917,4.36408E-06,2.8755,120,0.1917,-1.040665E-05,2.8755,1
0.1926,-6.042573E-06,2.889,120,0.1926,-1.644922E-05,2.889,0
0.1935,-1.678492E-06,2.9025,121,0.1935,-1.779202E-05,2.9025,-1
0.1944,2.047761E-05,2.916,121,0.1944,-4.49836E-05,2.916,0
0.1953,-1.712062E-05,2.9295,122,0.1953,-7.721065E-06,2.9295,2
0.1962,-2.349889E-05,2.943,121,0.1962,-8.728161E-06,2.943,-2
0.1971,1.040665E-05,2.9565,121,0.1971,-6.61326E-05,2.9565,0
0.198,-1.275654E-05,2.97,121,0.198,-3.121996E-05,2.97,1
0.1989,-4.33051E-05,2.9835,121,0.1989,-2.014191E-05,2.9835,0
0.1998,-4.229801E-05,2.997,121,0.1998,-6.042573E-05,2.997,0
0.2007,-3.356985E-07,3.0105,120,0.2007,-4.699779E-06,3.0105,0
0.2016,-3.424125E-05,3.024,0,0.2016,6.277562E-05,3.024,0
0.2025,-2.786297E-05,3.0375,0,0.2025,5.706874E-05,3.0375,0
0.2034,-1.007095E-05,3.051,0,0.2034,3.021286E-05,3.051,0
0.2043,-1.678492E-05,3.0645,0,0.2043,-4.39765E-05,3.0645,0
0.2052,7.049668E-06,3.078,0,0.2052,-2.551309E-05,3.078,0
0.2061,1.779202E-05,3.0915,0,0.2061,-1.980621E-05,3.0915,0
0.207,6.378271E-06,3.105,0,0.207,-4.666209E-05,3.105,0
0.2079,-5.035477E-06,3.1185,0,0.2079,-9.735256E-06,3.1185,0
0.2088,-7.049668E-06,3.132,0,0.2088,3.692683E-05,3.132,0
0.2097,-1.443504E-05,3.1455,0,0.2097,-1.040665E-05,3.1455,0
0.2106,1.007095E-06,3.159,0,0.2106,-5.941863E-05,3.159,0
0.2115,-1.275654E-05,3.1725,0,0.2115,-1.174945E-05,3.1725,0
0.2124,-7.721065E-06,3.186,0,0.2124,-1.376364E-05,3.186,0
0.2133,6.713969E-07,3.1995,0,0.2133,-4.867628E-05,3.1995,0
0.2142,-3.692683E-06,3.213,0,0.2142,-5.169757E-05,3.213,0
0.2151,-9.735256E-06,3.2265,0,0.2151,-9.735256E-06,3.2265,0
0.216,-1.644922E-05,3.24,0,0.216,-1.846342E-05,3.24,0
0.2169,-1.510643E-05,3.2535,0,0.2169,-2.618448E-05,3.2535,0
0.2178,-1.678492E-06,3.267,0,0.2178,-4.229801E-05,3.267,0
0.2187,-2.014191E-05,3.2805,0,0.2187,-2.081331E-05,3.2805,0
0.2196,-5.136187E-05,3.294,0,0.2196,-1.980621E-05,3.294,0
0.2205,-2.450599E-05,3.3075,0,0.2205,-3.994812E-05,3.3075,0
0.2214,-3.121996E-05,3.321,0,0.2214,-5.706874E-05,3.321,0
0.2223,-3.054856E-05,3.3345,0,0.2223,-8.392462E-06,3.3345,0
0.2232,-1.846342E-05,3.348,0,0.2232,-1.779202E-05,3.348,0
0.2241,-1.007095E-06,3.3615,0,0.2241,-3.289845E-05,3.3615,0
0.225,-1.812772E-05,3.375,0,0.225,1.040665E-05,3.375,0
0.2259,1.242084E-05,3.3885,0,0.2259,1.174945E-05,3.3885,0
0.2268,4.196231E-05,3.402,0,0.2268,-4.733349E-05,3.402,0
0.2277,7.385367E-06,3.4155,0,0.2277,-3.659113E-05,3.4155,0
0.2286,-7.049668E-06,3.429,0,0.2286,1.007095E-06,3.429,0
0.2295,6.713969E-06,3.4425,0,0.2295,-5.706874E-06,3.4425,0
0.2304,-1.443504E-05,3.456,0,0.2304,-2.047761E-05,3.456,0
0.2313,-5.706874E-06,3.4695,0,0.2313,-3.927672E-05,3.4695,0
0.2322,3.356985E-07,3.483,0,0.2322,-7.049668E-06,3.483,0
0.2331,-2.450599E-05,3.4965,0,0.2331,1.007095E-05,3.4965,0
0.234,-1.174945E-05,3.51,0,0.234,-1.443504E-05,3.51,0
0.2349,1.040665E-05,3.5235,0,0.2349,-3.826963E-05,3.5235,0
0.2358,-1.510643E-05,3.537,0,0.2358,2.014191E-06,3.537,0
0.2367,-2.719158E-05,3.5505,0,0.2367,-6.713969E-07,3.5505,0
0.2376,-4.36408E-06,3.564,0,0.2376,-2.954147E-05,3.564,0
0.2385,-1.678492E-06,3.5775,0,0.2385,2.349889E-06,3.5775,0
0.2394,-2.887007E-05,3.591,0,0.2394,1.376364E-05,3.591,0
0.2403,-1.980621E-05,3.6045,0,0.2403,-4.53193E-05,3.6045,0
0.2412,1.947051E-05,3.618,0,0.2412,-3.121996E-05,3.618,0
0.2421,-2.316319E-05,3.6315,0,0.2421,-1.846342E-05,3.6315,0
0.243,-1.242084E-05,3.645,0,0.243,-2.618448E-05,3.645,0
0.2439,-3.356985E-07,3.6585,0,0.2439,-3.054856E-05,3.6585,0
0.2448,1.644922E-05,3.672,0,0.2448,-5.304036E-05,3.672,0
0.2457,1.577783E-05,3.6855,0,0.2457,-3.121996E-05,3.6855,0
0.2466,-8.728161E-06,3.699,0,0.2466,9.399558E-06,3.699,0
0.2475,-1.309224E-05,3.7125,0,0.2475,-1.510643E-05,3.7125,0
0.2484,-6.713969E-06,3.726,0,0.2484,-3.054856E-05,3.726,0
0.2493,-5.706874E-06,3.7395,0,0.2493,2.349889E-05,3.7395,0
0.2502,-1.577783E-05,3.753,0,0.2502,-1.678492E-06,3.753,0
0.2511,-1.007095E-06,3.7665,0,0.2511,-5.136187E-05,3.7665,0
0.252,-3.356985E-07,3.78,0,0.252,-1.007095E-05,3.78,0
0.2529,-9.063859E-06,3.7935,0,0.2529,-2.349889E-06,3.7935,0
0.2538,-2.24918E-05,3.807,0,0.2538,-4.968337E-05,3.807,0
0.2547,-2.819867E-05,3.8205,0,0.2547,-4.867628E-05,3.8205,0
0.2556,-2.047761E-05,3.834,0,0.2556,-5.035477E-06,3.834,0
0.2565,-3.356985E-05,3.8475,0,0.2565,-1.242084E-05,3.8475,0
0.2574,-3.659113E-05,3.861,0,0.2574,-3.524834E-05,3.861,0
0.2583,-1.779202E-05,3.8745,0,0.2583,-4.565499E-05,3.8745,0
0.2592,1.745632E-05,3.888,0,0.2592,-1.443504E-05,3.888,0
0.2601,-7.049668E-06,3.9015,0,0.2601,3.021286E-06,3.9015,0
0.261,-9.735256E-06,3.915,0,0.261,-1.980621E-05,3.915,0
0.2619,1.577783E-05,3.9285,0,0.2619,-3.424125E-05,3.9285,0
0.2628,3.021286E-06,3.942,0,0.2628,-4.028382E-06,3.942,0
0.2637,6.378271E-06,3.9555,0,0.2637,1.107805E-05,3.9555,0
0.2646,1.007095E-06,3.969,0,0.2646,-4.867628E-05,3.969,0
0.2655,-2.316319E-05,3.9825,0,0.2655,-1.678492E-06,3.9825,0
0.2664,1.913481E-05,3.996,0,0.2664,-1.040665E-05,3.996,0
0.2673,3.121996E-05,4.0095,0,0.2673,-4.867628E-05,4.0095,0
0.2682,1.712062E-05,4.023,0,0.2682,-7.385367E-06,4.023,0
0.2691,9.399558E-06,4.0365,0,0.2691,5.035477E-06,4.0365,0
0.27,7.385367E-06,4.05,0,0.27,-1.074235E-05,4.05,0
0.2709,4.699779E-06,4.0635,0,0.2709,-1.947051E-05,4.0635,0
0.2718,1.510643E-05,4.077,0,0.2718,-4.129091E-05,4.077,0
0.2727,2.920577E-05,4.0905,0,0.2727,-2.484169E-05,4.0905,0
0.2736,3.692683E-06,4.104,0,0.2736,-1.007095E-05,4.104,0
0.2745,-7.385367E-06,4.1175,0,0.2745,-3.390555E-05,4.1175,0
0.2754,9.735256E-06,4.131,0,0.2754,-3.659113E-05,4.131,0
0.2763,-1.678492E-06,4.1445,0,0.2763,8.728161E-06,4.1445,0
0.2772,-2.417029E-05,4.158,0,0.2772,-6.378271E-06,4.158,0
0.2781,-7.721065E-06,4.1715,0,0.2781,-6.009003E-05,4.1715,0
0.279,-2.551309E-05,4.185,0,0.279,-1.107805E-05,4.185,0
0.2799,-2.383459E-05,4.1985,0,0.2799,3.524834E-05,4.1985,0
0.2808,-6.042573E-06,4.212,0,0.2808,-9.063859E-06,4.212,0
0.2817,-1.007095E-05,4.2255,0,0.2817,-8.392462E-06,4.2255,0
0.2826,-2.047761E-05,4.239,0,0.2826,4.028382E-06,4.239,0
0.2835,-1.107805E-05,4.2525,0,0.2835,-1.007095E-05,4.2525,0
0.2844,-7.721065E-06,4.266,0,0.2844,-1.846342E-05,4.266,0
0.2853,6.042573E-06,4.2795,0,0.2853,-5.001907E-05,4.2795,0
0.2862,-2.383459E-05,4.293,0,0.2862,-5.438316E-05,4.293,0
0.2871,-3.927672E-05,4.3065,0,0.2871,-3.457694E-05,4.3065,0
0.288,-1.107805E-05,4.32,0,0.288,-4.39765E-05,4.32,0
0.2889,-1.678492E-06,4.3335,0,0.2889,-5.404745E-05,4.3335,0
0.2898,-5.035477E-06,4.347,0,0.2898,-8.728161E-06,4.347,0
0.2907,-8.392462E-06,4.3605,0,0.2907,-2.450599E-05,4.3605,0
0.2916,-7.049668E-06,4.374,0,0.2916,-5.606165E-05,4.374,0
0.2925,-2.1149E-05,4.3875,0,0.2925,3.356985E-07,4.3875,0
0.2934,-3.457694E-05,4.401,0,0.2934,9.735256E-06,4.401,0
0.2943,-3.793393E-05,4.4145,0,0.2943,-2.484169E-05,4.4145,0
0.2952,1.779202E-05,4.428,0,0.2952,-1.443504E-05,4.428,0
0.2961,7.049668E-06,4.4415,0,0.2961,1.477073E-05,4.4415,0
0.297,-1.208515E-05,4.455,0,0.297,7.385367E-06,4.455,0
0.2979,-5.706874E-06,4.4685,0,0.2979,-9.063859E-06,4.4685,0
0.2988,1.577783E-05,4.482,0,0.2988,-3.860533E-05,4.482,0
0.2997,1.678492E-06,4.4955,0,0.2997,-4.699779E-06,4.4955,0
0.3006,-3.088426E-05,4.509,0,0.3006,1.846342E-05,4.509,0
0.3015,-1.980621E-05,4.5225,0,0.3015,-2.349889E-05,4.5225,0
0.3024,4.699779E-06,4.536,0,0.3024,-3.860533E-05,4.536,0
0.3033,-1.376364E-05,4.5495,0,0.3033,1.174945E-05,4.5495,0
0.3042,-3.356985E-07,4.563,0,0.3042,4.699779E-06,4.563,0
0.3051,6.378271E-06,4.5765,0,0.3051,-4.229801E-05,4.5765,0
0.306,-2.685588E-05,4.59,0,0.306,-9.063859E-06,4.59,0
0.3069,-3.961242E-05,4.6035,0,0.3069,-1.376364E-05,4.6035,0
0.3078,-8.728161E-06,4.617,0,0.3078,-5.404745E-05,4.617,0
0.3087,-1.040665E-05,4.6305,0,0.3087,-2.719158E-05,4.6305,0
0.3096,-3.759823E-05,4.644,0,0.3096,4.36408E-06,4.644,0
0.3105,-1.577783E-05,4.6575,0,0.3105,-3.021286E-05,4.6575,0
0.3114,5.035477E-06,4.671,0,0.3114,-2.719158E-05,4.671,0
0.3123,-1.544213E-05,4.6845,0,0.3123,-4.53193E-05,4.6845,0
0.3132,6.378271E-06,4.698,0,0.3132,-2.047761E-05,4.698,0
0.3141,-1.443504E-05,4.7115,0,0.3141,-7.721065E-06,4.7115,0
0.315,-1.309224E-05,4.725,0,0.315,-3.659113E-05,4.725,0
0.3159,1.510643E-05,4.7385,0,0.3159,-5.572595E-05,4.7385,0
0.3168,2.014191E-06,4.752,0,0.3168,-1.040665E-05,4.752,0
0.3177,-7.721065E-06,4.7655,0,0.3177,-3.256275E-05,4.7655,0
0.3186,2.349889E-06,4.779,0,0.3186,-7.653925E-05,4.779,0
0.3195,-2.047761E-05,4.7925,0,0.3195,-1.712062E-05,4.7925,0
0.3204,9.399558E-06,4.806,0,0.3204,1.644922E-05,4.806,0
0.3213,-3.021286E-06,4.8195,0,0.3213,1.007095E-06,4.8195,0
0.3222,-4.061952E-05,4.833,0,0.3222,-2.081331E-05,4.833,0
0.3231,-3.894102E-05,4.8465,0,0.3231,4.36408E-06,4.8465,0
0.324,-6.378271E-06,4.86,0,0.324,0,4.86,0
0.3249,2.652018E-05,4.8735,0,0.3249,-1.678492E-06,4.8735,0
0.3258,2.517739E-05,4.887,0,0.3258,-2.551309E-05,4.887,0
0.3267,3.054856E-05,4.9005,0,0.3267,-2.349889E-05,4.9005,0
0.3276,7.385367E-06,4.914,0,0.3276,-3.692683E-06,4.914,0
0.3285,-1.510643E-05,4.9275,0,0.3285,-2.047761E-05,4.9275,0
0.3294,-1.376364E-05,4.941,0,0.3294,-5.841154E-05,4.941,0
0.3303,-1.443504E-05,4.9545,0,0.3303,-1.376364E-05,4.9545,0
0.3312,-6.378271E-06,4.968,0,0.3312,-9.063859E-06,4.968,0
0.3321,-8.392462E-06,4.9815,0,0.3321,-5.136187E-05,4.9815,0
0.333,-7.049668E-06,4.995,0,0.333,1.007095E-06,4.995,0
0.3339,3.390555E-05,5.0085,0,0.3339,-3.692683E-06,5.0085,0
0.3348,-5.706874E-06,5.022,0,0.3348,-5.035477E-05,5.022,0
0.3357,-1.443504E-05,5.0355,0,0.3357,-1.242084E-05,5.0355,0
0.3366,-4.028382E-06,5.049,0,0.3366,9.063859E-06,5.049,0
0.3375,-3.021286E-06,5.0625,0,0.3375,-1.007095E-06,5.0625,0
0.3384,-9.063859E-06,5.076,0,0.3384,-2.18204E-05,5.076,0
0.3393,9.063859E-06,5.0895,0,0.3393,-3.356985E-05,5.0895,0
0.3402,1.174945E-05,5.103,0,0.3402,-5.035477E-06,5.103,0
0.3411,-6.713969E-06,5.1165,0,0.3411,-7.385367E-06,5.1165,0
0.342,-1.510643E-05,5.13,0,0.342,-3.961242E-05,5.13,0
0.3429,1.040665E-05,5.1435,0,0.3429,-5.941863E-05,5.1435,0
0.3438,-2.1149E-05,5.157,0,0.3438,-2.014191E-06,5.157,0
0.3447,-2.18204E-05,5.1705,0,0.3447,-8.728161E-06,5.1705,0
0.3456,3.356985E-07,5.184,0,0.3456,-3.860533E-05,5.184,0
0.3465,-2.316319E-05,5.1975,0,0.3465,-1.040665E-05,5.1975,0
0.3474,-9.063859E-06,5.211,0,0.3474,1.309224E-05,5.211,0
0.3483,7.049668E-06,5.2245,0,0.3483,-2.014191E-05,5.2245,0
0.3492,-1.174945E-05,5.238,0,0.3492,1.477073E-05,5.238,0
0.3501,-2.584878E-05,5.2515,0,0.3501,1.544213E-05,5.2515,0
0.351,3.021286E-06,5.265,0,0.351,-1.040665E-05,5.265,0
0.3519,-1.443504E-05,5.2785,0,0.3519,-2.349889E-06,5.2785,0
0.3528,-8.392462E-06,5.292,0,0.3528,-3.289845E-05,5.292,0
0.3537,4.699779E-06,5.3055,0,0.3537,-3.121996E-05,5.3055,0
0.3546,1.510643E-05,5.319,0,0.3546,-4.061952E-05,5.319,0
0.3555,5.035477E-06,5.3325,0,0.3555,-4.766919E-05,5.3325,0
0.3564,-3.021286E-06,5.346,0,0.3564,-4.565499E-05,5.346,0
0.3573,-2.18204E-05,5.3595,0,0.3573,1.376364E-05,5.3595,0
0.3582,-1.779202E-05,5.373,0,0.3582,1.611353E-05,5.373,0
0.3591,1.309224E-05,5.3865,0,0.3591,9.735256E-06,5.3865,0
0.36,6.042573E-06,5.4,0,0.36,2.584878E-05,5.4,0
0.3609,-2.584878E-05,5.4135,0,0.3609,1.040665E-05,5.4135,0
0.3618,-2.551309E-05,5.427,0,0.3618,-2.28275E-05,5.427,0
0.3627,-7.721065E-06,5.4405,0,0.3627,-3.457694E-05,5.4405,0
0.3636,-3.323415E-05,5.454,0,0.3636,-1.309224E-05,5.454,0
0.3645,-3.961242E-05,5.4675,0,0.3645,-2.584878E-05,5.4675,0
0.3654,-2.719158E-05,5.481,0,0.3654,-3.860533E-05,5.481,0
0.3663,1.074235E-05,5.4945,0,0.3663,-4.36408E-05,5.4945,0
0.3672,-4.36408E-06,5.508,0,0.3672,-1.376364E-05,5.508,0
0.3681,-1.913481E-05,5.5215,0,0.3681,-1.779202E-05,5.5215,0
0.369,-4.028382E-06,5.535,0,0.369,-4.43122E-05,5.535,0
0.3699,-1.443504E-05,5.5485,0,0.3699,-5.438316E-05,5.5485,0
0.3708,-1.107805E-05,5.562,0,0.3708,0,5.562,0
0.3717,-1.007095E-06,5.5755,0,0.3717,-1.980621E-05,5.5755,0
0.3726,6.713969E-06,5.589,0,0.3726,-6.74754E-05,5.589,0
0.3735,-6.378271E-06,5.6025,0,0.3735,-1.879912E-05,5.6025,0
0.3744,2.517739E-05,5.616,0,0.3744,-1.544213E-05,5.616,0
0.3753,3.323415E-05,5.6295,0,0.3753,-4.901198E-05,5.6295,0
0.3762,-2.081331E-05,5.643,0,0.3762,-1.712062E-05,5.643,0
0.3771,-1.980621E-05,5.6565,0,0.3771,-8.392462E-06,5.6565,0
0.378,5.035477E-06,5.67,0,0.378,-8.392462E-06,5.67,0
0.3789,-2.081331E-05,5.6835,0,0.3789,-8.392462E-06,5.6835,0
0.3798,-2.014191E-06,5.697,0,0.3798,-3.726253E-05,5.697,0
0.3807,1.577783E-05,5.7105,0,0.3807,-1.812772E-05,5.7105,0
0.3816,-1.107805E-05,5.724,0,0.3816,6.042573E-06,5.724,0
0.3825,-1.779202E-05,5.7375,0,0.3825,-2.316319E-05,5.7375,0
0.3834,-6.713969E-07,5.751,0,0.3834,-4.29694E-05,5.751,0
0.3843,-3.256275E-05,5.7645,0,0.3843,3.356985E-06,5.7645,0
0.3852,-1.913481E-05,5.778,0,0.3852,1.007095E-06,5.778,0
0.3861,3.692683E-06,5.7915,0,0.3861,-5.069047E-05,5.7915,0
0.387,-2.786297E-05,5.805,0,0.387,-1.107805E-05,5.805,0
0.3879,7.721065E-06,5.8185,0,0.3879,-9.399558E-06,5.8185,0
0.3888,1.443504E-05,5.832,0,0.3888,-5.136187E-05,5.832,0
0.3897,1.745632E-05,5.8455,0,0.3897,-2.383459E-05,5.8455,0
0.3906,3.692683E-06,5.859,0,0.3906,6.042573E-06,5.859,0
0.3915,-2.014191E-06,5.8725,0,0.3915,-1.376364E-05,5.8725,0
0.3924,3.692683E-06,5.886,0,0.3924,-3.054856E-05,5.886,0
0.3933,3.356985E-07,5.8995,0,0.3933,-3.054856E-05,5.8995,0
0.3942,-1.678492E-06,5.913,0,0.3942,-2.584878E-05,5.913,0
0.3951,-1.141375E-05,5.9265,0,0.3951,-2.618448E-05,5.9265,0
0.396,-3.189136E-05,5.94,0,0.396,-4.229801E-05,5.94,0
0.3969,-2.18204E-05,5.9535,0,0.3969,-4.33051E-05,5.9535,0
0.3978,-1.409934E-05,5.967,0,0.3978,3.021286E-06,5.967,0
0.3987,-2.450599E-05,5.9805,0,0.3987,-7.049668E-06,5.9805,0
0.3996,-1.242084E-05,5.994,0,0.3996,-5.136187E-05,5.994,0
0.4005,-1.309224E-05,6.0075,0,0.4005,5.035477E-06,6.0075,0
0.4014,-3.894102E-05,6.021,0,0.4014,4.36408E-06,6.021,0
0.4023,-1.577783E-05,6.0345,0,0.4023,-3.323415E-05,6.0345,0
0.4032,2.652018E-05,6.048,0,0.4032,-1.309224E-05,6.048,0
0.4041,3.356985E-07,6.0615,0,0.4041,1.007095E-06,6.0615,0
0.405,-1.947051E-05,6.075,0,0.405,-9.063859E-06,6.075,0
0.4059,-1.174945E-05,6.0885,0,0.4059,-2.1149E-05,6.0885,0
0.4068,5.706874E-06,6.102,0,0.4068,-3.659113E-05,6.102,0
0.4077,4.36408E-06,6.1155,0,0.4077,-1.007095E-06,6.1155,0
0.4086,7.721065E-06,6.129,0,0.4086,1.980621E-05,6.129,0
0.4095,6.378271E-06,6.1425,0,0.4095,1.712062E-05,6.1425,0
0.4104,-1.242084E-05,6.156,0,0.4104,-1.309224E-05,6.156,0
0.4113,-1.779202E-05,6.1695,0,0.4113,8.728161E-06,6.1695,0
0.4122,2.685588E-06,6.183,0,0.4122,1.040665E-05,6.183,0
0.4131,-3.692683E-06,6.1965,0,0.4131,-5.236896E-05,6.1965,0
0.414,-1.846342E-05,6.21,0,0.414,2.014191E-06,6.21,0
0.4149,-3.222705E-05,6.2235,0,0.4149,1.980621E-05,6.2235,0
0.4158,-2.18204E-05,6.237,0,0.4158,-2.987716E-05,6.237,0
0.4167,-1.443504E-05,6.2505,0,0.4167,-1.007095E-06,6.2505,0
0.4176,-3.323415E-05,6.264,0,0.4176,1.174945E-05,6.264,0
0.4185,-1.879912E-05,6.2775,0,0.4185,-2.450599E-05,6.2775,0
0.4194,-1.309224E-05,6.291,0,0.4194,-3.927672E-05,6.291,0
0.4203,-2.685588E-06,6.3045,0,0.4203,-8.426032E-05,6.3045,0
0.4212,1.544213E-05,6.318,0,0.4212,-3.591974E-05,6.318,0
0.4221,1.947051E-05,6.3315,0,0.4221,-2.652018E-05,6.3315,0
0.423,-3.692683E-06,6.345,0,0.423,-5.270466E-05,6.345,0
0.4239,2.484169E-05,6.3585,0,0.4239,-6.143282E-05,6.3585,0
0.4248,9.063859E-06,6.372,0,0.4248,-1.107805E-05,6.372,0
0.4257,-6.713969E-07,6.3855,0,0.4257,-2.383459E-05,6.3855,0
0.4266,2.920577E-05,6.399,0,0.4266,-6.51255E-05,6.399,0
0.4275,1.510643E-05,6.4125,0,0.4275,-1.107805E-05,6.4125,0
0.4284,-4.028382E-06,6.426,0,0.4284,5.706874E-06,6.426,0
0.4293,7.385367E-06,6.4395,0,0.4293,-3.894102E-05,6.4395,0
0.4302,-5.035477E-06,6.453,0,0.4302,-3.121996E-05,6.453,0
0.4311,-4.095522E-05,6.4665,0,0.4311,7.385367E-06,6.4665,0
0.432,-2.014191E-05,6.48,0,0.432,-4.36408E-06,6.48,0
0.4329,-7.721065E-06,6.4935,0,0.4329,-1.174945E-05,6.4935,0
0.4338,-2.383459E-05,6.507,0,0.4338,-4.46479E-05,6.507,0
0.4347,-9.735256E-06,6.5205,0,0.4347,-1.980621E-05,6.5205,0
0.4356,-2.786297E-05,6.534,0,0.4356,-5.706874E-06,6.534,0
0.4365,-1.376364E-05,6.5475,0,0.4365,-3.793393E-05,6.5475,0
0.4374,4.36408E-06,6.561,0,0.4374,-5.136187E-05,6.561,0
0.4383,-2.014191E-06,6.5745,0,0.4383,-6.042573E-06,6.5745,0
0.4392,-4.699779E-06,6.588,0,0.4392,-1.309224E-05,6.588,0
0.4401,-1.477073E-05,6.6015,0,0.4401,-4.733349E-05,6.6015,0
0.441,-1.678492E-05,6.615,0,0.441,1.846342E-05,6.615,0
0.4419,-1.846342E-05,6.6285,0,0.4419,1.007095E-05,6.6285,0
0.4428,-1.846342E-05,6.642,0,0.4428,-4.263371E-05,6.642,0
0.4437,-1.040665E-05,6.6555,0,0.4437,-1.644922E-05,6.6555,0
0.4446,-1.208515E-05,6.669,0,0.4446,-2.752728E-05,6.669,0
0.4455,-6.042573E-06,6.6825,0,0.4455,-1.174945E-05,6.6825,0
0.4464,8.728161E-06,6.696,0,0.4464,1.779202E-05,6.696,0
0.4473,5.035477E-06,6.7095,0,0.4473,1.242084E-05,6.7095,0
0.4482,-1.846342E-05,6.723,0,0.4482,7.721065E-06,6.723,0
0.4491,-1.074235E-05,6.7365,0,0.4491,2.24918E-05,6.7365,0
0.45,-6.713969E-06,6.75,0,0.45,-8.392462E-06,6.75,0
0.4509,1.107805E-05,6.7635,0,0.4509,-3.390555E-05,6.7635,0
0.4518,-2.719158E-05,6.777,0,0.4518,7.049668E-06,6.777,0
0.4527,-1.644922E-05,6.7905,0,0.4527,-5.706874E-06,6.7905,0
0.4536,1.208515E-05,6.804,0,0.4536,-5.169757E-05,6.804,0
0.4545,-6.378271E-06,6.8175,0,0.4545,-1.107805E-05,6.8175,0
0.4554,-1.409934E-05,6.831,0,0.4554,-1.275654E-05,6.831,0
0.4563,-3.659113E-05,6.8445,0,0.4563,-4.53193E-05,6.8445,0
0.4572,-1.678492E-05,6.858,0,0.4572,-4.733349E-05,6.858,0
0.4581,-1.409934E-05,6.8715,0,0.4581,-2.920577E-05,6.8715,0
0.459,1.040665E-05,6.885,0,0.459,-2.316319E-05,6.885,0
0.4599,-6.378271E-06,6.8985,0,0.4599,-2.014191E-05,6.8985,0
0.4608,5.706874E-06,6.912,0,0.4608,-3.424125E-05,6.912,0
0.4617,1.007095E-06,6.9255,0,0.4617,-1.040665E-05,6.9255,0
0.4626,-4.733349E-05,6.939,0,0.4626,1.544213E-05,6.939,0
0.4635,-2.853437E-05,6.9525,0,0.4635,-2.18204E-05,6.9525,0
0.4644,3.021286E-06,6.966,0,0.4644,-5.136187E-05,6.966,0
0.4653,-1.644922E-05,6.9795,0,0.4653,-1.510643E-05,6.9795,0
0.4662,-2.987716E-05,6.993,0,0.4662,-4.229801E-05,6.993,0
0.4671,-5.706874E-06,7.0065,0,0.4671,-8.224613E-05,7.0065,0
0.468,4.028382E-06,7.02,0,0.468,-2.752728E-05,7.02,0
0.4689,1.309224E-05,7.0335,0,0.4689,1.913481E-05,7.0335,0
0.4698,1.980621E-05,7.047,0,0.4698,7.721065E-06,7.047,0
0.4707,-2.417029E-05,7.0605,0,0.4707,8.056763E-06,7.0605,0
0.4716,-2.047761E-05,7.074,0,0.4716,1.309224E-05,7.074,0
0.4725,-3.021286E-06,7.0875,0,0.4725,-1.544213E-05,7.0875,0
0.4734,-4.028382E-06,7.101,0,0.4734,-2.618448E-05,7.101,0
0.4743,-2.349889E-06,7.1145,0,0.4743,-4.196231E-05,7.1145,0
0.4752,3.356985E-06,7.128,0,0.4752,-8.728161E-06,7.128,0
0.4761,4.229801E-05,7.1415,0,0.4761,1.040665E-05,7.1415,0
0.477,3.323415E-05,7.155,0,0.477,-6.378271E-06,7.155,0
0.4779,8.392462E-06,7.1685,0,0.4779,-3.994812E-05,7.1685,0
0.4788,7.721065E-06,7.182,0,0.4788,1.678492E-06,7.182,0
0.4797,4.36408E-06,7.1955,0,0.4797,-6.378271E-06,7.1955,0
0.4806,1.174945E-05,7.209,0,0.4806,-5.639734E-05,7.209,0
0.4815,1.376364E-05,7.2225,0,0.4815,-5.371176E-06,7.2225,0
0.4824,-1.779202E-05,7.236,0,0.4824,-7.049668E-06,7.236,0
0.4833,-5.438316E-05,7.2495,0,0.4833,-4.49836E-05,7.2495,0
0.4842,-1.947051E-05,7.263,0,0.4842,-3.021286E-05,7.263,0
0.4851,-2.349889E-05,7.2765,0,0.4851,-1.678492E-05,7.2765,0
0.486,-3.726253E-05,7.29,0,0.486,-2.18204E-05,7.29,0
0.4869,-3.860533E-05,7.3035,0,0.4869,-2.28275E-05,7.3035,0
0.4878,-1.913481E-05,7.317,0,0.4878,-4.263371E-05,7.317,0
0.4887,9.735256E-06,7.3305,0,0.4887,-1.980621E-05,7.3305,0
0.4896,1.779202E-05,7.344,0,0.4896,-1.779202E-05,7.344,0
0.4905,1.477073E-05,7.3575,0,0.4905,-5.035477E-05,7.3575,0
0.4914,9.735256E-06,7.371,0,0.4914,-6.109713E-05,7.371,0
0.4923,-9.735256E-06,7.3845,0,0.4923,-1.443504E-05,7.3845,0
0.4932,5.371176E-06,7.398,0,0.4932,-1.644922E-05,7.398,0
0.4941,1.443504E-05,7.4115,0,0.4941,-5.841154E-05,7.4115,0
0.495,-1.712062E-05,7.425,0,0.495,-1.510643E-05,7.425,0
0.4959,-1.846342E-05,7.4385,0,0.4959,1.544213E-05,7.4385,0
0.4968,6.713969E-06,7.452,0,0.4968,-2.652018E-05,7.452,0
0.4977,1.409934E-05,7.4655,0,0.4977,-1.779202E-05,7.4655,0
0.4986,-1.040665E-05,7.479,0,0.4986,2.21561E-05,7.479,0
0.4995,1.544213E-05,7.4925,0,0.4995,1.477073E-05,7.4925,0
0.5004,1.007095E-06,7.506,0,0.5004,-1.007095E-06,7.506,0
0.5013,-3.356985E-07,7.5195,0,0.5013,-2.21561E-05,7.5195,0
0.5022,-6.042573E-06,7.533,0,0.5022,-2.349889E-05,7.533,0
0.5031,-1.879912E-05,7.5465,0,0.5031,-1.275654E-05,7.5465,0
0.504,-1.309224E-05,7.56,0,0.504,-3.793393E-05,7.56,0
0.5049,3.356985E-06,7.5735,0,0.5049,-3.323415E-05,7.5735,0
0.5058,-4.095522E-05,7.587,0,0.5058,-1.040665E-05,7.587,0
0.5067,-3.390555E-05,7.6005,0,0.5067,-2.719158E-05,7.6005,0
0.5076,-9.063859E-06,7.614,0,0.5076,-5.404745E-05,7.614,0
0.5085,-2.081331E-05,7.6275,0,0.5085,-7.721065E-06,7.6275,0
0.5094,-1.242084E-05,7.641,0,0.5094,-3.356985E-07,7.641,0
0.5103,-2.316319E-05,7.6545,0,0.5103,-4.901198E-05,7.6545,0
0.5112,-3.860533E-05,7.668,0,0.5112,-4.39765E-05,7.668,0
0.5121,-3.256275E-05,7.6815,0,0.5121,-7.721065E-06,7.6815,0
0.513,-2.18204E-05,7.695,0,0.513,-7.049668E-06,7.695,0
0.5139,-9.063859E-06,7.7085,0,0.5139,-1.376364E-05,7.7085,0
0.5148,-2.920577E-05,7.722,0,0.5148,-4.46479E-05,7.722,0
0.5157,-7.721065E-06,7.7355,0,0.5157,-1.107805E-05,7.7355,0
0.5166,2.652018E-05,7.749,0,0.5166,8.392462E-06,7.749,0
0.5175,8.728161E-06,7.7625,0,0.5175,-1.443504E-05,7.7625,0
0.5184,1.477073E-05,7.776,0,0.5184,-3.826963E-05,7.776,0
0.5193,0,7.7895,0,0.5193,1.510643E-05,7.7895,0
0.5202,1.846342E-05,7.803,0,0.5202,2.551309E-05,7.803,0
0.5211,2.349889E-05,7.8165,0,0.5211,-3.994812E-05,7.8165,0
0.522,-2.18204E-05,7.83,0,0.522,-1.007095E-05,7.83,0
0.5229,-2.24918E-05,7.8435,0,0.5229,2.24918E-05,7.8435,0
0.5238,-3.826963E-05,7.857,0,0.5238,-2.920577E-05,7.857,0
0.5247,-1.376364E-05,7.8705,0,0.5247,-1.846342E-05,7.8705,0
0.5256,3.356985E-07,7.884,0,0.5256,2.349889E-06,7.884,0
0.5265,-8.392462E-06,7.8975,0,0.5265,-1.913481E-05,7.8975,0
0.5274,-3.692683E-06,7.911,0,0.5274,-1.846342E-05,7.911,0
0.5283,1.342794E-06,7.9245,0,0.5283,-3.726253E-05,7.9245,0
0.5292,2.349889E-06,7.938,0,0.5292,1.342794E-06,7.938,0
0.5301,1.644922E-05,7.9515,0,0.5301,2.21561E-05,7.9515,0
0.531,1.107805E-05,7.965,0,0.531,-8.392462E-06,7.965,0
0.5319,-2.014191E-06,7.9785,0,0.5319,-3.323415E-05,7.9785,0
0.5328,-1.510643E-05,7.992,0,0.5328,-9.735256E-06,7.992,0
0.5337,-2.014191E-06,8.0055,0,0.5337,-3.524834E-05,8.0055,0
0.5346,1.577783E-05,8.019,0,0.5346,-6.143282E-05,8.019,0
0.5355,-8.392462E-06,8.0325,0,0.5355,-2.618448E-05,8.0325,0
0.5364,-1.812772E-05,8.046,0,0.5364,8.728161E-06,8.046,0
0.5373,-2.719158E-05,8.0595,0,0.5373,-3.088426E-05,8.0595,0
0.5382,-3.692683E-05,8.073,0,0.5382,-3.155566E-05,8.073,0
0.5391,-4.53193E-05,8.0865,0,0.5391,-3.356985E-06,8.0865,0
0.54,-1.040665E-05,8.1,0,0.54,-1.712062E-05,8.1,0
0.5409,3.356985E-06,8.1135,0,0.5409,-1.678492E-05,8.1135,0
0.5418,1.846342E-05,8.127,0,0.5418,-4.095522E-05,8.127,0
0.5427,2.920577E-05,8.1405,0,0.5427,-2.28275E-05,8.1405,0
0.5436,-1.913481E-05,8.154,0,0.5436,2.450599E-05,8.154,0
0.5445,-1.913481E-05,8.1675,0,0.5445,-1.074235E-05,8.1675,0
0.5454,7.721065E-06,8.181,0,0.5454,-4.46479E-05,8.181,0
0.5463,5.706874E-06,8.1945,0,0.5463,1.678492E-05,8.1945,0
0.5472,4.36408E-06,8.208,0,0.5472,-1.007095E-05,8.208,0
0.5481,2.349889E-06,8.2215,0,0.5481,-7.653925E-05,8.2215,0
0.549,-5.706874E-06,8.235,0,0.549,-3.457694E-05,8.235,0
0.5499,1.376364E-05,8.2485,0,0.5499,-2.652018E-05,8.2485,0
0.5508,2.349889E-05,8.262,0,0.5508,-2.18204E-05,8.262,0
0.5517,2.484169E-05,8.2755,0,0.5517,3.625543E-05,8.2755,0
0.5526,-3.021286E-06,8.289,0,0.5526,4.229801E-05,8.289,0
0.5535,3.356985E-07,8.3025,0,0.5535,1.040665E-05,8.3025,0
0.5544,9.063859E-06,8.316,0,0.5544,-1.846342E-05,8.316,0
0.5553,1.678492E-06,8.3295,0,0.5553,-4.934768E-05,8.3295,0
0.5562,-1.913481E-05,8.343,0,0.5562,-1.980621E-05,8.343,0
0.5571,-5.471885E-05,8.3565,0,0.5571,-2.484169E-05,8.3565,0
0.558,-3.289845E-05,8.37,0,0.558,-6.54612E-05,8.37,0
0.5589,-3.659113E-05,8.3835,0,0.5589,-7.687495E-05,8.3835,0
0.5598,-3.692683E-05,8.397,0,0.5598,-3.424125E-05,8.397,0
0.5607,-1.309224E-05,8.4105,0,0.5607,-2.28275E-05,8.4105,0
0.5616,-2.24918E-05,8.424,0,0.5616,-3.256275E-05,8.424,0
0.5625,-1.611353E-05,8.4375,0,0.5625,4.39765E-05,8.4375,0
0.5634,2.349889E-06,8.451,0,0.5634,1.577783E-05,8.451,0
0.5643,-1.678492E-06,8.4645,0,0.5643,-4.43122E-05,8.4645,0
0.5652,2.450599E-05,8.478,0,0.5652,-3.189136E-05,8.478,0
0.5661,1.040665E-05,8.4915,0,0.5661,-1.409934E-05,8.4915,0
0.567,-1.174945E-05,8.505,0,0.567,-2.450599E-05,8.505,0
0.5679,-1.611353E-05,8.5185,0,0.5679,-2.349889E-05,8.5185,0
0.5688,-1.779202E-05,8.532,0,0.5688,-4.934768E-05,8.532,0
0.5697,-1.510643E-05,8.5455,0,0.5697,-1.510643E-05,8.5455,0
0.5706,-6.076142E-05,8.559,0,0.5706,-5.035477E-06,8.559,0
0.5715,-2.081331E-05,8.5725,0,0.5715,-3.793393E-05,8.5725,0
0.5724,1.242084E-05,8.586,0,0.5724,-5.001907E-05,8.586,0
0.5733,-8.392462E-06,8.5995,0,0.5733,8.728161E-06,8.5995,0
0.5742,-1.846342E-05,8.613,0,0.5742,-1.913481E-05,8.613,0
0.5751,-2.014191E-06,8.6265,0,0.5751,-5.975433E-05,8.6265,0
0.576,-2.383459E-05,8.64,0,0.576,-1.242084E-05,8.64,0
0.5769,-6.378271E-06,8.6535,0,0.5769,1.980621E-05,8.6535,0
0.5778,-1.007095E-06,8.667,0,0.5778,-3.659113E-05,8.667,0
0.5787,2.685588E-06,8.6805,0,0.5787,-3.088426E-05,8.6805,0
0.5796,-1.242084E-05,8.694,0,0.5796,1.577783E-05,8.694,0
0.5805,1.242084E-05,8.7075,0,0.5805,7.385367E-06,8.7075,0
0.5814,2.786297E-05,8.721,0,0.5814,-1.376364E-05,8.721,0
0.5823,6.378271E-06,8.7345,0,0.5823,-2.383459E-05,8.7345,0
0.5832,-3.356985E-07,8.748,0,0.5832,-1.376364E-05,8.748,0
0.5841,-1.107805E-05,8.7615,0,0.5841,-1.678492E-06,8.7615,0
0.585,-5.371176E-06,8.775,0,0.585,-2.618448E-05,8.775,0
0.5859,-3.692683E-06,8.7885,0,0.5859,-4.229801E-05,8.7885,0
0.5868,7.385367E-06,8.802,0,0.5868,1.174945E-05,8.802,0
0.5877,-4.699779E-06,8.8155,0,0.5877,-1.678492E-06,8.8155,0
0.5886,3.021286E-06,8.829,0,0.5886,-4.53193E-05,8.829,0
0.5895,-4.699779E-06,8.8425,0,0.5895,-1.678492E-06,8.8425,0
0.5904,-3.289845E-05,8.856,0,0.5904,1.007095E-06,8.856,0
0.5913,-1.275654E-05,8.8695,0,0.5913,-4.934768E-05,8.8695,0
0.5922,-3.558404E-05,8.883,0,0.5922,-2.450599E-05,8.883,0
0.5931,-4.36408E-05,8.8965,0,0.5931,2.349889E-06,8.8965,0
0.594,-3.625543E-05,8.91,0,0.594,-1.242084E-05,8.91,0
0.5949,-2.786297E-05,8.9235,0,0.5949,-1.409934E-05,8.9235,0
0.5958,-2.752728E-05,8.937,0,0.5958,-3.659113E-05,8.937,0
0.5967,-1.309224E-05,8.9505,0,0.5967,-6.042573E-06,8.9505,0
0.5976,1.779202E-05,8.964,0,0.5976,-7.721065E-06,8.964,0
0.5985,1.443504E-05,8.9775,0,0.5985,-4.867628E-05,8.9775,0
0.5994,2.1149E-05,8.991,0,0.5994,-5.606165E-05,8.991,0
0.6003,1.007095E-06,9.0045,0,0.6003,-4.36408E-06,9.0045,0
0.6012,0,9.018,0,0.6012,-1.577783E-05,9.018,0
0.6021,4.43122E-05,9.0315,0,0.6021,-7.553216E-05,9.0315,0
0.603,2.584878E-05,9.045,0,0.603,-2.18204E-05,9.045,0
0.6039,-2.18204E-05,9.0585,0,0.6039,-1.275654E-05,9.0585,0
0.6048,-1.376364E-05,9.072001,0,0.6048,-6.009003E-05,9.072001,0
0.6057,-2.887007E-05,9.0855,0,0.6057,-2.853437E-05,9.0855,0
0.6066,-3.121996E-05,9.099,0,0.6066,-3.692683E-06,9.099,0
0.6075,-2.349889E-06,9.1125,0,0.6075,-1.678492E-05,9.1125,0
0.6084,-1.141375E-05,9.126,0,0.6084,-2.484169E-05,9.126,0
0.6093,-1.544213E-05,9.1395,0,0.6093,-4.934768E-05,9.1395,0
0.6102,-4.36408E-06,9.153,0,0.6102,-3.054856E-05,9.153,0
0.6111,-1.846342E-05,9.1665,0,0.6111,-6.378271E-06,9.1665,0
0.612,-7.049668E-06,9.18,0,0.612,-1.980621E-05,9.18,0
0.6129,1.275654E-05,9.1935,0,0.6129,-1.342794E-06,9.1935,0
0.6138,-1.309224E-05,9.207,0,0.6138,3.994812E-05,9.207,0
0.6147,-1.309224E-05,9.2205,0,0.6147,3.054856E-05,9.2205,0
0.6156,1.342794E-05,9.234,0,0.6156,-8.056763E-06,9.234,0
0.6165,2.1149E-05,9.2475,0,0.6165,1.376364E-05,9.2475,0
0.6174,1.644922E-05,9.261,0,0.6174,2.349889E-05,9.261,0
0.6183,1.577783E-05,9.2745,0,0.6183,-2.887007E-05,9.2745,0
0.6192,-2.517739E-05,9.288,0,0.6192,-2.383459E-05,9.288,0
0.6201,-2.316319E-05,9.3015,0,0.6201,8.392462E-06,9.3015,0
0.621,-4.36408E-06,9.315,0,0.621,9.063859E-06,9.315,0
0.6219,-1.980621E-05,9.3285,0,0.6219,-3.054856E-05,9.3285,0
0.6228,-1.242084E-05,9.342,0,0.6228,-4.699779E-05,9.342,0
0.6237,-5.035477E-06,9.3555,0,0.6237,-2.383459E-05,9.3555,0
0.6246,-3.356985E-07,9.369,0,0.6246,-9.735256E-06,9.369,0
0.6255,-2.349889E-06,9.3825,0,0.6255,-3.558404E-05,9.3825,0
0.6264,1.913481E-05,9.396,0,0.6264,-5.069047E-05,9.396,0
0.6273,1.812772E-05,9.4095,0,0.6273,-1.913481E-05,9.4095,0
0.6282,-6.378271E-06,9.423,0,0.6282,-2.752728E-05,9.423,0
0.6291,-3.692683E-06,9.4365,0,0.6291,-6.915389E-05,9.4365,0
0.63,1.712062E-05,9.45,0,0.63,-2.349889E-06,9.45,0
0.6309,1.577783E-05,9.4635,0,0.6309,1.577783E-05,9.4635,0
0.6318,-1.443504E-05,9.477,0,0.6318,-5.404745E-05,9.477,0
0.6327,1.309224E-05,9.4905,0,0.6327,-2.719158E-05,9.4905,0
0.6336,-1.107805E-05,9.504,0,0.6336,-1.208515E-05,9.504,0
0.6345,-9.399558E-06,9.5175,0,0.6345,-3.424125E-05,9.5175,0
0.6354,1.007095E-06,9.531,0,0.6354,-3.558404E-05,9.531,0
0.6363,-8.392462E-06,9.5445,0,0.6363,-5.740444E-05,9.5445,0
0.6372,-1.510643E-05,9.558,0,0.6372,-1.611353E-05,9.558,0
0.6381,-4.834058E-05,9.5715,0,0.6381,-2.349889E-06,9.5715,0
0.639,-3.558404E-05,9.585,0,0.639,-2.21561E-05,9.585,0
0.6399,-2.21561E-05,9.5985,0,0.6399,-2.18204E-05,9.5985,0
0.6408,-4.263371E-05,9.612,0,0.6408,1.913481E-05,9.612,0
0.6417,0,9.6255,0,0.6417,1.846342E-05,9.6255,0
0.6426,1.812772E-05,9.639,0,0.6426,-2.081331E-05,9.639,0
0.6435,-7.049668E-06,9.6525,0,0.6435,2.28275E-05,9.6525,0
0.6444,2.383459E-05,9.666,0,0.6444,2.920577E-05,9.666,0
0.6453,-5.035477E-06,9.6795,0,0.6453,-4.867628E-05,9.6795,0
0.6462,-2.383459E-05,9.693,0,0.6462,-7.452507E-05,9.693,0
0.6471,4.028382E-06,9.7065,0,0.6471,-1.577783E-05,9.7065,0
0.648,-2.18204E-05,9.72,0,0.648,-3.994812E-05,9.72,0
0.6489,-2.987716E-05,9.7335,0,0.6489,-3.390555E-05,9.7335,0
0.6498,-1.678492E-06,9.747,0,0.6498,-3.121996E-05,9.747,0
0.6507,4.699779E-06,9.7605,0,0.6507,2.920577E-05,9.7605,0
0.6516,2.1149E-05,9.774,0,0.6516,3.088426E-05,9.774,0
0.6525,7.721065E-06,9.7875,0,0.6525,-2.987716E-05,9.7875,0
0.6534,1.913481E-05,9.801,0,0.6534,-5.404745E-05,9.801,0
0.6543,-1.477073E-05,9.8145,0,0.6543,-3.021286E-06,9.8145,0
0.6552,-1.577783E-05,9.828,0,0.6552,3.222705E-05,9.828,0
0.6561,1.174945E-05,9.8415,0,0.6561,-1.779202E-05,9.8415,0
0.657,-4.028382E-06,9.855,0,0.657,-4.36408E-06,9.855,0
0.6579,-2.920577E-05,9.8685,0,0.6579,-3.155566E-05,9.8685,0
0.6588,-2.584878E-05,9.882,0,0.6588,-6.6804E-05,9.882,0
0.6597,-5.069047E-05,9.8955,0,0.6597,-4.867628E-05,9.8955,0
0.6606,-4.800488E-05,9.909,0,0.6606,-1.443504E-05,9.909,0
0.6615,-3.356985E-05,9.9225,0,0.6615,-2.24918E-05,9.9225,0
0.6624,-3.524834E-05,9.936,0,0.6624,-1.577783E-05,9.936,0
0.6633,-1.275654E-05,9.9495,0,0.6633,1.678492E-05,9.9495,0
0.6642,7.049668E-06,9.963,0,0.6642,6.277562E-05,9.963,0
0.6651,3.356985E-05,9.976501,0,0.6651,4.666209E-05,9.976501,0
0.666,2.786297E-05,9.99,0,0.666,-4.36408E-06,9.99,0
0.6669,3.121996E-05,10.0035,0,0.6669,-4.934768E-05,10.0035,0
0.6678,2.652018E-05,10.017,0,0.6678,-2.28275E-05,10.017,0
0.6687,5.706874E-06,10.0305,0,0.6687,-0.0001346151,10.0305,0
0.6696,-8.392462E-06,10.044,0,0.6696,-0.0001275654,10.044,0
0.6705,-2.24918E-05,10.0575,0,0.6705,-8.392462E-06,10.0575,0
0.6714,-4.162661E-05,10.071,0,0.6714,5.706874E-06,10.071,0
0.6723,-5.438316E-05,10.0845,0,0.6723,-6.243992E-05,10.0845,0
0.6732,-1.242084E-05,10.098,0,0.6732,-5.438316E-05,10.098,0
0.6741,-1.577783E-05,10.1115,0,0.6741,-1.846342E-05,10.1115,0
0.675,-2.920577E-05,10.125,0,0.675,-1.107805E-05,10.125,0
0.6759,-2.349889E-05,10.1385,0,0.6759,-7.385367E-06,10.1385,0
0.6768,-2.349889E-06,10.152,0,0.6768,-4.33051E-05,10.152,0
0.6777,1.342794E-06,10.1655,0,0.6777,-1.644922E-05,10.1655,0
0.6786,-4.129091E-05,10.179,0,0.6786,7.721065E-06,10.179,0
0.6795,-2.652018E-05,10.1925,0,0.6795,-2.1149E-05,10.1925,0
0.6804,-2.349889E-06,10.206,0,0.6804,-2.1149E-05,10.206,0
0.6813,-1.040665E-05,10.2195,0,0.6813,2.987716E-05,10.2195,0
0.6822,-3.524834E-05,10.233,0,0.6822,-1.376364E-05,10.233,0
0.6831,-1.141375E-05,10.2465,0,0.6831,-4.095522E-05,10.2465,0
0.684,-3.356985E-07,10.26,0,0.684,-3.356985E-07,10.26,0
0.6849,2.517739E-05,10.2735,0,0.6849,-6.378271E-06,10.2735,0
0.6858,3.558404E-05,10.287,0,0.6858,-5.941863E-05,10.287,0
0.6867,2.1149E-05,10.3005,0,0.6867,-5.706874E-05,10.3005,0
0.6876,5.035477E-06,10.314,0,0.6876,-1.577783E-05,10.314,0
0.6885,2.316319E-05,10.3275,0,0.6885,-4.699779E-05,10.3275,0
0.6894,2.24918E-05,10.341,0,0.6894,-6.478981E-05,10.341,0
0.6903,2.719158E-05,10.3545,0,0.6903,-7.956054E-05,10.3545,0
0.6912,1.577783E-05,10.368,0,0.6912,-3.860533E-05,10.368,0
0.6921,-9.063859E-06,10.3815,0,0.6921,4.699779E-06,10.3815,0
0.693,-1.007095E-05,10.395,0,0.693,1.644922E-05,10.395,0
0.6939,-2.014191E-06,10.4085,0,0.6939,1.208515E-05,10.4085,0
0.6948,-2.887007E-05,10.422,0,0.6948,4.733349E-05,10.422,0
0.6957,-3.323415E-05,10.4355,0,0.6957,3.625543E-05,10.4355,0
0.6966,3.021286E-06,10.449,0,0.6966,1.040665E-05,10.449,0
0.6975,1.141375E-05,10.4625,0,0.6975,4.39765E-05,10.4625,0
0.6984,-4.800488E-05,10.476,0,0.6984,5.706874E-06,10.476,0
0.6993,-4.263371E-05,10.4895,0,0.6993,-4.934768E-05,10.4895,0
0.7002,2.1149E-05,10.503,0,0.7002,-3.927672E-05,10.503,0
0.7011,-1.309224E-05,10.5165,0,0.7011,-3.860533E-05,10.5165,0
0.702,-3.424125E-05,10.53,0,0.702,-4.766919E-05,10.53,0
0.7029,-5.035477E-06,10.5435,0,0.7029,-4.196231E-05,10.5435,0
0.7038,6.378271E-06,10.557,0,0.7038,-7.016098E-05,10.557,0
0.7047,-3.256275E-05,10.5705,0,0.7047,-4.229801E-05,10.5705,0
0.7056,-5.270466E-05,10.584,0,0.7056,-2.719158E-05,10.584,0
0.7065,-1.712062E-05,10.5975,0,0.7065,-3.021286E-05,10.5975,0
0.7074,1.812772E-05,10.611,0,0.7074,-8.728161E-06,10.611,0
0.7083,-1.107805E-05,10.6245,0,0.7083,4.934768E-05,10.6245,0
0.7092,-2.954147E-05,10.638,0,0.7092,5.069047E-05,10.638,0
0.7101,6.713969E-06,10.6515,0,0.7101,1.409934E-05,10.6515,0
0.711,-1.007095E-05,10.665,0,0.711,5.941863E-05,10.665,0
0.7119,2.383459E-05,10.6785,0,0.7119,8.560311E-05,10.6785,0
0.7128,2.719158E-05,10.692,0,0.7128,1.712062E-05,10.692,0
0.7137,-3.356985E-07,10.7055,0,0.7137,-1.577783E-05,10.7055,0
0.7146,-5.035477E-06,10.719,0,0.7146,1.242084E-05,10.719,0
0.7155,3.356985E-06,10.7325,0,0.7155,1.007095E-06,10.7325,0
0.7164,-1.007095E-06,10.746,0,0.7164,-2.014191E-05,10.746,0
0.7173,2.349889E-06,10.7595,0,0.7173,-5.136187E-05,10.7595,0
0.7182,-4.36408E-06,10.773,0,0.7182,-1.544213E-05,10.773,0
0.7191,-2.853437E-05,10.7865,0,0.7191,4.36408E-06,10.7865,0
0.72,-9.735256E-06,10.8,0,0.72,-2.349889E-05,10.8,0
0.7209,3.356985E-06,10.8135,0,0.7209,-2.551309E-05,10.8135,0
0.7218,-1.980621E-05,10.827,0,0.7218,1.007095E-06,10.827,0
0.7227,-1.980621E-05,10.8405,0,0.7227,-1.913481E-05,10.8405,0
0.7236,-2.349889E-06,10.854,0,0.7236,-7.083238E-05,10.854,0
0.7245,-3.356985E-07,10.8675,0,0.7245,-4.934768E-05,10.8675,0
0.7254,-1.443504E-05,10.881,0,0.7254,-4.33051E-05,10.881,0
0.7263,4.699779E-06,10.8945,0,0.7263,-8.627451E-05,10.8945,0
0.7272,2.584878E-05,10.908,0,0.7272,-9.030289E-05,10.908,0
0.7281,-1.510643E-05,10.9215,0,0.7281,-7.351797E-05,10.9215,0
0.729,-3.692683E-06,10.935,0,0.729,-5.774014E-05,10.935,0
0.7299,3.692683E-06,10.9485,0,0.7299,-4.867628E-05,10.9485,0
0.7308,-2.450599E-05,10.962,0,0.7308,-5.203327E-05,10.962,0
0.7317,-1.577783E-05,10.9755,0,0.7317,6.378271E-06,10.9755,0
0.7326,-1.544213E-05,10.989,0,0.7326,7.486076E-05,10.989,0
0.7335,-3.356985E-07,11.0025,0,0.7335,5.337606E-05,11.0025,0
0.7344,3.692683E-06,11.016,0,0.7344,3.021286E-05,11.016,0
0.7353,-8.392462E-06,11.0295,0,0.7353,5.270466E-05,11.0295,0
0.7362,-1.544213E-05,11.043,0,0.7362,2.719158E-05,11.043,0
0.7371,1.309224E-05,11.0565,0,0.7371,-2.920577E-05,11.0565,0
0.738,1.745632E-05,11.07,0,0.738,3.356985E-06,11.07,0
0.7389,-3.524834E-05,11.0835,0,0.7389,3.692683E-06,11.0835,0
0.7398,-4.666209E-05,11.097,0,0.7398,-5.203327E-05,11.097,0
0.7407,3.021286E-06,11.1105,0,0.7407,-4.33051E-05,11.1105,0
0.7416,-2.047761E-05,11.124,0,0.7416,-2.652018E-05,11.124,0
0.7425,-2.584878E-05,11.1375,0,0.7425,-4.263371E-05,11.1375,0
0.7434,-3.356985E-07,11.151,0,0.7434,-6.411841E-05,11.151,0
0.7443,-2.014191E-06,11.1645,0,0.7443,-6.54612E-05,11.1645,0
0.7452,-1.712062E-05,11.178,0,0.7452,-4.867628E-05,11.178,0
0.7461,-2.450599E-05,11.1915,0,0.7461,-4.599069E-05,11.1915,0
0.747,9.735256E-06,11.205,0,0.747,-7.553216E-05,11.205,0
0.7479,1.376364E-05,11.2185,0,0.7479,-8.661021E-05,11.2185,0
0.7488,-3.323415E-05,11.232,0,0.7488,-4.263371E-05,11.232,0
0.7497,-7.754635E-05,11.2455,0,0.7497,-4.599069E-05,11.2455,0
0.7506,-8.392462E-05,11.259,0,0.7506,-7.586786E-05,11.259,0
0.7515,-4.867628E-05,11.2725,0,0.7515,-2.987716E-05,11.2725,0
0.7524,-1.107805E-05,11.286,0,0.7524,-3.390555E-05,11.286,0
0.7533,3.860533E-05,11.2995,0,0.7533,-5.404745E-05,11.2995,0
0.7542,4.49836E-05,11.313,0,0.7542,-3.424125E-05,11.313,0
0.7551,5.069047E-05,11.3265,0,0.7551,1.712062E-05,11.3265,0
0.756,4.028382E-05,11.34,0,0.756,2.383459E-05,11.34,0
0.7569,5.169757E-05,11.3535,0,0.7569,6.881819E-05,11.3535,0
0.7578,2.652018E-05,11.367,0,0.7578,-4.36408E-06,11.367,0
0.7587,1.040665E-05,11.3805,0,0.7587,-3.189136E-05,11.3805,0
0.7596,3.054856E-05,11.394,0,0.7596,9.063859E-06,11.394,0
0.7605,-7.049668E-06,11.4075,0,0.7605,-2.652018E-05,11.4075,0
0.7614,-1.577783E-05,11.421,0,0.7614,-3.457694E-05,11.421,0
0.7623,-9.735256E-06,11.4345,0,0.7623,5.740444E-05,11.4345,0
0.7632,-5.706874E-06,11.448,0,0.7632,0.0001003738,11.448,0
0.7641,6.378271E-06,11.4615,0,0.7641,3.860533E-05,11.4615,0
0.765,-1.644922E-05,11.475,0,0.765,5.136187E-05,11.475,0
0.7659,-2.853437E-05,11.4885,0,0.7659,0,11.4885,0
0.7668,-3.189136E-05,11.502,0,0.7668,-0.0001050736,11.502,0
0.7677,-1.443504E-05,11.5155,0,0.7677,-5.807584E-05,11.5155,0
0.7686,-3.256275E-05,11.529,0,0.7686,5.035477E-06,11.529,0
0.7695,-2.752728E-05,11.5425,0,0.7695,-9.433127E-05,11.5425,0
0.7704,1.007095E-06,11.556,0,0.7704,-0.0001332723,11.556,0
0.7713,-3.994812E-05,11.5695,0,0.7713,-9.802396E-05,11.5695,0
0.7722,-4.666209E-05,11.583,0,0.7722,-5.270466E-05,11.583,0
0.7731,-2.1149E-05,11.5965,0,0.7731,-4.095522E-05,11.5965,0
0.774,-1.007095E-06,11.61,0,0.774,-5.471885E-05,11.61,0
0.7749,6.713969E-07,11.6235,0,0.7749,-4.632639E-05,11.6235,0
0.7758,-3.021286E-06,11.637,0,0.7758,1.712062E-05,11.637,0
0.7767,-8.392462E-06,11.6505,0,0.7767,1.779202E-05,11.6505,0
0.7776,-5.706874E-06,11.664,0,0.7776,-2.316319E-05,11.664,0
0.7785,-1.443504E-05,11.6775,0,0.7785,3.323415E-05,11.6775,0
0.7794,1.309224E-05,11.691,0,0.7794,5.673304E-05,11.691,0
0.7803,1.409934E-05,11.7045,0,0.7803,-5.706874E-06,11.7045,0
0.7812,-1.275654E-05,11.718,0,0.7812,-2.887007E-05,11.718,0
0.7821,9.735256E-06,11.7315,0,0.7821,2.383459E-05,11.7315,0
0.783,-5.706874E-06,11.745,0,0.783,1.242084E-05,11.745,0
0.7839,3.356985E-07,11.7585,0,0.7839,1.544213E-05,11.7585,0
0.7848,-3.692683E-06,11.772,0,0.7848,-9.735256E-06,11.772,0
0.7857,-7.049668E-06,11.7855,0,0.7857,2.014191E-06,11.7855,0
0.7866,-5.706874E-06,11.799,0,0.7866,1.275654E-05,11.799,0
0.7875,7.721065E-06,11.8125,0,0.7875,-2.24918E-05,11.8125,0
0.7884,4.36408E-06,11.826,0,0.7884,-4.196231E-05,11.826,0
0.7893,-9.735256E-06,11.8395,0,0.7893,-6.378271E-06,11.8395,0
0.7902,1.779202E-05,11.853,0,0.7902,-2.853437E-05,11.853,0
0.7911,1.309224E-05,11.8665,0,0.7911,-6.109713E-05,11.8665,0
0.792,-8.728161E-06,11.88,0,0.792,-1.409934E-05,11.88,0
0.7929,-3.692683E-06,11.8935,0,0.7929,-6.713969E-06,11.8935,0
0.7938,8.728161E-06,11.907,0,0.7938,-6.881819E-05,11.907,0
0.7947,2.450599E-05,11.9205,0,0.7947,-1.242084E-05,11.9205,0
0.7956,-4.699779E-06,11.934,0,0.7956,3.356985E-05,11.934,0
0.7965,1.040665E-05,11.9475,0,0.7965,-1.947051E-05,11.9475,0
0.7974,1.007095E-06,11.961,0,0.7974,-4.49836E-05,11.961,0
0.7983,1.577783E-05,11.9745,0,0.7983,-7.553216E-05,11.9745,0
0.7992,3.524834E-05,11.988,0,0.7992,-7.251087E-05,11.988,0
0.8001,-8.728161E-06,12.0015,0,0.8001,-7.385367E-05,12.0015,0
0.801,-1.712062E-05,12.015,0,0.801,-0.0001138018,12.015,0
0.8019,-9.735256E-06,12.0285,0,0.8019,-0.0001138018,12.0285,0
0.8028,-4.061952E-05,12.042,0,0.8028,-4.229801E-05,12.042,0
0.8037,-6.009003E-05,12.0555,0,0.8037,-2.18204E-05,12.0555,0
0.8046,-2.719158E-05,12.069,0,0.8046,-9.063859E-06,12.069,0
0.8055,-3.323415E-05,12.0825,0,0.8055,3.961242E-05,12.0825,0
0.8064,-6.478981E-05,12.096,0,0.8064,3.524834E-05,12.096,0
0.8073,-4.934768E-05,12.1095,0,0.8073,3.524834E-05,12.1095,0
0.8082,1.309224E-05,12.123,0,0.8082,6.210422E-05,12.123,0
0.8091,-1.040665E-05,12.1365,0,0.8091,8.89601E-05,12.1365,0
0.81,2.349889E-06,12.15,0,0.81,8.392462E-05,12.15,0
0.8109,3.726253E-05,12.1635,0,0.8109,6.210422E-05,12.1635,0
0.8118,3.189136E-05,12.177,0,0.8118,1.040665E-05,12.177,0
0.8127,3.356985E-06,12.1905,0,0.8127,2.819867E-05,12.1905,0
0.8136,-1.846342E-05,12.204,0,0.8136,4.263371E-05,12.204,0
0.8145,-2.18204E-05,12.2175,0,0.8145,1.007095E-06,12.2175,0
0.8154,-1.477073E-05,12.231,0,0.8154,-1.712062E-05,12.231,0
0.8163,-1.644922E-05,12.2445,0,0.8163,3.054856E-05,12.2445,0
0.8172,-2.24918E-05,12.258,0,0.8172,-5.706874E-06,12.258,0
0.8181,-3.356985E-07,12.2715,0,0.8181,-5.975433E-05,12.2715,0
0.819,2.24918E-05,12.285,0,0.819,-1.678492E-05,12.285,0
0.8199,5.740444E-05,12.2985,0,0.8199,-4.867628E-05,12.2985,0
0.8208,2.853437E-05,12.312,0,0.8208,-0.0001037308,12.312,0
0.8217,5.035477E-06,12.3255,0,0.8217,-6.61326E-05,12.3255,0
0.8226,-2.517739E-05,12.339,0,0.8226,-9.735256E-06,12.339,0
0.8235,-7.687495E-05,12.3525,0,0.8235,-3.726253E-05,12.3525,0
0.8244,-9.970245E-05,12.366,0,0.8244,-3.659113E-05,12.366,0
0.8253,-4.666209E-05,12.3795,0,0.8253,-5.169757E-05,12.3795,0
0.8262,-6.344701E-05,12.393,0,0.8262,-3.088426E-05,12.393,0
0.8271,-9.701686E-05,12.4065,0,0.8271,-1.376364E-05,12.4065,0
0.828,-3.793393E-05,12.42,0,0.828,-3.054856E-05,12.42,0
0.8289,-1.107805E-05,12.4335,0,0.8289,-4.49836E-05,12.4335,0
0.8298,-2.349889E-06,12.447,0,0.8298,-8.392462E-06,12.447,0
0.8307,2.383459E-05,12.4605,0,0.8307,-3.524834E-05,12.4605,0
0.8316,2.920577E-05,12.474,0,0.8316,-8.761731E-05,12.474,0
0.8325,1.007095E-05,12.4875,0,0.8325,-6.344701E-05,12.4875,0
0.8334,8.392462E-06,12.501,0,0.8334,-4.766919E-05,12.501,0
0.8343,2.1149E-05,12.5145,0,0.8343,-6.210422E-05,12.5145,0
0.8352,-1.510643E-05,12.528,0,0.8352,-2.316319E-05,12.528,0
0.8361,-2.349889E-06,12.5415,0,0.8361,5.539025E-05,12.5415,0
0.837,2.1149E-05,12.555,0,0.837,5.740444E-05,12.555,0
0.8379,-9.735256E-06,12.5685,0,0.8379,1.007095E-06,12.5685,0
0.8388,3.692683E-06,12.582,0,0.8388,-5.404745E-05,12.582,0
0.8397,3.289845E-05,12.5955,0,0.8397,-2.047761E-05,12.5955,0
0.8406,-1.644922E-05,12.609,0,0.8406,-3.021286E-06,12.609,0
0.8415,-2.719158E-05,12.6225,0,0.8415,-8.224613E-05,12.6225,0
0.8424,-3.021286E-06,12.636,0,0.8424,-6.378271E-05,12.636,0
0.8433,-6.009003E-05,12.6495,0,0.8433,-1.007095E-05,12.6495,0
0.8442,-0.0001164874,12.663,0,0.8442,-4.666209E-05,12.663,0
0.8451,-3.558404E-05,12.6765,0,0.8451,-0.0001050736,12.6765,0
0.846,-3.356985E-07,12.69,0,0.846,-5.438316E-05,12.69,0
0.8469,4.934768E-05,12.7035,0,0.8469,-5.774014E-05,12.7035,0
0.8478,0.0001221943,12.717,0,0.8478,-9.936675E-05,12.717,0
0.8487,0.0001433432,12.7305,0,0.8487,-3.961242E-05,12.7305,0
0.8496,5.270466E-05,12.744,0,0.8496,-4.33051E-05,12.744,0
0.8505,-5.706874E-06,12.7575,0,0.8505,-5.941863E-05,12.7575,0
0.8514,-5.874724E-05,12.771,0,0.8514,-3.961242E-05,12.771,0
0.8523,-6.344701E-05,12.7845,0,0.8523,0,12.7845,0
0.8532,-4.39765E-05,12.798,0,0.8532,4.229801E-05,12.798,0
0.8541,-9.030289E-05,12.8115,0,0.8541,4.36408E-05,12.8115,0
0.855,-6.277562E-05,12.825,0,0.855,2.18204E-05,12.825,0
0.8559,-2.987716E-05,12.8385,0,0.8559,-1.141375E-05,12.8385,0
0.8568,-3.323415E-05,12.852,0,0.8568,-4.36408E-06,12.852,0
0.8577,-1.242084E-05,12.8655,0,0.8577,-9.063859E-06,12.8655,0
0.8586,1.007095E-06,12.879,0,0.8586,7.721065E-06,12.879,0
0.8595001,-1.980621E-05,12.8925,0,0.8595001,4.53193E-05,12.8925,0
0.8604,2.081331E-05,12.906,0,0.8604,7.083238E-05,12.906,0
0.8613,5.203327E-05,12.9195,0,0.8613,7.351797E-05,12.9195,0
0.8622,3.121996E-05,12.933,0,0.8622,5.471885E-05,12.933,0
0.8631,2.987716E-05,12.9465,0,0.8631,5.807584E-05,12.9465,0
0.864,2.853437E-05,12.96,0,0.864,3.726253E-05,12.96,0
0.8649,2.24918E-05,12.9735,0,0.8649,2.316319E-05,12.9735,0
0.8658,1.980621E-05,12.987,0,0.8658,-4.095522E-05,12.987,0
0.8667,-7.721065E-06,13.0005,0,0.8667,-2.887007E-05,13.0005,0
0.8676,-2.24918E-05,13.014,0,0.8676,-1.510643E-05,13.014,0
0.8685,-9.735256E-06,13.0275,0,0.8685,-4.834058E-05,13.0275,0
0.8694,3.356985E-06,13.041,0,0.8694,-6.57969E-05,13.041,0
0.8703,-9.735256E-06,13.0545,0,0.8703,-1.644922E-05,13.0545,0
0.8712,-8.056763E-06,13.068,0,0.8712,-5.304036E-05,13.068,0
0.8721,1.644922E-05,13.0815,0,0.8721,-0.000105745,13.0815,0
0.873,1.443504E-05,13.095,0,0.873,-4.33051E-05,13.095,0
0.8739,-1.745632E-05,13.1085,0,0.8739,-5.404745E-05,13.1085,0
0.8748,5.035477E-06,13.122,0,0.8748,-9.097429E-05,13.122,0
0.8757,4.867628E-05,13.1355,0,0.8757,-5.539025E-05,13.1355,0
0.8766,-2.450599E-05,13.149,0,0.8766,-2.1149E-05,13.149,0
0.8775,-2.853437E-05,13.1625,0,0.8775,-3.155566E-05,13.1625,0
0.8784,-7.049668E-06,13.176,0,0.8784,-8.392462E-06,13.176,0
0.8793,-1.275654E-05,13.1895,0,0.8793,6.378271E-06,13.1895,0
0.8802,-4.36408E-06,13.203,0,0.8802,7.049668E-06,13.203,0
0.8811,-4.095522E-05,13.2165,0,0.8811,4.666209E-05,13.2165,0
0.882,-3.726253E-05,13.23,0,0.882,4.061952E-05,13.23,0
0.8829,-7.049668E-06,13.2435,0,0.8829,1.074235E-05,13.2435,0
0.8838,-5.706874E-06,13.257,0,0.8838,-1.007095E-06,13.257,0
0.8847,-1.779202E-05,13.2705,0,0.8847,-3.659113E-05,13.2705,0
0.8856,-2.047761E-05,13.284,0,0.8856,-0.0001319295,13.284,0
0.8865,-1.779202E-05,13.2975,0,0.8865,-0.0001315938,13.2975,0
0.8874,-1.745632E-05,13.311,0,0.8874,-0.0001141375,13.311,0
0.8883,-2.014191E-05,13.3245,0,0.8883,-0.0001067521,13.3245,0
0.8892,-8.392462E-06,13.338,0,0.8892,-6.74754E-05,13.338,0
0.8901,-1.174945E-05,13.3515,0,0.8901,1.577783E-05,13.3515,0
0.891,-3.692683E-06,13.365,0,0.891,6.54612E-05,13.365,0
0.8919,4.196231E-05,13.3785,0,0.8919,0.0001003738,13.3785,0
0.8928,4.766919E-05,13.392,0,0.8928,9.634547E-05,13.392,0
0.8937,2.349889E-05,13.4055,0,0.8937,0.0001389792,13.4055,0
0.8946,-5.706874E-06,13.419,0,0.8946,0.0001312581,13.419,0
0.8955,-1.242084E-05,13.4325,0,0.8955,4.129091E-05,13.4325,0
0.8964,5.035477E-06,13.446,0,0.8964,-3.021286E-06,13.446,0
0.8973,-1.644922E-05,13.4595,0,0.8973,-1.644922E-05,13.4595,0
0.8982,-4.934768E-05,13.473,0,0.8982,-5.203327E-05,13.473,0
0.8991,-5.438316E-05,13.4865,0,0.8991,-8.358892E-05,13.4865,0
0.9,-4.733349E-05,13.5,0,0.9,-3.726253E-05,13.5,0
0.9009,-7.721065E-06,13.5135,0,0.9009,-3.021286E-05,13.5135,0
0.9018,4.800488E-05,13.527,0,0.9018,-7.821774E-05,13.527,0
0.9027,4.901198E-05,13.5405,0,0.9027,-6.74754E-05,13.5405,0
0.9036,-3.356985E-07,13.554,0,0.9036,-5.807584E-05,13.554,0
0.9045,-5.941863E-05,13.5675,0,0.9045,-7.150377E-05,13.5675,0
0.9054,-8.627451E-05,13.581,0,0.9054,-3.088426E-05,13.581,0
0.9063,-3.793393E-05,13.5945,0,0.9063,1.678492E-06,13.5945,0
0.9072,-3.189136E-05,13.608,0,0.9072,5.035477E-05,13.608,0
0.9081,-2.28275E-05,13.6215,0,0.9081,5.236896E-05,13.6215,0
0.909,3.323415E-05,13.635,0,0.909,-1.779202E-05,13.635,0
0.9099,4.46479E-05,13.6485,0,0.9099,-7.754635E-05,13.6485,0
0.9108,-1.779202E-05,13.662,0,0.9108,-5.539025E-05,13.662,0
0.9117,-3.155566E-05,13.6755,0,0.9117,-8.89601E-05,13.6755,0
0.9126,2.987716E-05,13.689,0,0.9126,-0.000102388,13.689,0
0.9135,-7.385367E-06,13.7025,0,0.9135,-3.121996E-05,13.7025,0
0.9144,-2.1149E-05,13.716,0,0.9144,2.18204E-05,13.716,0
0.9153,-3.021286E-06,13.7295,0,0.9153,2.349889E-05,13.7295,0
0.9162,2.014191E-06,13.743,0,0.9162,4.263371E-05,13.743,0
0.9171,-6.713969E-06,13.7565,0,0.9171,7.553216E-05,13.7565,0
0.918,1.007095E-06,13.77,0,0.918,7.385367E-06,13.77,0
0.9189,1.040665E-05,13.7835,0,0.9189,-3.826963E-05,13.7835,0
0.9198,1.846342E-05,13.797,0,0.9198,-5.673304E-05,13.797,0
0.9207,3.189136E-05,13.8105,0,0.9207,5.035477E-06,13.8105,0
0.9216,2.1149E-05,13.824,0,0.9216,2.047761E-05,13.824,0
0.9225,-1.107805E-05,13.8375,0,0.9225,-2.047761E-05,13.8375,0
0.9234,-1.107805E-05,13.851,0,0.9234,-4.263371E-05,13.851,0
0.9243,-2.1149E-05,13.8645,0,0.9243,3.356985E-06,13.8645,0
0.9252,-1.477073E-05,13.878,0,0.9252,-1.980621E-05,13.878,0
0.9261,-1.477073E-05,13.8915,0,0.9261,-5.874724E-05,13.8915,0
0.927,-4.36408E-06,13.905,0,0.927,-1.745632E-05,13.905,0
0.9279,3.356985E-05,13.9185,0,0.9279,-1.812772E-05,13.9185,0
0.9288,2.987716E-05,13.932,0,0.9288,-5.975433E-05,13.932,0
0.9297,2.24918E-05,13.9455,0,0.9297,-5.673304E-05,13.9455,0
0.9306,-1.812772E-05,13.959,0,0.9306,-5.471885E-05,13.959,0
0.9315,-8.291753E-05,13.9725,0,0.9315,-8.157473E-05,13.9725,0
0.9324,-9.835965E-05,13.986,0,0.9324,-7.754635E-05,13.986,0
0.9333,-7.083238E-05,13.9995,0,0.9333,-0.0001104448,13.9995,0
0.9342,-3.121996E-05,14.013,0,0.9342,-7.318227E-05,14.013,0
0.9351,-6.378271E-06,14.0265,0,0.9351,-1.812772E-05,14.0265,0
0.936,-1.107805E-05,14.04,0,0.936,-2.24918E-05,14.04,0
0.9369,2.752728E-05,14.0535,0,0.9369,-2.24918E-05,14.0535,0
0.9378,7.351797E-05,14.067,0,0.9378,2.047761E-05,14.067,0
0.9387,5.740444E-05,14.0805,0,0.9387,-5.673304E-05,14.0805,0
0.9396001,5.001907E-05,14.094,0,0.9396001,-0.0001309224,14.094,0
0.9405,-6.378271E-06,14.1075,0,0.9405,-9.567407E-05,14.1075,0
0.9414001,-3.961242E-05,14.121,0,0.9414001,-7.687495E-05,14.121,0
0.9423,1.678492E-05,14.1345,0,0.9423,-4.53193E-05,14.1345,0
0.9432001,-5.807584E-05,14.148,0,0.9432001,1.510643E-05,14.148,0
0.9441,-8.72816E-05,14.1615,0,0.9441,6.814679E-05,14.1615,0
0.9450001,-4.867628E-05,14.175,0,0.9450001,0.0001460288,14.175,0
0.9459,-7.486076E-05,14.1885,0,0.9459,0.0001738918,14.1885,0
0.9468,-4.061952E-05,14.202,0,0.9468,9.768826E-05,14.202,0
0.9477,2.349889E-06,14.2155,0,0.9477,0.0001044022,14.2155,0
0.9486,-4.699779E-06,14.229,0,0.9486,9.399557E-05,14.229,0
0.9495,-1.376364E-05,14.2425,0,0.9495,1.477073E-05,14.2425,0
0.9504,1.678492E-06,14.256,0,0.9504,-4.43122E-05,14.256,0
0.9513,5.035477E-06,14.2695,0,0.9513,-2.316319E-05,14.2695,0
0.9522,-5.035477E-06,14.283,0,0.9522,-6.143282E-05,14.283,0
0.9531,1.678492E-06,14.2965,0,0.9531,-0.000115816,14.2965,0
0.954,3.826963E-05,14.31,0,0.954,-6.076142E-05,14.31,0
0.9549,0.0001000381,14.3235,0,0.9549,-7.855344E-05,14.3235,0
0.9558,8.291753E-05,14.337,0,0.9558,-0.0001265583,14.337,0
0.9567,6.411841E-05,14.3505,0,0.9567,-7.553216E-05,14.3505,0
0.9576,-1.443504E-05,14.364,0,0.9576,-1.242084E-05,14.364,0
0.9585,-4.901198E-05,14.3775,0,0.9585,2.014191E-05,14.3775,0
0.9594,-5.404745E-05,14.391,0,0.9594,5.337606E-05,14.391,0
0.9603,-5.673304E-05,14.4045,0,0.9603,2.349889E-06,14.4045,0
0.9612,-6.74754E-05,14.418,0,0.9612,-1.443504E-05,14.418,0
0.9621,-0.000126894,14.4315,0,0.9621,2.584878E-05,14.4315,0
0.963,-0.0001292439,14.445,0,0.963,1.947051E-05,14.445,0
0.9639,-0.000102388,14.4585,0,0.9639,1.577783E-05,14.4585,0
0.9648,-8.728161E-06,14.472,0,0.9648,2.618448E-05,14.472,0
0.9657,0.0001070878,14.4855,0,0.9657,7.049668E-06,14.4855,0
0.9666,0.0001560998,14.499,0,0.9666,-3.491264E-05,14.499,0
0.9675,9.567407E-05,14.5125,0,0.9675,7.049668E-06,14.5125,0
0.9684,3.659113E-05,14.526,0,0.9684,3.356985E-07,14.526,0
0.9693,5.270466E-05,14.5395,0,0.9693,-6.78111E-05,14.5395,0
0.9702,-5.438316E-05,14.553,0,0.9702,-7.888914E-05,14.553,0
0.9711,-9.298848E-05,14.5665,0,0.9711,-7.553216E-05,14.5665,0
0.972,-2.618448E-05,14.58,0,0.972,-6.982528E-05,14.58,0
0.9729,2.349889E-06,14.5935,0,0.9729,-1.107805E-05,14.5935,0
0.9738,1.846342E-05,14.607,0,0.9738,3.390555E-05,14.607,0
0.9747,1.007095E-06,14.6205,0,0.9747,6.814679E-05,14.6205,0
0.9756,-1.309224E-05,14.634,0,0.9756,3.054856E-05,14.634,0
0.9765,-3.424125E-05,14.6475,0,0.9765,-3.726253E-05,14.6475,0
0.9774,-6.378271E-06,14.661,0,0.9774,-5.941863E-05,14.661,0
0.9783,-7.721065E-06,14.6745,0,0.9783,-3.356985E-06,14.6745,0
0.9792,1.342794E-06,14.688,0,0.9792,-1.174945E-05,14.688,0
0.9801,2.450599E-05,14.7015,0,0.9801,-6.478981E-05,14.7015,0
0.981,-2.1149E-05,14.715,0,0.981,-5.874724E-05,14.715,0
0.9819,-1.007095E-05,14.7285,0,0.9819,-5.203327E-05,14.7285,0
0.9828,2.24918E-05,14.742,0,0.9828,-8.258183E-05,14.742,0
0.9837,1.947051E-05,14.7555,0,0.9837,-8.627451E-05,14.7555,0
0.9846,0,14.769,0,0.9846,-4.229801E-05,14.769,0
0.9855,3.457694E-05,14.7825,0,0.9855,-7.217517E-05,14.7825,0
0.9864,1.040665E-05,14.796,0,0.9864,-0.0001151446,14.796,0
0.9873,-2.014191E-06,14.8095,0,0.9873,-0.0001040665,14.8095,0
0.9882,1.745632E-05,14.823,0,0.9882,-6.143282E-05,14.823,0
0.9891,3.961242E-05,14.8365,0,0.9891,-4.666209E-05,14.8365,0
0.99,3.054856E-05,14.85,0,0.99,-5.102617E-05,14.85,0
0.9909,-2.349889E-06,14.8635,0,0.9909,-5.706874E-05,14.8635,0
0.9918,-2.719158E-05,14.877,0,0.9918,-1.107805E-05,14.877,0
0.9927,4.666209E-05,14.8905,0,0.9927,1.980621E-05,14.8905,0
0.9936,0.0001037308,14.904,0,0.9936,5.337606E-05,14.904,0
0.9945,-3.390555E-05,14.9175,0,0.9945,6.948959E-05,14.9175,0
0.9954,-0.0001735561,14.931,0,0.9954,6.61326E-05,14.931,0
0.9963,-8.96315E-05,14.9445,0,0.9963,1.980621E-05,14.9445,0
0.9972,-3.121996E-05,14.958,0,0.9972,-1.879912E-05,14.958,0
0.9981,-5.270466E-05,14.9715,0,0.9981,2.1149E-05,14.9715,0
0.999,-8.69459E-05,14.985,0,0.999,-5.941863E-05,14.985,0
0.9999,-2.517739E-05,14.9985,0,0.9999,-7.284657E-05,14.9985,0
1.0008,6.243992E-05,15.012,0,1.0008,-5.337606E-05,15.012,0
1.0017,7.821774E-05,15.0255,0,1.0017,-1.544213E-05,15.0255,0
1.0026,5.740444E-05,15.039,0,1.0026,5.035477E-06,15.039,0
1.0035,1.678492E-05,15.0525,0,1.0035,4.699779E-06,15.0525,0
1.0044,-1.443504E-05,15.066,0,1.0044,1.007095E-06,15.066,0
1.0053,-7.049668E-05,15.0795,0,1.0053,-8.392462E-06,15.0795,0
1.0062,-8.123904E-05,15.093,0,1.0062,-2.484169E-05,15.093,0
1.0071,-0.0001295796,15.1065,0,1.0071,-4.733349E-05,15.1065,0
1.008,-0.0001154803,15.12,0,1.008,6.143282E-05,15.12,0
1.0089,-5.304036E-05,15.1335,0,1.0089,0.0001084306,15.1335,0
1.0098,-5.001907E-05,15.147,0,1.0098,5.539025E-05,15.147,0
1.0107,-8.224613E-05,15.1605,0,1.0107,3.356985E-06,15.1605,0
1.0116,-2.685588E-05,15.174,0,1.0116,-2.517739E-05,15.174,0
1.0125,1.007095E-06,15.1875,0,1.0125,-9.164568E-05,15.1875,0
1.0134,-1.644922E-05,15.201,0,1.0134,-9.500267E-05,15.201,0
1.0143,-4.53193E-05,15.2145,0,1.0143,-7.486076E-05,15.2145,0
1.0152,2.517739E-05,15.228,0,1.0152,-1.611353E-05,15.228,0
1.0161,1.174945E-05,15.2415,0,1.0161,2.652018E-05,15.2415,0
1.017,-3.323415E-05,15.255,0,1.017,-6.713969E-07,15.255,0
1.0179,3.390555E-05,15.2685,0,1.0179,9.735256E-06,15.2685,0
1.0188,3.659113E-05,15.282,0,1.0188,7.318227E-05,15.282,0
1.0197,-4.867628E-05,15.2955,0,1.0197,3.927672E-05,15.2955,0
1.0206,-2.853437E-05,15.309,0,1.0206,-1.544213E-05,15.309,0
1.0215,1.174945E-05,15.3225,0,1.0215,-1.342794E-05,15.3225,0
1.0224,0.0001195087,15.336,0,1.0224,-1.107805E-05,15.336,0
1.0233,0.0001715419,15.3495,0,1.0233,-5.438316E-05,15.3495,0
1.0242,0.0001560998,15.363,0,1.0242,-3.189136E-05,15.363,0
1.0251,0.0001326009,15.3765,0,1.0251,-1.913481E-05,15.3765,0
1.026,7.452507E-05,15.39,0,1.026,-2.047761E-05,15.39,0
1.0269,1.376364E-05,15.4035,0,1.0269,-2.450599E-05,15.4035,0
1.0278,-2.752728E-05,15.417,0,1.0278,-6.042573E-05,15.417,0
1.0287,-6.344701E-05,15.4305,0,1.0287,-7.284657E-05,15.4305,0
1.0296,-2.18204E-05,15.444,0,1.0296,-9.433127E-05,15.444,0
1.0305,3.994812E-05,15.4575,0,1.0305,-0.0001245441,15.4575,0
1.0314,1.040665E-05,15.471,0,1.0314,-9.735256E-05,15.471,0
1.0323,1.342794E-06,15.4845,0,1.0323,-2.18204E-05,15.4845,0
1.0332,2.349889E-06,15.498,0,1.0332,2.047761E-05,15.498,0
1.0341,-4.46479E-05,15.5115,0,1.0341,4.867628E-05,15.5115,0
1.035,-7.553216E-05,15.525,0,1.035,9.097429E-05,15.525,0
1.0359,-4.263371E-05,15.5385,0,1.0359,3.793393E-05,15.5385,0
1.0368,-1.443504E-05,15.552,0,1.0368,-3.860533E-05,15.552,0
1.0377,-3.356985E-07,15.5655,0,1.0377,-3.927672E-05,15.5655,0
1.0386,-3.390555E-05,15.579,0,1.0386,-2.517739E-05,15.579,0
1.0395,-1.913481E-05,15.5925,0,1.0395,-2.349889E-05,15.5925,0
1.0404,3.692683E-06,15.606,0,1.0404,-1.678492E-05,15.606,0
1.0413,-7.721065E-06,15.6195,0,1.0413,-8.795301E-05,15.6195,0
1.0422,-1.510643E-05,15.633,0,1.0422,-7.351797E-05,15.633,0
1.0431,-5.975433E-05,15.6465,0,1.0431,-9.063859E-05,15.6465,0
1.044,-5.404745E-05,15.66,0,1.044,-0.0001299153,15.66,0
1.0449,-2.316319E-05,15.6735,0,1.0449,-0.0001037308,15.6735,0
1.0458,-5.908293E-05,15.687,0,1.0458,5.337606E-05,15.687,0
1.0467,1.007095E-06,15.7005,0,1.0467,0.0001131304,15.7005,0
1.0476,3.894102E-05,15.714,0,1.0476,8.560311E-05,15.714,0
1.0485,-2.081331E-05,15.7275,0,1.0485,4.867628E-05,15.7275,0
1.0494,-1.577783E-05,15.741,0,1.0494,1.040665E-05,15.741,0
1.0503,-9.399558E-06,15.7545,0,1.0503,-4.800488E-05,15.7545,0
1.0512,2.014191E-05,15.768,0,1.0512,-4.599069E-05,15.768,0
1.0521,-1.678492E-06,15.7815,0,1.0521,-3.457694E-05,15.7815,0
1.053,-1.477073E-05,15.795,0,1.053,-2.819867E-05,15.795,0
1.0539,-3.256275E-05,15.8085,0,1.0539,-2.551309E-05,15.8085,0
1.0548,-1.141375E-05,15.822,0,1.0548,-5.706874E-05,15.822,0
1.0557,-1.007095E-06,15.8355,0,1.0557,-3.726253E-05,15.8355,0
1.0566,-1.007095E-05,15.849,0,1.0566,-2.719158E-05,15.849,0
1.0575,-4.699779E-06,15.8625,0,1.0575,-6.109713E-05,15.8625,0
1.0584,-6.378271E-06,15.876,0,1.0584,-6.277562E-05,15.876,0
1.0593,-3.021286E-05,15.8895,0,1.0593,-2.24918E-05,15.8895,0
1.0602,4.36408E-06,15.903,0,1.0602,-3.323415E-05,15.903,0
1.0611,7.217517E-05,15.9165,0,1.0611,-4.800488E-05,15.9165,0
1.062,5.673304E-05,15.93,0,1.062,1.812772E-05,15.93,0
1.0629,1.678492E-06,15.9435,0,1.0629,2.853437E-05,15.9435,0
1.0638,3.356985E-06,15.957,0,1.0638,1.678492E-05,15.957,0
1.0647,-5.471885E-05,15.9705,0,1.0647,0.0001010452,15.9705,0
1.0656,-9.063859E-05,15.984,0,1.0656,0.0001708705,15.984,0
1.0665,-5.471885E-05,15.9975,0,1.0665,0.0001080949,15.9975,0
1.0674,2.383459E-05,16.011,0,1.0674,5.505455E-05,16.011,0
1.0683,7.721065E-06,16.0245,0,1.0683,1.779202E-05,16.0245,0
1.0692,-2.349889E-05,16.038,0,1.0692,-1.107805E-05,16.038,0
1.0701,-2.819867E-05,16.0515,0,1.0701,-6.378271E-06,16.0515,0
1.071,-4.800488E-05,16.065,0,1.071,-4.733349E-05,16.065,0
1.0719,-3.726253E-05,16.0785,0,1.0719,-0.0001017166,16.0785,0
1.0728,-5.740444E-05,16.092,0,1.0728,-4.36408E-05,16.092,0
1.0737,-5.069047E-05,16.1055,0,1.0737,-2.517739E-05,16.1055,0
1.0746,7.049668E-06,16.119,0,1.0746,-6.076142E-05,16.119,0
1.0755,3.726253E-05,16.1325,0,1.0755,1.174945E-05,16.1325,0
1.0764,1.812772E-05,16.146,0,1.0764,1.812772E-05,16.146,0
1.0773,3.121996E-05,16.1595,0,1.0773,1.107805E-05,16.1595,0
1.0782,3.826963E-05,16.173,0,1.0782,3.994812E-05,16.173,0
1.0791,4.968337E-05,16.1865,0,1.0791,2.316319E-05,16.1865,0
1.08,3.591974E-05,16.2,0,1.08,-1.812772E-05,16.2,0
1.0809,1.443504E-05,16.2135,0,1.0809,-5.807584E-05,16.2135,0
1.0818,2.719158E-05,16.227,0,1.0818,-5.404745E-05,16.227,0
1.0827,-5.807584E-05,16.2405,0,1.0827,-1.947051E-05,16.2405,0
1.0836,-1.812772E-05,16.254,0,1.0836,-1.913481E-05,16.254,0
1.0845,5.035477E-05,16.2675,0,1.0845,-5.941863E-05,16.2675,0
1.0854,-2.081331E-05,16.281,0,1.0854,-7.821774E-05,16.281,0
1.0863,-0.0001077592,16.2945,0,1.0863,-2.450599E-05,16.2945,0
1.0872,-0.0001185016,16.308,0,1.0872,-6.009003E-05,16.308,0
1.0881,-0.0001406577,16.3215,0,1.0881,-8.96315E-05,16.3215,0
1.089,-0.0001138018,16.335,0,1.089,-5.774014E-05,16.335,0
1.0899,-6.243992E-05,16.3485,0,1.0899,-5.304036E-05,16.3485,0
1.0908,3.021286E-06,16.362,0,1.0908,-9.365987E-05,16.362,0
1.0917,5.740444E-05,16.3755,0,1.0917,-4.766919E-05,16.3755,0
1.0926,8.023193E-05,16.389,0,1.0926,-4.36408E-06,16.389,0
1.0935,8.795301E-05,16.4025,0,1.0935,-1.174945E-05,16.4025,0
1.0944,1.779202E-05,16.416,0,1.0944,-1.745632E-05,16.416,0
1.0953,-7.049668E-06,16.4295,0,1.0953,-3.793393E-05,16.4295,0
1.0962,3.692683E-06,16.443,0,1.0962,-2.450599E-05,16.443,0
1.0971,-3.356985E-07,16.4565,0,1.0971,6.713969E-06,16.4565,0
1.098,5.539025E-05,16.47,0,1.098,-1.712062E-05,16.47,0
1.0989,7.217517E-05,16.4835,0,1.0989,-4.46479E-05,16.4835,0
1.0998,2.920577E-05,16.497,0,1.0998,4.867628E-05,16.497,0
1.1007,5.270466E-05,16.5105,0,1.1007,1.947051E-05,16.5105,0
1.1016,7.956054E-05,16.524,0,1.1016,-9.298848E-05,16.524,0
1.1025,7.217517E-05,16.5375,0,1.1025,-8.157473E-05,16.5375,0
1.1034,6.713969E-07,16.551,0,1.1034,-0.0001292439,16.551,0
1.1043,-3.558404E-05,16.5645,0,1.1043,-0.0001795987,16.5645,0
1.1052,-0.0001272297,16.578,0,1.1052,-0.0001456931,16.578,0
1.1061,-0.000190341,16.5915,0,1.1061,-5.774014E-05,16.5915,0
1.107,-0.0001393149,16.605,0,1.107,3.155566E-05,16.605,0
1.1079,-6.478981E-05,16.6185,0,1.1079,5.505455E-05,16.6185,0
1.1088,3.457694E-05,16.632,0,1.1088,0.0001000381,16.632,0
1.1097,6.478981E-05,16.6455,0,1.1097,0.000207126,16.6455,0
1.1106,1.309224E-05,16.659,0,1.1106,0.0001174945,16.659,0
1.1115,-4.599069E-05,16.6725,0,1.1115,-1.409934E-05,16.6725,0
1.1124,-1.275654E-05,16.686,0,1.1124,-2.752728E-05,16.686,0
1.1133,3.692683E-05,16.6995,0,1.1133,1.611353E-05,16.6995,0
1.1142,4.36408E-06,16.713,0,1.1142,3.457694E-05,16.713,0
1.1151,-2.316319E-05,16.7265,0,1.1151,-1.275654E-05,16.7265,0
1.116,-1.242084E-05,16.74,0,1.116,4.599069E-05,16.74,0
1.1169,4.162661E-05,16.7535,0,1.1169,7.620356E-05,16.7535,0
1.1178,1.174945E-05,16.767,0,1.1178,2.014191E-06,16.767,0
1.1187,-3.826963E-05,16.7805,0,1.1187,-3.759823E-05,16.7805,0
1.1196,9.399558E-06,16.794,0,1.1196,-2.786297E-05,16.794,0
1.1205,4.699779E-06,16.8075,0,1.1205,-3.289845E-05,16.8075,0
1.1214,-1.913481E-05,16.821,0,1.1214,-6.78111E-05,16.821,0
1.1223,-1.644922E-05,16.8345,0,1.1223,-0.0001164874,16.8345,0
1.1232,8.392462E-06,16.848,0,1.1232,-0.000115816,16.848,0
1.1241,5.438316E-05,16.8615,0,1.1241,-8.090334E-05,16.8615,0
1.125,4.666209E-05,16.875,0,1.125,-8.358892E-05,16.875,0
1.1259,1.644922E-05,16.8885,0,1.1259,-4.599069E-05,16.8885,0
1.1268,-1.174945E-05,16.902,0,1.1268,9.533837E-05,16.902,0
1.1277,-3.793393E-05,16.9155,0,1.1277,9.399557E-05,16.9155,0
1.1286,-2.517739E-05,16.929,0,1.1286,-4.632639E-05,16.929,0
1.1295,-4.800488E-05,16.9425,0,1.1295,-3.289845E-05,16.9425,0
1.1304,5.236896E-05,16.956,0,1.1304,-3.793393E-05,16.956,0
1.1313,9.835965E-05,16.9695,0,1.1313,-8.761731E-05,16.9695,0
1.1322,3.390555E-05,16.983,0,1.1322,-6.243992E-05,16.983,0
1.1331,-1.611353E-05,16.9965,0,1.1331,3.323415E-05,16.9965,0
1.134,-1.007095E-06,17.01,0,1.134,0.0001510643,17.01,0
1.1349,-5.572595E-05,17.0235,0,1.1349,0.0001094377,17.0235,0
1.1358,-0.0001567712,17.037,0,1.1358,9.063859E-06,17.037,0
1.1367,-0.0001644923,17.0505,0,1.1367,1.510643E-05,17.0505,0
1.1376,-9.869535E-05,17.064,0,1.1376,3.189136E-05,17.064,0
1.1385,-2.21561E-05,17.0775,0,1.1385,-4.061952E-05,17.0775,0
1.1394,0,17.091,0,1.1394,-8.526741E-05,17.091,0
1.1403,1.577783E-05,17.1045,0,1.1403,-1.779202E-05,17.1045,0
1.1412,1.040665E-05,17.118,0,1.1412,-1.745632E-05,17.118,0
1.1421,7.721065E-06,17.1315,0,1.1421,-7.553216E-05,17.1315,0
1.143,-4.699779E-06,17.145,0,1.143,-3.692683E-05,17.145,0
1.1439,-1.745632E-05,17.1585,0,1.1439,-1.577783E-05,17.1585,0
1.1448,3.021286E-06,17.172,0,1.1448,-4.867628E-05,17.172,0
1.1457,1.275654E-05,17.1855,0,1.1457,-1.913481E-05,17.1855,0
1.1466,-3.692683E-05,17.199,0,1.1466,-5.706874E-06,17.199,0
1.1475,-1.376364E-05,17.2125,0,1.1475,-2.383459E-05,17.2125,0
1.1484,3.524834E-05,17.226,0,1.1484,-3.961242E-05,17.226,0
1.1493,4.934768E-05,17.2395,0,1.1493,-5.941863E-05,17.2395,0
1.1502,0.0001094377,17.253,0,1.1502,-3.860533E-05,17.253,0
1.1511,0.0001500572,17.2665,0,1.1511,-3.793393E-05,17.2665,0
1.152,0.0001007095,17.28,0,1.152,-5.438316E-05,17.28,0
1.1529,5.404745E-05,17.2935,0,1.1529,-0.0001040665,17.2935,0
1.1538,-3.121996E-05,17.307,0,1.1538,-5.740444E-05,17.307,0
1.1547,-0.0002286107,17.3205,0,1.1547,-0.0001010452,17.3205,0
1.1556,-0.0002514381,17.334,0,1.1556,-0.000154757,17.334,0
1.1565,-5.471885E-05,17.3475,0,1.1565,-4.36408E-05,17.3475,0
1.1574,1.544213E-05,17.361,0,1.1574,-2.786297E-05,17.361,0
1.1583,5.673304E-05,17.3745,0,1.1583,-4.800488E-05,17.3745,0
1.1592,9.835965E-05,17.388,0,1.1592,-2.349889E-06,17.388,0
1.1601,7.083238E-05,17.4015,0,1.1601,7.922484E-05,17.4015,0
1.161,3.289845E-05,17.415,0,1.161,1.443504E-05,17.415,0
1.1619,-7.049668E-05,17.4285,0,1.1619,-2.685588E-05,17.4285,0
1.1628,-8.191043E-05,17.442,0,1.1628,-5.606165E-05,17.442,0
1.1637,-1.309224E-05,17.4555,0,1.1637,-8.392462E-06,17.4555,0
1.1646,3.356985E-06,17.469,0,1.1646,4.901198E-05,17.469,0
1.1655,-1.544213E-05,17.4825,0,1.1655,4.968337E-05,17.4825,0
1.1664,-1.510643E-05,17.496,0,1.1664,7.956054E-05,17.496,0
1.1673,-7.318227E-05,17.5095,0,1.1673,0.0001514,17.5095,0
1.1682,-4.36408E-05,17.523,0,1.1682,6.210422E-05,17.523,0
1.1691,1.309224E-05,17.5365,0,1.1691,-3.323415E-05,17.5365,0
1.17,-1.846342E-05,17.55,0,1.17,1.074235E-05,17.55,0
1.1709,-3.692683E-05,17.5635,0,1.1709,-1.779202E-05,17.5635,0
1.1718,-2.652018E-05,17.577,0,1.1718,-7.351797E-05,17.577,0
1.1727,-3.759823E-05,17.5905,0,1.1727,-7.183947E-05,17.5905,0
1.1736,7.049668E-06,17.604,0,1.1736,-5.102617E-05,17.604,0
1.1745,3.457694E-05,17.6175,0,1.1745,-7.553216E-05,17.6175,0
1.1754,0.0001285725,17.631,0,1.1754,-0.000119173,17.631,0
1.1763,0.0002591592,17.6445,0,1.1763,-0.0001520714,17.6445,0
1.1772,0.0002413672,17.658,0,1.1772,-8.96315E-05,17.658,0
1.1781,5.807584E-05,17.6715,0,1.1781,-5.941863E-05,17.6715,0
1.179,-8.493171E-05,17.685,0,1.179,-3.793393E-05,17.685,0
1.1799,-9.500267E-05,17.6985,0,1.1799,3.524834E-05,17.6985,0
1.1808,-0.0001514,17.712,0,1.1808,0.0001910124,17.712,0
1.1817,-0.0003346914,17.7255,0,1.1817,0.0001748989,17.7255,0
1.1826,-0.0002064546,17.739,0,1.1826,3.860533E-05,17.739,0
1.1835,-3.021286E-05,17.7525,0,1.1835,-1.275654E-05,17.7525,0
1.1844,-1.577783E-05,17.766,0,1.1844,-2.584878E-05,17.766,0
1.1853,-1.040665E-05,17.7795,0,1.1853,-0.0001312581,17.7795,0
1.1862,-2.887007E-05,17.793,0,1.1862,-0.0001215228,17.793,0
1.1871,-2.719158E-05,17.8065,0,1.1871,-6.64683E-05,17.8065,0
1.188,-1.107805E-05,17.82,0,1.188,-4.028382E-05,17.82,0
1.1889,1.678492E-06,17.8335,0,1.1889,1.007095E-06,17.8335,0
1.1898,5.337606E-05,17.847,0,1.1898,4.46479E-05,17.847,0
1.1907,0.0001550927,17.8605,0,1.1907,5.337606E-05,17.8605,0
1.1916,0.0001054093,17.874,0,1.1916,5.304036E-05,17.874,0
1.1925,5.874724E-05,17.8875,0,1.1925,-8.056763E-06,17.8875,0
1.1934,-1.107805E-05,17.901,0,1.1934,-2.954147E-05,17.901,0
1.1943,-2.24918E-05,17.9145,0,1.1943,2.584878E-05,17.9145,0
1.1952,-1.712062E-05,17.928,0,1.1952,-1.342794E-06,17.928,0
1.1961,-5.975433E-05,17.9415,0,1.1961,-4.061952E-05,17.9415,0
1.197,-0.0001067521,17.955,0,1.197,-2.719158E-05,17.955,0
1.1979,-3.356985E-07,17.9685,0,1.1979,7.049668E-06,17.9685,0
1.1988,8.056763E-06,17.982,0,1.1988,-3.994812E-05,17.982,0
1.1997,-5.673304E-05,17.9955,0,1.1997,-1.913481E-05,17.9955,0
1.2006,2.417029E-05,18.009,0,1.2006,2.349889E-05,18.009,0
1.2015,9.735256E-05,18.0225,0,1.2015,-8.728161E-06,18.0225,0
1.2024,-3.356985E-07,18.036,0,1.2024,-3.457694E-05,18.036,0
1.2033,-2.920577E-05,18.0495,0,1.2033,-5.169757E-05,18.0495,0
1.2042,-1.745632E-05,18.063,0,1.2042,-5.539025E-05,18.063,0
1.2051,-0.000105745,18.0765,0,1.2051,-6.982528E-05,18.0765,0
1.206,-0.0001339437,18.09,0,1.206,-8.023193E-05,18.09,0
1.2069,-3.659113E-05,18.1035,0,1.2069,-6.814679E-05,18.1035,0
1.2078,4.666209E-05,18.117,0,1.2078,4.229801E-05,18.117,0
1.2087,5.438316E-05,18.1305,0,1.2087,-5.371176E-06,18.1305,0
1.2096,1.007095E-06,18.144,0,1.2096,-0.0001040665,18.144,0
1.2105,-2.786297E-05,18.1575,0,1.2105,-7.183947E-05,18.1575,0
1.2114,2.920577E-05,18.171,0,1.2114,-4.666209E-05,18.171,0
1.2123,8.69459E-05,18.1845,0,1.2123,-0.0001342794,18.1845,0
1.2132,5.975433E-05,18.198,0,1.2132,-0.0001604639,18.198,0
1.2141,6.881819E-05,18.2115,0,1.2141,-9.198138E-05,18.2115,0
1.215,0.0001134661,18.225,0,1.215,-2.316319E-05,18.225,0
1.2159,0.0001329366,18.2385,0,1.2159,3.591974E-05,18.2385,0
1.2168,0.0001393149,18.252,0,1.2168,7.855344E-05,18.252,0
1.2177,-3.256275E-05,18.2655,0,1.2177,0.0001339437,18.2655,0
1.2186,-0.0001601282,18.279,0,1.2186,9.802396E-05,18.279,0
1.2195,-0.0001621424,18.2925,0,1.2195,7.049668E-06,18.2925,0
1.2204,-0.0001272297,18.306,0,1.2204,-4.33051E-05,18.306,0
1.2213,-9.869535E-05,18.3195,0,1.2213,-2.685588E-05,18.3195,0
1.2222,-4.129091E-05,18.333,0,1.2222,-1.309224E-05,18.333,0
1.2231,1.846342E-05,18.3465,0,1.2231,-2.28275E-05,18.3465,0
1.224,-5.706874E-06,18.36,0,1.224,6.74754E-05,18.36,0
1.2249,1.644922E-05,18.3735,0,1.2249,0.0001050736,18.3735,0
1.2258,4.53193E-05,18.387,0,1.2258,-3.356985E-07,18.387,0
1.2267,9.063859E-06,18.4005,0,1.2267,-5.404745E-05,18.4005,0
1.2276,-1.107805E-05,18.414,0,1.2276,-3.558404E-05,18.414,0
1.2285,-3.726253E-05,18.4275,0,1.2285,-1.544213E-05,18.4275,0
1.2294,-3.054856E-05,18.441,0,1.2294,-2.786297E-05,18.441,0
1.2303,1.577783E-05,18.4545,0,1.2303,-0.0001292439,18.4545,0
1.2312,1.846342E-05,18.468,0,1.2312,-0.000105745,18.468,0
1.2321,-2.584878E-05,18.4815,0,1.2321,-7.116808E-05,18.4815,0
1.233,-5.270466E-05,18.495,0,1.233,-7.284657E-05,18.495,0
1.2339,-3.558404E-05,18.5085,0,1.2339,-2.484169E-05,18.5085,0
1.2348,-3.390555E-05,18.522,0,1.2348,0.0001010452,18.522,0
1.2357,-9.063859E-06,18.5355,0,1.2357,0.0001117876,18.5355,0
1.2366,4.061952E-05,18.549,0,1.2366,4.36408E-05,18.549,0
1.2375,3.826963E-05,18.5625,0,1.2375,4.699779E-05,18.5625,0
1.2384,7.217517E-05,18.576,0,1.2384,-1.510643E-05,18.576,0
1.2393,1.913481E-05,18.5895,0,1.2393,-7.318227E-05,18.5895,0
1.2402,-5.136187E-05,18.603,0,1.2402,-8.627451E-05,18.603,0
1.2411,-4.36408E-06,18.6165,0,1.2411,-1.174945E-05,18.6165,0
1.242,5.270466E-05,18.63,0,1.242,7.486076E-05,18.63,0
1.2429,0.000123537,18.6435,0,1.2429,0.0001238727,18.6435,0
1.2438,4.632639E-05,18.657,0,1.2438,3.726253E-05,18.657,0
1.2447,-4.196231E-05,18.6705,0,1.2447,-1.846342E-05,18.6705,0
1.2456,-7.855344E-05,18.684,0,1.2456,-3.121996E-05,18.684,0
1.2465,-7.150377E-05,18.6975,0,1.2465,-5.941863E-05,18.6975,0
1.2474,-7.956054E-05,18.711,0,1.2474,-5.001907E-05,18.711,0
1.2483,-0.0001114519,18.7245,0,1.2483,-2.383459E-05,18.7245,0
1.2492,-1.879912E-05,18.738,0,1.2492,-0.0001671778,18.738,0
1.2501,2.484169E-05,18.7515,0,1.2501,-0.0002581521,18.7515,0
1.251,3.726253E-05,18.765,0,1.251,-0.0001560998,18.765,0
1.2519,4.599069E-05,18.7785,0,1.2519,-0.0001319295,18.7785,0
1.2528,6.713969E-06,18.792,0,1.2528,-0.0001601282,18.792,0
1.2537,-3.256275E-05,18.8055,0,1.2537,-6.982528E-05,18.8055,0
1.2546,-8.358892E-05,18.819,0,1.2546,0.0001198444,18.819,0
1.2555,-5.706874E-06,18.8325,0,1.2555,0.0002343175,18.8325,0
1.2564,7.418937E-05,18.846,0,1.2564,0.0001272297,18.846,0
1.2573,5.740444E-05,18.8595,0,1.2573,4.565499E-05,18.8595,0
1.2582,-1.913481E-05,18.873,0,1.2582,1.712062E-05,18.873,0
1.2591,-2.316319E-05,18.8865,0,1.2591,1.007095E-06,18.8865,0
1.26,-5.807584E-05,18.9,0,1.26,1.879912E-05,18.9,0
1.2609,-8.459602E-05,18.9135,0,1.2609,-4.263371E-05,18.9135,0
1.2618,-0.0001094377,18.927,0,1.2618,-3.323415E-05,18.927,0
1.2627,-6.61326E-05,18.9405,0,1.2627,-7.116808E-05,18.9405,0
1.2636,3.692683E-06,18.954,0,1.2636,-0.0001339437,18.954,0
1.2645,-2.316319E-05,18.9675,0,1.2645,-5.673304E-05,18.9675,0
1.2654,0.0001205158,18.981,0,1.2654,-2.18204E-05,18.981,0
1.2663,0.0002141756,18.9945,0,1.2663,-9.735256E-06,18.9945,0
1.2672,0.0001470359,19.008,0,1.2672,-1.409934E-05,19.008,0
1.2681,7.821774E-05,19.0215,0,1.2681,-2.24918E-05,19.0215,0
1.269,-4.028382E-06,19.035,0,1.269,-9.063859E-06,19.035,0
1.2699,-0.0001366293,19.0485,0,1.2699,3.659113E-05,19.0485,0
1.2708,-0.0002312963,19.062,0,1.2708,-4.699779E-06,19.062,0
1.2717,-9.265278E-05,19.0755,0,1.2717,3.793393E-05,19.0755,0
1.2726,-3.054856E-05,19.089,0,1.2726,9.433127E-05,19.089,0
1.2735,-9.970245E-05,19.1025,0,1.2735,1.846342E-05,19.1025,0
1.2744,-9.433127E-05,19.116,0,1.2744,-6.378271E-06,19.116,0
1.2753,8.056763E-06,19.1295,0,1.2753,6.6804E-05,19.1295,0
1.2762,3.860533E-05,19.143,0,1.2762,9.433127E-05,19.143,0
1.2771,2.652018E-05,19.1565,0,1.2771,3.994812E-05,19.1565,0
1.278,1.745632E-05,19.17,0,1.278,5.706874E-06,19.17,0
1.2789,0.0001205158,19.1835,0,1.2789,-2.349889E-05,19.1835,0
1.2798,0.0001816129,19.197,0,1.2798,-8.96315E-05,19.197,0
1.2807,0.0001621424,19.2105,0,1.2807,-0.000130251,19.2105,0
1.2816,6.814679E-05,19.224,0,1.2816,-0.000130251,19.224,0
1.2825,-1.141375E-05,19.2375,0,1.2825,-0.0001168231,19.2375,0
1.2834,-8.090334E-05,19.251,0,1.2834,-7.284657E-05,19.251,0
1.2843,-6.74754E-05,19.2645,0,1.2843,-3.961242E-05,19.2645,0
1.2852,-9.634547E-05,19.278,0,1.2852,5.203327E-05,19.278,0
1.2861,-5.404745E-05,19.2915,0,1.2861,3.021286E-06,19.2915,0
1.287,8.728161E-06,19.305,0,1.287,-0.0001111162,19.305,0
1.2879,2.719158E-05,19.3185,0,1.2879,-0.0001386435,19.3185,0
1.2888,-9.768826E-05,19.332,0,1.2888,-8.090334E-05,19.332,0
1.2897,-3.088426E-05,19.3455,0,1.2897,-6.478981E-05,19.3455,0
1.2906,7.687495E-05,19.359,0,1.2906,-2.316319E-05,19.359,0
1.2915,-3.726253E-05,19.3725,0,1.2915,0.0001728847,19.3725,0
1.2924,-6.57969E-05,19.386,0,1.2924,0.0001681849,19.386,0
1.2933,-3.289845E-05,19.3995,0,1.2933,-2.24918E-05,19.3995,0
1.2942,-1.980621E-05,19.413,0,1.2942,-9.265278E-05,19.413,0
1.2951,-0.0001386435,19.4265,0,1.2951,-0.0001215228,19.4265,0
1.296,-0.0001245441,19.44,0,1.296,-0.0001104448,19.44,0
1.2969,-9.701686E-05,19.4535,0,1.2969,-0.0001044022,19.4535,0
1.2978,-0.0001070878,19.467,0,1.2978,-7.083238E-05,19.467,0
1.2987,-0.0001228656,19.4805,0,1.2987,6.277562E-05,19.4805,0
1.2996,-0.0001087663,19.494,0,1.2996,0.0001554284,19.494,0
1.3005,-4.061952E-05,19.5075,0,1.3005,0.0001258869,19.5075,0
1.3014,7.486076E-05,19.521,0,1.3014,4.867628E-05,19.521,0
1.3023,0.0001151446,19.5345,0,1.3023,1.074235E-05,19.5345,0
1.3032,0.0001030594,19.548,0,1.3032,-2.484169E-05,19.548,0
1.3041,0.0001248798,19.5615,0,1.3041,-6.74754E-05,19.5615,0
1.305,3.625543E-05,19.575,0,1.305,-3.256275E-05,19.575,0
1.3059,2.517739E-05,19.5885,0,1.3059,-8.392462E-06,19.5885,0
1.3068,4.867628E-05,19.602,0,1.3068,-6.478981E-05,19.602,0
1.3077,-3.625543E-05,19.6155,0,1.3077,-4.46479E-05,19.6155,0
1.3086,-4.934768E-05,19.629,0,1.3086,-2.652018E-05,19.629,0
1.3095,6.713969E-06,19.6425,0,1.3095,-5.774014E-05,19.6425,0
1.3104,5.539025E-05,19.656,0,1.3104,-6.814679E-05,19.656,0
1.3113,5.874724E-05,19.6695,0,1.3113,-0.0001228656,19.6695,0
1.3122,-1.275654E-05,19.683,0,1.3122,-8.358892E-05,19.683,0
1.3131,-9.433127E-05,19.6965,0,1.3131,-1.544213E-05,19.6965,0
1.314,-5.606165E-05,19.71,0,1.314,-2.18204E-05,19.71,0
1.3149,-4.666209E-05,19.7235,0,1.3149,-4.733349E-05,19.7235,0
1.3158,-2.920577E-05,19.737,0,1.3158,9.735256E-06,19.737,0
1.3167,6.814679E-05,19.7505,0,1.3167,2.987716E-05,19.7505,0
1.3176,7.385367E-05,19.764,0,1.3176,-3.793393E-05,19.764,0
1.3185,4.699779E-06,19.7775,0,1.3185,-7.183947E-05,19.7775,0
1.3194,5.807584E-05,19.791,0,1.3194,-6.076142E-05,19.791,0
1.3203,7.721065E-05,19.8045,0,1.3203,-9.332418E-05,19.8045,0
1.3212,-3.692683E-06,19.818,0,1.3212,-5.337606E-05,19.818,0
1.3221,3.323415E-05,19.8315,0,1.3221,-5.706874E-06,19.8315,0
1.323,0.0001087663,19.845,0,1.323,-3.189136E-05,19.845,0
1.3239,7.620356E-05,19.8585,0,1.3239,-7.553216E-05,19.8585,0
1.3248,-6.713969E-07,19.872,0,1.3248,-0.0001238727,19.872,0
1.3257,-3.155566E-05,19.8855,0,1.3257,-5.035477E-05,19.8855,0
1.3266,-2.853437E-05,19.899,0,1.3266,3.894102E-05,19.899,0
1.3275,-8.224613E-05,19.9125,0,1.3275,0.0001107805,19.9125,0
1.3284,-4.699779E-05,19.926,0,1.3284,0.0001265583,19.926,0
1.3293,5.505455E-05,19.9395,0,1.3293,0.0001426719,19.9395,0
1.3302,4.733349E-05,19.953,0,1.3302,0.0001097734,19.953,0
1.3311,8.526741E-05,19.9665,0,1.3311,8.392462E-06,19.9665,0
1.332,9.903105E-05,19.98,0,1.332,4.46479E-05,19.98,0
1.3329,6.243992E-05,19.9935,0,1.3329,5.874724E-05,19.9935,0
1.3338,-1.007095E-06,20.007,0,1.3338,-9.063859E-06,20.007,0
1.3347,-8.358892E-05,20.0205,0,1.3347,-1.980621E-05,20.0205,0
1.3356,-0.0002255894,20.034,0,1.3356,-8.728161E-06,20.034,0
1.3365,-0.000186984,20.0475,0,1.3365,-4.43122E-05,20.0475,0
1.3374,-6.54612E-05,20.061,0,1.3374,-1.544213E-05,20.061,0
1.3383,-1.443504E-05,20.0745,0,1.3383,-5.404745E-05,20.0745,0
1.3392,-1.913481E-05,20.088,0,1.3392,-5.740444E-05,20.088,0
1.3401,-5.236896E-05,20.1015,0,1.3401,-3.793393E-05,20.1015,0
1.341,-6.478981E-05,20.115,0,1.341,-1.107805E-05,20.115,0
1.3419,-5.471885E-05,20.1285,0,1.3419,2.551309E-05,20.1285,0
1.3428,-3.558404E-05,20.142,0,1.3428,2.316319E-05,20.142,0
1.3437,3.189136E-05,20.1555,0,1.3437,-3.222705E-05,20.1555,0
1.3446,5.169757E-05,20.169,0,1.3446,-8.69459E-05,20.169,0
1.3455,-2.685588E-05,20.1825,0,1.3455,-4.43122E-05,20.1825,0
1.3464,-5.136187E-05,20.196,0,1.3464,-3.021286E-06,20.196,0
1.3473,1.040665E-05,20.2095,0,1.3473,2.1149E-05,20.2095,0
1.3482,5.337606E-05,20.223,0,1.3482,7.385367E-06,20.223,0
1.3491,4.867628E-05,20.2365,0,1.3491,1.644922E-05,20.2365,0
1.35,-2.21561E-05,20.25,0,1.35,-2.28275E-05,20.25,0
1.3509,-2.349889E-05,20.2635,0,1.3509,-6.243992E-05,20.2635,0
1.3518,1.040665E-05,20.277,0,1.3518,-0.0001040665,20.277,0
1.3527,-3.994812E-05,20.2905,0,1.3527,-0.0001299153,20.2905,0
1.3536,-2.28275E-05,20.304,0,1.3536,-9.500267E-05,20.304,0
1.3545,8.459602E-05,20.3175,0,1.3545,-7.016098E-05,20.3175,0
1.3554,6.78111E-05,20.331,0,1.3554,-2.081331E-05,20.331,0
1.3563,-6.311131E-05,20.3445,0,1.3563,6.344701E-05,20.3445,0
1.3572,-3.558404E-05,20.358,0,1.3572,4.39765E-05,20.358,0
1.3581,-7.888914E-05,20.3715,0,1.3581,-2.18204E-05,20.3715,0
1.359,-0.0001309224,20.385,0,1.359,-7.956054E-05,20.385,0
1.3599,-8.358892E-05,20.3985,0,1.3599,-0.0001795987,20.3985,0
1.3608,-6.57969E-05,20.412,0,1.3608,-0.0002010834,20.412,0
1.3617,6.378271E-06,20.4255,0,1.3617,-0.0001322652,20.4255,0
1.3626,1.309224E-05,20.439,0,1.3626,0,20.439,0
1.3635,1.510643E-05,20.4525,0,1.3635,7.150377E-05,20.4525,0
1.3644,-1.376364E-05,20.466,0,1.3644,0.0001883268,20.466,0
1.3653,4.39765E-05,20.4795,0,1.3653,0.0002178683,20.4795,0
1.3662,0.0001460288,20.493,0,1.3662,7.620356E-05,20.493,0
1.3671,0.0001957122,20.5065,0,1.3671,2.987716E-05,20.5065,0
1.368,1.309224E-05,20.52,0,1.368,-4.028382E-06,20.52,0
1.3689,-8.795301E-05,20.5335,0,1.3689,-6.713969E-06,20.5335,0
1.3698,-3.054856E-05,20.547,0,1.3698,6.61326E-05,20.547,0
1.3707,-2.551309E-05,20.5605,0,1.3707,-3.021286E-06,20.5605,0
1.3716,-0.0001134661,20.574,0,1.3716,-0.0001275654,20.574,0
1.3725,-5.304036E-05,20.5875,0,1.3725,-8.493171E-05,20.5875,0
1.3734,5.136187E-05,20.601,0,1.3734,-9.265278E-05,20.601,0
1.3743,-9.399558E-06,20.6145,0,1.3743,-0.0001332723,20.6145,0
1.3752,-0.0001117876,20.628,0,1.3752,-2.954147E-05,20.628,0
1.3761,-7.956054E-05,20.6415,0,1.3761,9.466698E-05,20.6415,0
1.377,3.323415E-05,20.655,0,1.377,9.231708E-05,20.655,0
1.3779,3.558404E-05,20.6685,0,1.3779,3.524834E-05,20.6685,0
1.3788,3.121996E-05,20.682,0,1.3788,5.706874E-06,20.682,0
1.3797,1.846342E-05,20.6955,0,1.3797,-1.040665E-05,20.6955,0
1.3806,2.349889E-06,20.709,0,1.3806,-3.189136E-05,20.709,0
1.3815,5.740444E-05,20.7225,0,1.3815,-7.284657E-05,20.7225,0
1.3824,0.0001675135,20.736,0,1.3824,-0.0001003738,20.736,0
1.3833,0.0002171969,20.7495,0,1.3833,-6.210422E-05,20.7495,0
1.3842,0.0001715419,20.763,0,1.3842,-3.121996E-05,20.763,0
1.3851,0.0001171588,20.7765,0,1.3851,-3.692683E-06,20.7765,0
1.386,1.242084E-05,20.79,0,1.386,5.606165E-05,20.79,0
1.3869,-0.0001416648,20.8035,0,1.3869,1.141375E-05,20.8035,0
1.3878,-0.0002027619,20.817,0,1.3878,-1.779202E-05,20.817,0
1.3887,-0.0001658351,20.8305,0,1.3887,-1.712062E-05,20.8305,0
1.3896,-0.0001574426,20.844,0,1.3896,-2.652018E-05,20.844,0
1.3905,-0.0001567712,20.8575,0,1.3905,-2.417029E-05,20.8575,0
1.3914,-0.0001238727,20.871,0,1.3914,-2.584878E-05,20.871,0
1.3923,-9.433127E-05,20.8845,0,1.3923,-9.298848E-05,20.8845,0
1.3932,-1.141375E-05,20.898,0,1.3932,-0.0001456931,20.898,0
1.3941,2.014191E-06,20.9115,0,1.3941,-0.0001352865,20.9115,0
1.395,-3.323415E-05,20.925,0,1.395,-0.0001275654,20.925,0
1.3959,3.927672E-05,20.9385,0,1.3959,-0.0001037308,20.9385,0
1.3968,7.486076E-05,20.952,0,1.3968,-6.378271E-06,20.952,0
1.3977,0.0001218585,20.9655,0,1.3977,6.210422E-05,20.9655,0
1.3986,0.0001795987,20.979,0,1.3986,8.560311E-05,20.979,0
1.3995,8.82887E-05,20.9925,0,1.3995,8.96315E-05,20.9925,0
1.4004,-4.33051E-05,21.006,0,1.4004,2.383459E-05,21.006,0
1.4013,-2.18204E-05,21.0195,0,1.4013,-1.846342E-05,21.0195,0
1.4022,9.030289E-05,21.033,0,1.4022,-1.980621E-05,21.033,0
1.4031,7.821774E-05,21.0465,0,1.4031,-1.074235E-05,21.0465,0
1.404,0.0001027237,21.06,0,1.404,-2.584878E-05,21.06,0
1.4049,7.418937E-05,21.0735,0,1.4049,-6.814679E-05,21.0735,0
1.4058,-3.155566E-05,21.087,0,1.4058,-8.627451E-05,21.087,0
1.4067,6.042573E-06,21.1005,0,1.4067,-3.558404E-05,21.1005,0
1.4076,1.208515E-05,21.114,0,1.4076,5.035477E-06,21.114,0
1.4085,-0.0001520714,21.1275,0,1.4085,1.577783E-05,21.1275,0
1.4094,-0.0002151827,21.141,0,1.4094,-1.644922E-05,21.141,0
1.4103,-0.0002299535,21.1545,0,1.4103,-3.927672E-05,21.1545,0
1.4112,-0.0002044404,21.168,0,1.4112,-4.666209E-05,21.168,0
1.4121,-6.478981E-05,21.1815,0,1.4121,-8.82887E-05,21.1815,0
1.413,-9.735256E-06,21.195,0,1.413,-3.054856E-05,21.195,0
1.4139,-1.779202E-05,21.2085,0,1.4139,-2.853437E-05,21.2085,0
1.4148,-2.349889E-05,21.222,0,1.4148,-7.150377E-05,21.222,0
1.4157,1.678492E-06,21.2355,0,1.4157,2.685588E-06,21.2355,0
1.4166,-2.685588E-05,21.249,0,1.4166,3.558404E-05,21.249,0
1.4175,1.712062E-05,21.2625,0,1.4175,5.471885E-05,21.2625,0
1.4184,2.014191E-05,21.276,0,1.4184,6.64683E-05,21.276,0
1.4193,-3.558404E-05,21.2895,0,1.4193,6.982528E-05,21.2895,0
1.4202,-1.040665E-05,21.303,0,1.4202,0.0001205158,21.303,0
1.4211,3.021286E-05,21.3165,0,1.4211,2.987716E-05,21.3165,0
1.422,2.920577E-05,21.33,0,1.422,-4.263371E-05,21.33,0
1.4229,3.189136E-05,21.3435,0,1.4229,-7.284657E-05,21.3435,0
1.4238,3.659113E-05,21.357,0,1.4238,-3.054856E-05,21.357,0
1.4247,4.129091E-05,21.3705,0,1.4247,-4.766919E-05,21.3705,0
1.4256,5.606165E-05,21.384,0,1.4256,-8.627451E-05,21.384,0
1.4265,4.599069E-05,21.3975,0,1.4265,1.309224E-05,21.3975,0
1.4274,3.390555E-05,21.411,0,1.4274,3.323415E-05,21.411,0
1.4283,6.378271E-06,21.4245,0,1.4283,-8.358892E-05,21.4245,0
1.4292,-5.035477E-05,21.438,0,1.4292,-0.0001104448,21.438,0
1.4301,-5.505455E-05,21.4515,0,1.4301,-8.996719E-05,21.4515,0
1.431,-3.558404E-05,21.465,0,1.431,-6.411841E-05,21.465,0
1.4319,-2.517739E-05,21.4785,0,1.4319,-6.915389E-05,21.4785,0
1.4328,-1.980621E-05,21.492,0,1.4328,-0.0001040665,21.492,0
1.4337,-4.39765E-05,21.5055,0,1.4337,-0.0001604639,21.5055,0
1.4346,-4.33051E-05,21.519,0,1.4346,-0.0001520714,21.519,0
1.4355,-2.1149E-05,21.5325,0,1.4355,-9.567407E-05,21.5325,0
1.4364,1.007095E-06,21.546,0,1.4364,-9.030289E-05,21.546,0
1.4373,-1.678492E-06,21.5595,0,1.4373,2.383459E-05,21.5595,0
1.4382,4.49836E-05,21.573,0,1.4382,0.0002034333,21.573,0
1.4391,7.486076E-05,21.5865,0,1.4391,0.0003937743,21.5865,0
1.44,4.53193E-05,21.6,0,1.44,0.0002876936,21.6,0
1.4409,5.337606E-05,21.6135,0,1.4409,0.0001077592,21.6135,0
1.4418,7.183947E-05,21.627,0,1.4418,4.46479E-05,21.627,0
1.4427,6.57969E-05,21.6405,0,1.4427,2.584878E-05,21.6405,0
1.4436,9.063859E-06,21.654,0,1.4436,3.457694E-05,21.654,0
1.4445,-5.203327E-05,21.6675,0,1.4445,-3.659113E-05,21.6675,0
1.4454,-6.74754E-05,21.681,0,1.4454,-9.433127E-05,21.681,0
1.4463,1.275654E-05,21.6945,0,1.4463,-0.0001641566,21.6945,0
1.4472,0.0001211871,21.708,0,1.4472,-0.0001695277,21.708,0
1.4481,0.0001299153,21.7215,0,1.4481,-0.0001342794,21.7215,0
1.449,7.620356E-05,21.735,0,1.449,-0.0001225299,21.735,0
1.4499,3.189136E-05,21.7485,0,1.4499,-3.256275E-05,21.7485,0
1.4508,-2.1149E-05,21.762,0,1.4508,7.754635E-05,21.762,0
1.4517,-0.0001104448,21.7755,0,1.4517,9.433127E-05,21.7755,0
1.4526,-0.0001285725,21.789,0,1.4526,3.726253E-05,21.789,0
1.4535,-5.505455E-05,21.8025,0,1.4535,5.740444E-05,21.8025,0
1.4544,-2.383459E-05,21.816,0,1.4544,3.021286E-05,21.816,0
1.4553,-0.0001067521,21.8295,0,1.4553,-3.323415E-05,21.8295,0
1.4562,-0.0001846342,21.843,0,1.4562,-3.524834E-05,21.843,0
1.4571,-0.0001701991,21.8565,0,1.4571,-6.042573E-06,21.8565,0
1.458,-9.030289E-05,21.87,0,1.458,-1.477073E-05,21.87,0
1.4589,-4.162661E-05,21.8835,0,1.4589,-2.652018E-05,21.8835,0
1.4598,-2.920577E-05,21.897,0,1.4598,-9.198138E-05,21.897,0
1.4607,5.539025E-05,21.9105,0,1.4607,-0.0001238727,21.9105,0
1.4616,0.0001628138,21.924,0,1.4616,-9.903105E-05,21.924,0
1.4625,0.0002735943,21.9375,0,1.4625,-9.567407E-05,21.9375,0
1.4634,0.0002245823,21.951,0,1.4634,-8.996719E-05,21.951,0
1.4643,9.164568E-05,21.9645,0,1.4643,1.980621E-05,21.9645,0
1.4652,-1.007095E-06,21.978,0,1.4652,3.457694E-05,21.978,0
1.4661,-0.0001839628,21.9915,0,1.4661,-5.069047E-05,21.9915,0
1.467,-0.0002903792,22.005,0,1.467,-3.189136E-05,22.005,0
1.4679,-0.0001755703,22.0185,0,1.4679,3.356985E-06,22.0185,0
1.4688,-0.0001228656,22.032,0,1.4688,-6.848249E-05,22.032,0
1.4697,-0.0001299153,22.0455,0,1.4697,-6.344701E-05,22.0455,0
1.4706,-4.934768E-05,22.059,0,1.4706,-2.987716E-05,22.059,0
1.4715,0.0001084306,22.0725,0,1.4715,-7.049668E-06,22.0725,0
1.4724,2.349889E-06,22.086,0,1.4724,5.035477E-06,22.086,0
1.4733,-8.86244E-05,22.0995,0,1.4733,9.063859E-06,22.0995,0
1.4742,-1.577783E-05,22.113,0,1.4742,3.793393E-05,22.113,0
1.4751,8.96315E-05,22.1265,0,1.4751,6.6804E-05,22.1265,0
1.476,-3.457694E-05,22.14,0,1.476,2.719158E-05,22.14,0
1.4769,-0.0001104448,22.1535,0,1.4769,-3.189136E-05,22.1535,0
1.4778,7.385367E-06,22.167,0,1.4778,1.443504E-05,22.167,0
1.4787,6.915389E-05,22.1805,0,1.4787,3.692683E-06,22.1805,0
1.4796,0.0002259251,22.194,0,1.4796,-6.243992E-05,22.194,0
1.4805,0.0001433432,22.2075,0,1.4805,-2.786297E-05,22.2075,0
1.4814,-2.652018E-05,22.221,0,1.4814,-3.524834E-05,22.221,0
1.4823,-8.291753E-05,22.2345,0,1.4823,-6.64683E-05,22.2345,0
1.4832,-9.768826E-05,22.248,0,1.4832,-8.493171E-05,22.248,0
1.4841,-2.652018E-05,22.2615,0,1.4841,-7.855344E-05,22.2615,0
1.485,4.733349E-05,22.275,0,1.485,-5.539025E-05,22.275,0
1.4859,2.1149E-05,22.2885,0,1.4859,-6.915389E-05,22.2885,0
1.4868,-1.644922E-05,22.302,0,1.4868,-5.941863E-05,22.302,0
1.4877,-2.316319E-05,22.3155,0,1.4877,-1.141375E-05,22.3155,0
1.4886,-3.189136E-05,22.329,0,1.4886,3.994812E-05,22.329,0
1.4895,-3.256275E-05,22.3425,0,1.4895,0.0001215228,22.3425,0
1.4904,-1.779202E-05,22.356,0,1.4904,2.685588E-06,22.356,0
1.4913,-2.349889E-06,22.3695,0,1.4913,-5.438316E-05,22.3695,0
1.4922,4.196231E-05,22.383,0,1.4922,-9.063859E-05,22.383,0
1.4931,3.961242E-05,22.3965,0,1.4931,-0.0001208515,22.3965,0
1.494,-5.706874E-06,22.41,0,1.494,-7.150377E-05,22.41,0
1.4949,-5.706874E-06,22.4235,0,1.4949,-3.021286E-05,22.4235,0
1.4958,2.21561E-05,22.437,0,1.4958,-2.349889E-06,22.437,0
1.4967,4.263371E-05,22.4505,0,1.4967,-7.385367E-06,22.4505,0
1.4976,0.0001926909,22.464,0,1.4976,5.572595E-05,22.464,0
1.4985,0.0001782559,22.4775,0,1.4985,4.263371E-05,22.4775,0
1.4994,0.0001097734,22.491,0,1.4994,2.652018E-05,22.491,0
1.5003,4.934768E-05,22.5045,0,1.5003,3.356985E-07,22.5045,0
1.5012,-3.524834E-05,22.518,0,1.5012,1.879912E-05,22.518,0
1.5021,-0.0001765774,22.5315,0,1.5021,6.478981E-05,22.5315,0
1.503,-0.0002239109,22.545,0,1.503,2.551309E-05,22.545,0
1.5039,-0.000140322,22.5585,0,1.5039,-1.577783E-05,22.5585,0
1.5048,-7.754635E-05,22.572,0,1.5048,4.229801E-05,22.572,0
1.5057,-1.074235E-05,22.5855,0,1.5057,4.263371E-05,22.5855,0
1.5066,-3.021286E-06,22.599,0,1.5066,-3.860533E-05,22.599,0
1.5075,-2.719158E-05,22.6125,0,1.5075,-2.517739E-05,22.6125,0
1.5084,5.035477E-06,22.626,0,1.5084,-2.987716E-05,22.626,0
1.5093,0.0001393149,22.6395,0,1.5093,-7.284657E-05,22.6395,0
1.5102,0.000109102,22.653,0,1.5102,-4.800488E-05,22.653,0
1.5111,9.063859E-06,22.6665,0,1.5111,4.36408E-06,22.6665,0
1.512,-2.21561E-05,22.68,0,1.512,1.141375E-05,22.68,0
1.5129,-6.78111E-05,22.6935,0,1.5129,-2.853437E-05,22.6935,0
1.5138,-0.0001319295,22.707,0,1.5138,-7.150377E-05,22.707,0
1.5147,-0.0001950408,22.7205,0,1.5147,-3.894102E-05,22.7205,0
1.5156,-7.083238E-05,22.734,0,1.5156,1.544213E-05,22.734,0
1.5165,-3.356985E-06,22.7475,0,1.5165,-2.450599E-05,22.7475,0
1.5174,8.392462E-06,22.761,0,1.5174,-5.035477E-05,22.761,0
1.5183,2.719158E-05,22.7745,0,1.5183,-8.493171E-05,22.7745,0
1.5192,6.948959E-05,22.788,0,1.5192,-0.0001070878,22.788,0
1.5201,0.0001470359,22.8015,0,1.5201,-0.0001218585,22.8015,0
1.521,5.337606E-05,22.815,0,1.521,-4.162661E-05,22.815,0
1.5219,-3.659113E-05,22.8285,0,1.5219,-6.64683E-05,22.8285,0
1.5228,-2.047761E-05,22.842,0,1.5228,-0.0001376364,22.842,0
1.5237,-4.095522E-05,22.8555,0,1.5237,-7.083238E-05,22.8555,0
1.5246,-0.0001842985,22.869,0,1.5246,-1.107805E-05,22.869,0
1.5255,-0.0001047379,22.8825,0,1.5255,-2.383459E-05,22.8825,0
1.5264,9.365987E-05,22.896,0,1.5264,5.169757E-05,22.896,0
1.5273,0.0001285725,22.9095,0,1.5273,9.634547E-05,22.9095,0
1.5282,5.606165E-05,22.923,0,1.5282,0.0001356222,22.923,0
1.5291,3.726253E-05,22.9365,0,1.5291,2.920577E-05,22.9365,0
1.53,7.486076E-05,22.95,0,1.53,-5.673304E-05,22.95,0
1.5309,3.659113E-05,22.9635,0,1.5309,-0.0001104448,22.9635,0
1.5318,-2.18204E-05,22.977,0,1.5318,-7.418937E-05,22.977,0
1.5327,-7.049668E-06,22.9905,0,1.5327,-5.236896E-05,22.9905,0
1.5336,1.174945E-05,23.004,0,1.5336,-3.491264E-05,23.004,0
1.5345,4.129091E-05,23.0175,0,1.5345,0.0001339437,23.0175,0
1.5354,3.591974E-05,23.031,0,1.5354,7.418937E-05,23.031,0
1.5363,4.36408E-06,23.0445,0,1.5363,-3.390555E-05,23.0445,0
1.5372,6.713969E-06,23.058,0,1.5372,1.007095E-06,23.058,0
1.5381,-4.867628E-05,23.0715,0,1.5381,8.258183E-05,23.0715,0
1.539,-0.0001138018,23.085,0,1.539,9.970245E-05,23.085,0
1.5399,-1.007095E-06,23.0985,0,1.5399,7.721065E-05,23.0985,0
1.5408,-4.867628E-05,23.112,0,1.5408,-4.766919E-05,23.112,0
1.5417,-0.000148043,23.1255,0,1.5417,-7.754635E-05,23.1255,0
1.5426,-0.0001279011,23.139,0,1.5426,-9.903105E-05,23.139,0
1.5435,-3.860533E-05,23.1525,0,1.5435,-9.164568E-05,23.1525,0
1.5444,-8.291753E-05,23.166,0,1.5444,-4.934768E-05,23.166,0
1.5453,-6.51255E-05,23.1795,0,1.5453,5.438316E-05,23.1795,0
1.5462,-6.042573E-05,23.193,0,1.5462,0.0001060807,23.193,0
1.5471,-1.678492E-06,23.2065,0,1.5471,2.21561E-05,23.2065,0
1.548,3.457694E-05,23.22,0,1.548,-7.049668E-06,23.22,0
1.5489,7.083238E-05,23.2335,0,1.5489,-2.417029E-05,23.2335,0
1.5498,0.0001151446,23.247,0,1.5498,-8.526741E-05,23.247,0
1.5507,-2.014191E-06,23.2605,0,1.5507,-1.980621E-05,23.2605,0
1.5516,-4.43122E-05,23.274,0,1.5516,9.433127E-05,23.274,0
1.5525,-8.627451E-05,23.2875,0,1.5525,7.754635E-05,23.2875,0
1.5534,-0.0001077592,23.301,0,1.5534,-6.713969E-06,23.301,0
1.5543,-7.251087E-05,23.3145,0,1.5543,-6.277562E-05,23.3145,0
1.5552,-4.46479E-05,23.328,0,1.5552,-6.54612E-05,23.328,0
1.5561,2.786297E-05,23.3415,0,1.5561,-6.54612E-05,23.3415,0
1.557,4.901198E-05,23.355,0,1.557,-0.0001030594,23.355,0
1.5579,6.378271E-06,23.3685,0,1.5579,-9.332418E-05,23.3685,0
1.5588,-7.016098E-05,23.382,0,1.5588,-2.014191E-06,23.382,0
1.5597,2.887007E-05,23.3955,0,1.5597,2.349889E-06,23.3955,0
1.5606,0.0001188373,23.409,0,1.5606,-5.404745E-05,23.409,0
1.5615,0.0001436789,23.4225,0,1.5615,3.356985E-07,23.4225,0
1.5624,0.0001332723,23.436,0,1.5624,-3.256275E-05,23.436,0
1.5633,0.0001232013,23.4495,0,1.5633,-0.0001044022,23.4495,0
1.5642,0.000119173,23.463,0,1.5642,-8.96315E-05,23.463,0
1.5651,3.323415E-05,23.4765,0,1.5651,-3.054856E-05,23.4765,0
1.566,-2.21561E-05,23.49,0,1.566,-4.39765E-05,23.49,0
1.5669,-7.653925E-05,23.5035,0,1.5669,-2.920577E-05,23.5035,0
1.5678,-9.835965E-05,23.517,0,1.5678,-5.270466E-05,23.517,0
1.5687,-0.0001070878,23.5305,0,1.5687,-1.242084E-05,23.5305,0
1.5696,-2.786297E-05,23.544,0,1.5696,-8.728161E-06,23.544,0
1.5705,6.277562E-05,23.5575,0,1.5705,-0.0001141375,23.5575,0
1.5714,0.0001567712,23.571,0,1.5714,-0.0001279011,23.571,0
1.5723,0.0001883268,23.5845,0,1.5723,-5.270466E-05,23.5845,0
1.5732,8.426032E-05,23.598,0,1.5732,-4.33051E-05,23.598,0
1.5741,-0.0001812772,23.6115,0,1.5741,-6.881819E-05,23.6115,0
1.575,-0.000351812,23.625,0,1.575,7.049668E-06,23.625,0
1.5759,-0.0002175326,23.6385,0,1.5759,3.390555E-05,23.6385,0
1.5768,-0.0001668421,23.652,0,1.5768,-6.042573E-06,23.652,0
1.5777,-0.0001339437,23.6655,0,1.5777,8.392462E-06,23.6655,0
1.5786,-5.236896E-05,23.679,0,1.5786,2.517739E-05,23.679,0
1.5795,7.452507E-05,23.6925,0,1.5795,5.706874E-05,23.6925,0
1.5804,5.941863E-05,23.706,0,1.5804,2.316319E-05,23.706,0
1.5813,4.632639E-05,23.7195,0,1.5813,2.1149E-05,23.7195,0
1.5822,1.040665E-05,23.733,0,1.5822,4.39765E-05,23.733,0
1.5831,3.625543E-05,23.7465,0,1.5831,5.740444E-05,23.7465,0
1.584,3.256275E-05,23.76,0,1.584,2.1149E-05,23.76,0
1.5849,3.793393E-05,23.7735,0,1.5849,-1.342794E-06,23.7735,0
1.5858,1.376364E-05,23.787,0,1.5858,6.176852E-05,23.787,0
1.5867,3.692683E-06,23.8005,0,1.5867,2.28275E-05,23.8005,0
1.5876,-9.097429E-05,23.814,0,1.5876,-0.000172549,23.814,0
1.5885,-0.0001037308,23.8275,0,1.5885,-0.0002554666,23.8275,0
1.5894,-6.54612E-05,23.841,0,1.5894,-0.0003158923,23.841,0
1.5903,-2.652018E-05,23.8545,0,1.5903,-0.0003185779,23.8545,0
1.5912,9.634547E-05,23.868,0,1.5912,-0.0001393149,23.868,0
1.5921,5.471885E-05,23.8815,0,1.5921,0.0001117876,23.8815,0
1.593,1.174945E-05,23.895,0,1.593,0.0002735943,23.895,0
1.5939,2.920577E-05,23.9085,0,1.5939,0.000252781,23.9085,0
1.5948,1.040665E-05,23.922,0,1.5948,0.000203769,23.922,0
1.5957,-3.524834E-05,23.9355,0,1.5957,9.634547E-05,23.9355,0
1.5966,8.157473E-05,23.949,0,1.5966,3.021286E-05,23.949,0
1.5975,0.0002272679,23.9625,0,1.5975,3.323415E-05,23.9625,0
1.5984,9.298848E-05,23.976,0,1.5984,5.807584E-05,23.976,0
1.5993,-7.519646E-05,23.9895,0,1.5993,4.263371E-05,23.9895,0
1.6002,-0.0001312581,24.003,0,1.6002,-0.0001312581,24.003,0
1.6011,-8.661021E-05,24.0165,0,1.6011,-0.0002171969,24.0165,0
1.602,-0.0001258869,24.03,0,1.602,-0.0001467002,24.03,0
1.6029,8.056764E-05,24.0435,0,1.6029,-6.277562E-05,24.0435,0
1.6038,0.0001671778,24.057,0,1.6038,6.378271E-06,24.057,0
1.6047,6.344701E-05,24.0705,0,1.6047,0.0001248798,24.0705,0
1.6056,-0.0001054093,24.084,0,1.6056,0.0002161898,24.084,0
1.6065,-0.0001349508,24.0975,0,1.6065,0.0001356222,24.0975,0
1.6074,1.342794E-05,24.111,0,1.6074,4.666209E-05,24.111,0
1.6083,-5.337606E-05,24.1245,0,1.6083,-5.706874E-06,24.1245,0
1.6092,-0.0001050736,24.138,0,1.6092,-2.450599E-05,24.138,0
1.6101,-4.33051E-05,24.1515,0,1.6101,7.721065E-06,24.1515,0
1.611,-1.712062E-05,24.165,0,1.611,-3.121996E-05,24.165,0
1.6119,1.846342E-05,24.1785,0,1.6119,-5.505455E-05,24.1785,0
1.6128,6.71397E-05,24.192,0,1.6128,-5.001907E-05,24.192,0
1.6137,4.196231E-05,24.2055,0,1.6137,-0.0001262226,24.2055,0
1.6146,6.71397E-05,24.219,0,1.6146,-0.0001621424,24.219,0
1.6155,9.567407E-05,24.2325,0,1.6155,-9.198138E-05,24.2325,0
1.6164,0.0001628138,24.246,0,1.6164,-7.620356E-05,24.246,0
1.6173,4.699779E-06,24.2595,0,1.6173,-9.063859E-05,24.2595,0
1.6182,-1.678492E-06,24.273,0,1.6182,-3.457694E-05,24.273,0
1.6191,-0.0001070878,24.2865,0,1.6191,-2.047761E-05,24.2865,0
1.62,-0.0001117876,24.3,0,1.62,-2.1149E-05,24.3,0
1.6209,-0.0001722133,24.3135,0,1.6209,1.678492E-05,24.3135,0
1.6218,-0.0001453574,24.327,0,1.6218,-4.43122E-05,24.327,0
1.6227,-2.450599E-05,24.3405,0,1.6227,-6.277562E-05,24.3405,0
1.6236,-5.706874E-06,24.354,0,1.6236,-4.934768E-05,24.354,0
1.6245,-6.009003E-05,24.3675,0,1.6245,-0.0001242084,24.3675,0
1.6254,-6.6804E-05,24.381,0,1.6254,-0.0001359579,24.381,0
1.6263,6.713969E-06,24.3945,0,1.6263,-4.53193E-05,24.3945,0
1.6272,-3.591974E-05,24.408,0,1.6272,-8.392462E-06,24.408,0
1.6281,-8.056763E-06,24.4215,0,1.6281,-1.443504E-05,24.4215,0
1.629,5.203327E-05,24.435,0,1.629,7.217517E-05,24.435,0
1.6299,3.021286E-05,24.4485,0,1.6299,9.063859E-05,24.4485,0
1.6308,-2.719158E-05,24.462,0,1.6308,-1.644922E-05,24.462,0
1.6317,-2.28275E-05,24.4755,0,1.6317,-5.807584E-05,24.4755,0
1.6326,-1.644922E-05,24.489,0,1.6326,-5.975433E-05,24.489,0
1.6335,2.584878E-05,24.5025,0,1.6335,-6.277562E-05,24.5025,0
1.6344,8.023193E-05,24.516,0,1.6344,-3.256275E-05,24.516,0
1.6353,7.351797E-05,24.5295,0,1.6353,-7.687495E-05,24.5295,0
1.6362,8.69459E-05,24.543,0,1.6362,-1.174945E-05,24.543,0
1.6371,0.0001285725,24.5565,0,1.6371,8.560311E-05,24.5565,0
1.638,0.0001349508,24.57,0,1.638,5.069047E-05,24.57,0
1.6389,6.6804E-05,24.5835,0,1.6389,-2.853437E-05,24.5835,0
1.6398,-8.358892E-05,24.597,0,1.6398,1.040665E-05,24.597,0
1.6407,-3.054856E-05,24.6105,0,1.6407,1.745632E-05,24.6105,0
1.6416,-0.0001248798,24.624,0,1.6416,-6.64683E-05,24.624,0
1.6425,-0.0001853056,24.6375,0,1.6425,-0.0001201801,24.6375,0
1.6434,-6.378271E-05,24.651,0,1.6434,-9.735256E-05,24.651,0
1.6443,2.920577E-05,24.6645,0,1.6443,-0.0001836271,24.6645,0
1.6452,0.0002521096,24.678,0,1.6452,-0.0002145113,24.678,0
1.6461,0.0002568093,24.6915,0,1.6461,-0.0001144732,24.6915,0
1.647,7.452507E-05,24.705,0,1.647,3.692683E-06,24.705,0
1.6479,-7.519646E-05,24.7185,0,1.6479,0.0001228656,24.7185,0
1.6488,-6.948959E-05,24.732,0,1.6488,0.0001883268,24.732,0
1.6497,-0.0001225299,24.7455,0,1.6497,0.0003434196,24.7455,0
1.6506,-0.0001534142,24.759,0,1.6506,0.000341741,24.759,0
1.6515,-3.457694E-05,24.7725,0,1.6515,0.0001215228,24.7725,0
1.6524,3.189136E-05,24.786,0,1.6524,1.040665E-05,24.786,0
1.6533,-0.0001500572,24.7995,0,1.6533,1.678492E-06,24.7995,0
1.6542,-0.0002608377,24.813,0,1.6542,1.040665E-05,24.813,0
1.6551,-0.0001198444,24.8265,0,1.6551,-3.121996E-05,24.8265,0
1.656,-2.24918E-05,24.84,0,1.656,-1.477073E-05,24.84,0
1.6569,-6.915389E-05,24.8535,0,1.6569,-2.652018E-05,24.8535,0
1.6578,-0.0001151446,24.867,0,1.6578,-7.318227E-05,24.867,0
1.6587,-4.028382E-06,24.8805,0,1.6587,-6.076142E-05,24.8805,0
1.6596,-4.968337E-05,24.894,0,1.6596,-0.0001087663,24.894,0
1.6605,3.591974E-05,24.9075,0,1.6605,-0.0001594568,24.9075,0
1.6614,2.28275E-05,24.921,0,1.6614,-0.0001789273,24.921,0
1.6623,8.69459E-05,24.9345,0,1.6623,-0.0001765774,24.9345,0
1.6632,0.0002064546,24.948,0,1.6632,-0.0001460288,24.948,0
1.6641,0.0002769512,24.9615,0,1.6641,-7.452507E-05,24.9615,0
1.665,0.0002628519,24.975,0,1.665,-1.141375E-05,24.975,0
1.6659,0.0001708705,24.9885,0,1.6659,2.349889E-06,24.9885,0
1.6668,-1.678492E-06,25.002,0,1.6668,-2.584878E-05,25.002,0
1.6677,-0.0001540856,25.0155,0,1.6677,4.263371E-05,25.0155,0
1.6686,-0.0001376364,25.029,0,1.6686,7.956054E-05,25.029,0
1.6695,-0.0001185016,25.0425,0,1.6695,0.0001876554,25.0425,0
1.6704,-0.0002547952,25.056,0,1.6704,9.164568E-05,25.056,0
1.6713,-0.0001087663,25.0695,0,1.6713,-8.560311E-05,25.0695,0
1.6722,-1.242084E-05,25.083,0,1.6722,-3.692683E-05,25.083,0
1.6731,-7.821774E-05,25.0965,0,1.6731,2.383459E-05,25.0965,0
1.674,1.779202E-05,25.11,0,1.674,-1.309224E-05,25.11,0
1.6749,0.0001168231,25.1235,0,1.6749,-1.242084E-05,25.1235,0
1.6758,0.0001164874,25.137,0,1.6758,-1.040665E-05,25.137,0
1.6767,0.0001148089,25.1505,0,1.6767,-4.46479E-05,25.1505,0
1.6776,-2.853437E-05,25.164,0,1.6776,-0.0001453574,25.164,0
1.6785,-2.652018E-05,25.1775,0,1.6785,-0.0002061189,25.1775,0
1.6794,-7.821774E-05,25.191,0,1.6794,-0.0002276036,25.191,0
1.6803,-0.0002124971,25.2045,0,1.6803,-0.0001416648,25.2045,0
1.6812,-8.459602E-05,25.218,0,1.6812,-5.941863E-05,25.218,0
1.6821,6.143282E-05,25.2315,0,1.6821,4.733349E-05,25.2315,0
1.683,2.18204E-05,25.245,0,1.683,0.0002057832,25.245,0
1.6839,8.92958E-05,25.2585,0,1.6839,0.0002467384,25.2585,0
1.6848,5.169757E-05,25.272,0,1.6848,9.634547E-05,25.272,0
1.6857,-3.256275E-05,25.2855,0,1.6857,9.365987E-05,25.2855,0
1.6866,-3.524834E-05,25.299,0,1.6866,9.298848E-05,25.299,0
1.6875,-2.1149E-05,25.3125,0,1.6875,4.39765E-05,25.3125,0
1.6884,-7.989624E-05,25.326,0,1.6884,-2.28275E-05,25.326,0
1.6893,-1.107805E-05,25.3395,0,1.6893,-7.284657E-05,25.3395,0
1.6902,5.606165E-05,25.353,0,1.6902,-6.076142E-05,25.353,0
1.6911,1.007095E-06,25.3665,0,1.6911,-2.014191E-05,25.3665,0
1.692,8.560311E-05,25.38,0,1.692,-6.478981E-05,25.38,0
1.6929,0.0002239109,25.3935,0,1.6929,-8.761731E-05,25.3935,0
1.6938,0.0001070878,25.407,0,1.6938,-9.701686E-05,25.407,0
1.6947,8.224613E-05,25.4205,0,1.6947,-8.89601E-05,25.4205,0
1.6956,6.51255E-05,25.434,0,1.6956,-0.0001094377,25.434,0
1.6965,-1.510643E-05,25.4475,0,1.6965,-0.0001003738,25.4475,0
1.6974,-0.0002044404,25.461,0,1.6974,-0.0001433432,25.461,0
1.6983,-0.0003044785,25.4745,0,1.6983,-0.0001138018,25.4745,0
1.6992,-0.0001906767,25.488,0,1.6992,-2.987716E-05,25.488,0
1.7001,-1.779202E-05,25.5015,0,1.7001,-0.0001205158,25.5015,0
1.701,0.0001436789,25.515,0,1.701,-0.0001601282,25.515,0
1.7019,0.0001151446,25.5285,0,1.7019,-9.030289E-05,25.5285,0
1.7028,5.874724E-05,25.542,0,1.7028,8.728161E-06,25.542,0
1.7037,-1.309224E-05,25.5555,0,1.7037,3.726253E-05,25.5555,0
1.7046,-0.0001940337,25.569,0,1.7046,0.000102388,25.569,0
1.7055,-0.000285008,25.5825,0,1.7055,0.0001675135,25.5825,0
1.7064,-0.0001044022,25.596,0,1.7064,0.0001232013,25.596,0
1.7073,-1.409934E-05,25.6095,0,1.7073,0.0001339437,25.6095,0
1.7082,-4.599069E-05,25.623,0,1.7082,0.0001383078,25.623,0
1.7091,-2.484169E-05,25.6365,0,1.7091,0.0001087663,25.6365,0
1.71,-5.706874E-06,25.65,0,1.71,6.982528E-05,25.65,0
1.7109,3.021286E-05,25.6635,0,1.7109,6.009003E-05,25.6635,0
1.7118,6.61326E-05,25.677,0,1.7118,3.692683E-06,25.677,0
1.7127,2.920577E-05,25.6905,0,1.7127,-3.121996E-05,25.6905,0
1.7136,2.383459E-05,25.704,0,1.7136,-5.270466E-05,25.704,0
1.7145,2.18204E-05,25.7175,0,1.7145,-0.0001054093,25.7175,0
1.7154,4.699779E-05,25.731,0,1.7154,-0.0001399863,25.731,0
1.7163,5.035477E-05,25.7445,0,1.7163,-0.000239353,25.7445,0
1.7172,9.097429E-05,25.758,0,1.7172,-0.0002759442,25.758,0
1.7181,7.922484E-05,25.7715,0,1.7181,-0.0001963836,25.7715,0
1.719,1.846342E-05,25.785,0,1.719,-0.0001752346,25.785,0
1.7199,6.411841E-05,25.7985,0,1.7199,-0.0001201801,25.7985,0
1.7208,7.486076E-05,25.812,0,1.7208,9.030289E-05,25.812,0
1.7217,6.009003E-05,25.8255,0,1.7217,0.0002594949,25.8255,0
1.7226,9.063859E-06,25.839,0,1.7226,0.0002641947,25.839,0
1.7235,1.678492E-06,25.8525,0,1.7235,0.0002507668,25.8525,0
1.7244,-6.54612E-05,25.866,0,1.7244,7.183947E-05,25.866,0
1.7253,-9.365987E-05,25.8795,0,1.7253,-4.33051E-05,25.8795,0
1.7262,-1.846342E-05,25.893,0,1.7262,-3.692683E-06,25.893,0
1.7271,5.203327E-05,25.9065,0,1.7271,5.001907E-05,25.9065,0
1.728,-2.517739E-05,25.92,0,1.728,-4.129091E-05,25.92,0
1.7289,-5.673304E-05,25.9335,0,1.7289,-6.814679E-05,25.9335,0
1.7298,1.779202E-05,25.947,0,1.7298,-9.265278E-05,25.947,0
1.7307,0.0001044022,25.9605,0,1.7307,-6.814679E-05,25.9605,0
1.7316,4.36408E-05,25.974,0,1.7316,-3.558404E-05,25.974,0
1.7325,-1.745632E-05,25.9875,0,1.7325,-6.176852E-05,25.9875,0
1.7334,3.021286E-06,26.001,0,1.7334,-0.0001467002,26.001,0
1.7343,-3.021286E-06,26.0145,0,1.7343,-0.000105745,26.0145,0
1.7352,-0.0001245441,26.028,0,1.7352,-9.903105E-05,26.028,0
1.7361,-0.0001473716,26.0415,0,1.7361,-0.0002235752,26.0415,0
1.737,-5.740444E-05,26.055,0,1.737,-8.493171E-05,26.055,0
1.7379,-6.076142E-05,26.0685,0,1.7379,6.143282E-05,26.0685,0
1.7388,-3.390555E-05,26.082,0,1.7388,0.0001305867,26.082,0
1.7397,3.558404E-05,26.0955,0,1.7397,0.0001299153,26.0955,0
1.7406,-3.457694E-05,26.109,0,1.7406,0.0001030594,26.109,0
1.7415,-3.021286E-06,26.1225,0,1.7415,6.378271E-05,26.1225,0
1.7424,-2.349889E-06,26.136,0,1.7424,-1.678492E-06,26.136,0
1.7433,-1.678492E-06,26.1495,0,1.7433,-0.0001000381,26.1495,0
1.7442,-4.733349E-05,26.163,0,1.7442,-0.0001359579,26.163,0
1.7451,-1.242084E-05,26.1765,0,1.7451,-0.0001366293,26.1765,0
1.746,0.0001550927,26.19,0,1.746,-0.0001272297,26.19,0
1.7469,0.0002474098,26.2035,0,1.7469,-0.0001010452,26.2035,0
1.7478,0.0001554284,26.217,0,1.7478,1.980621E-05,26.217,0
1.7487,6.210422E-05,26.2305,0,1.7487,0.0001070878,26.2305,0
1.7496,-0.0002205539,26.244,0,1.7496,4.599069E-05,26.244,0
1.7505,-0.0003810178,26.2575,0,1.7505,5.203327E-05,26.2575,0
1.7514,-0.0001775845,26.271,0,1.7514,7.989624E-05,26.271,0
1.7523,-0.0001185016,26.2845,0,1.7523,3.323415E-05,26.2845,0
1.7532,-4.800488E-05,26.298,0,1.7532,-9.567407E-05,26.298,0
1.7541,5.270466E-05,26.3115,0,1.7541,-0.0001174945,26.3115,0
1.755,0.0001151446,26.325,0,1.755,-0.0002286107,26.325,0
1.7559,0.0001876554,26.3385,0,1.7559,-0.0003320058,26.3385,0
1.7568,0.000203769,26.352,0,1.7568,-0.0003007858,26.352,0
1.7577,8.023193E-05,26.3655,0,1.7577,-0.0001111162,26.3655,0
1.7586,-0.0001393149,26.379,0,1.7586,-2.517739E-05,26.379,0
1.7595,-0.0002474098,26.3925,0,1.7595,2.719158E-05,26.3925,0
1.7604,-0.0001983978,26.406,0,1.7604,0.000379675,26.406,0
1.7613,-0.0001111162,26.4195,0,1.7613,0.0005112688,26.4195,0
1.7622,-1.779202E-05,26.433,0,1.7622,0.0002934005,26.433,0
1.7631,4.095522E-05,26.4465,0,1.7631,0.0001601282,26.4465,0
1.764,5.471885E-05,26.46,0,1.764,0.0001054093,26.46,0
1.7649,8.392462E-05,26.4735,0,1.7649,5.606165E-05,26.4735,0
1.7658,5.673304E-05,26.487,0,1.7658,-2.652018E-05,26.487,0
1.7667,6.78111E-05,26.5005,0,1.7667,-0.0001258869,26.5005,0
1.7676,9.365987E-05,26.514,0,1.7676,-0.0001554284,26.514,0
1.7685,0.000105745,26.5275,0,1.7685,-0.0001822843,26.5275,0
1.7694,0.0001114519,26.541,0,1.7694,-0.000193698,26.541,0
1.7703,-9.600977E-05,26.5545,0,1.7703,-0.0001728847,26.5545,0
1.7712,-0.0001258869,26.568,0,1.7712,-3.189136E-05,26.568,0
1.7721,-0.0001164874,26.5815,0,1.7721,0.0001940337,26.5815,0
1.773,-0.0001460288,26.595,0,1.773,0.0001883268,26.595,0
1.7739,-0.0001500572,26.6085,0,1.7739,4.129091E-05,26.6085,0
1.7748,-8.157473E-05,26.622,0,1.7748,6.6804E-05,26.622,0
1.7757,-3.155566E-05,26.6355,0,1.7757,2.887007E-05,26.6355,0
1.7766,1.745632E-05,26.649,0,1.7766,-7.888914E-05,26.649,0
1.7775,2.1149E-05,26.6625,0,1.7775,-2.719158E-05,26.6625,0
1.7784,6.54612E-05,26.676,0,1.7784,-1.678492E-06,26.676,0
1.7793,0.0001017166,26.6895,0,1.7793,-6.478981E-05,26.6895,0
1.7802,9.097429E-05,26.703,0,1.7802,-7.653925E-05,26.703,0
1.7811,1.443504E-05,26.7165,0,1.7811,-9.533837E-05,26.7165,0
1.782,-3.021286E-06,26.73,0,1.782,-0.0001594568,26.73,0
1.7829,5.337606E-05,26.7435,0,1.7829,-0.0001842985,26.7435,0
1.7838,8.157473E-05,26.757,0,1.7838,-0.0002138399,26.757,0
1.7847,6.378271E-06,26.7705,0,1.7847,-0.0001104448,26.7705,0
1.7856,7.653925E-05,26.784,0,1.7856,-3.625543E-05,26.784,0
1.7865,0.0001957122,26.7975,0,1.7865,-4.061952E-05,26.7975,0
1.7874,8.224613E-05,26.811,0,1.7874,-5.673304E-05,26.811,0
1.7883,-3.826963E-05,26.8245,0,1.7883,-2.484169E-05,26.8245,0
1.7892,-1.074235E-05,26.838,0,1.7892,3.356985E-05,26.838,0
1.7901,-0.0001144732,26.8515,0,1.7901,3.625543E-05,26.8515,0
1.791,-0.0002487526,26.865,0,1.791,9.198138E-05,26.865,0
1.7919,-0.0001806058,26.8785,0,1.7919,0.0001255512,26.8785,0
1.7928,-0.0001339437,26.892,0,1.7928,-1.275654E-05,26.892,0
1.7937,1.712062E-05,26.9055,0,1.7937,-3.826963E-05,26.9055,0
1.7946,0.0001258869,26.919,0,1.7946,-4.53193E-05,26.919,0
1.7955,5.740444E-05,26.9325,0,1.7955,-5.941863E-05,26.9325,0
1.7964,1.510643E-05,26.946,0,1.7964,-9.970245E-05,26.946,0
1.7973,4.666209E-05,26.9595,0,1.7973,-0.0001960479,26.9595,0
1.7982,6.042573E-06,26.973,0,1.7982,-0.0003350271,26.973,0
1.7991,-0.0001017166,26.9865,0,1.7991,-0.0003393912,26.9865,0
1.8,7.385367E-06,27,0,1.8,-0.0001420005,27,0
1.8009,9.399558E-06,27.0135,0,1.8009,0.0001386435,27.0135,0
1.8018,-0.0001362936,27.027,0,1.8018,0.0002299535,27.027,0
1.8027,-7.251087E-05,27.0405,0,1.8027,0.000218204,27.0405,0
1.8036,-3.424125E-05,27.054,0,1.8036,0.0002507668,27.054,0
1.8045,-0.0001185016,27.0675,0,1.8045,0.0002111543,27.0675,0
1.8054,-0.0001033951,27.081,0,1.8054,0.0001654994,27.081,0
1.8063,1.477073E-05,27.0945,0,1.8063,5.539025E-05,27.0945,0
1.8072,7.754635E-05,27.108,0,1.8072,3.356985E-07,27.108,0
1.8081,-2.047761E-05,27.1215,0,1.8081,2.618448E-05,27.1215,0
1.809,2.719158E-05,27.135,0,1.809,1.779202E-05,27.135,0
1.8099,4.666209E-05,27.1485,0,1.8099,1.309224E-05,27.1485,0
1.8108,4.934768E-05,27.162,0,1.8108,-4.129091E-05,27.162,0
1.8117,6.378271E-06,27.1755,0,1.8117,-9.869535E-05,27.1755,0
1.8126,-2.450599E-05,27.189,0,1.8126,-0.0001067521,27.189,0
1.8135,3.726253E-05,27.2025,0,1.8135,-0.0002615091,27.2025,0
1.8144,0.000112459,27.216,0,1.8144,-0.0003215991,27.216,0
1.8153,0.0001470359,27.2295,0,1.8153,-0.0001785916,27.2295,0
1.8162,0.0001654994,27.243,0,1.8162,-1.174945E-05,27.243,0
1.8171,0.0001131304,27.2565,0,1.8171,6.51255E-05,27.2565,0
1.818,-0.0001201801,27.27,0,1.818,0.0001926909,27.27,0
