X[s],"Trigno IM sensor 3: EMG 3 (IM)",X[s],"Trigno IM sensor 3: Mag 3.Z (IM)",X[s],"Trigno IM sensor 4: EMG 4 (IM)",X[s],"Trigno IM sensor 4: Mag 4.Z (IM)"
0.000000,9.735256E-06,0.000000,117,0.000000,-1.174945E-05,0.000000,-1
0.0009,2.349889E-05,0.0135,119,0.0009,3.356985E-07,0.0135,1
0.0018,-1.107805E-05,0.027,119,0.0018,1.309224E-05,0.027,2
0.0027,6.378271E-06,0.0405,119,0.0027,-6.713969E-07,0.0405,0
0.0036,1.577783E-05,0.054,119,0.0036,-1.007095E-05,0.054,0
0.0045,-3.121996E-05,0.0675,120,0.0045,-1.544213E-05,0.0675,0
0.0054,-1.779202E-05,0.081,118,0.0054,-1.107805E-05,0.081,0
0.0063,3.021286E-06,0.0945,119,0.0063,-1.712062E-05,0.0945,0
0.0072,-2.014191E-06,0.108,118,0.0072,-4.196231E-05,0.108,0
0.0081,-2.652018E-05,0.1215,118,0.0081,-2.786297E-05,0.1215,2
0.009000001,-1.443504E-05,0.135,119,0.009000001,-9.735256E-06,0.135,0
0.0099,1.577783E-05,0.1485,119,0.0099,-2.28275E-05,0.1485,1
0.0108,-1.376364E-05,0.162,118,0.0108,-3.491264E-05,0.162,1
0.0117,1.846342E-05,0.1755,119,0.0117,-1.074235E-05,0.1755,0
0.0126,2.819867E-05,0.189,119,0.0126,-1.309224E-05,0.189,0
0.0135,6.378271E-06,0.2025,118,0.0135,-2.316319E-05,0.2025,0
0.0144,1.678492E-06,0.216,118,0.0144,-2.349889E-05,0.216,-2
0.0153,-5.706874E-06,0.2295,117,0.0153,-1.779202E-05,0.2295,-1
0.0162,-7.721065E-06,0.243,117,0.0162,-1.208515E-05,0.243,0
0.0171,-4.229801E-05,0.2565,119,0.0171,-3.256275E-05,0.2565,-2
0.018,-5.169757E-05,0.27,117,0.018,-2.584878E-05,0.27,0
0.0189,-1.409934E-05,0.2835,119,0.0189,-2.853437E-05,0.2835,0
0.0198,-4.196231E-05,0.297,118,0.0198,-3.088426E-05,0.297,0
0.0207,-1.913481E-05,0.3105,117,0.0207,-3.189136E-05,0.3105,0
0.0216,-5.035477E-06,0.324,118,0.0216,-3.390555E-05,0.324,0
0.0225,7.049668E-06,0.3375,118,0.0225,-3.860533E-05,0.3375,4
0.0234,4.733349E-05,0.351,118,0.0234,-1.409934E-05,0.351,0
0.0243,3.424125E-05,0.3645,119,0.0243,-1.376364E-05,0.3645,0
0.0252,6.042573E-06,0.378,119,0.0252,-2.014191E-06,0.378,0
0.0261,-1.007095E-06,0.3915,119,0.0261,-4.36408E-06,0.3915,1
0.027,3.692683E-06,0.405,118,0.027,-2.18204E-05,0.405,0
0.0279,-2.047761E-05,0.4185,119,0.0279,-3.524834E-05,0.4185,0
0.0288,-9.063859E-06,0.432,120,0.0288,-5.404745E-05,0.432,3
0.0297,-7.721065E-06,0.4455,120,0.0297,-2.719158E-05,0.4455,0
0.0306,-1.712062E-05,0.459,118,0.0306,-1.141375E-05,0.459,1
0.0315,-1.980621E-05,0.4725,119,0.0315,-3.961242E-05,0.4725,0
0.0324,-1.980621E-05,0.486,119,0.0324,-4.766919E-05,0.486,1
0.0333,-2.786297E-05,0.4995,119,0.0333,2.1149E-05,0.4995,1
0.0342,-3.256275E-05,0.513,118,0.0342,-1.174945E-05,0.513,1
0.0351,7.721065E-06,0.5265,120,0.0351,-6.478981E-05,0.5265,0
0.036,3.323415E-05,0.54,117,0.036,1.678492E-06,0.54,2
0.0369,-2.24918E-05,0.5535,117,0.0369,1.678492E-06,0.5535,-1
0.0378,-2.18204E-05,0.567,118,0.0378,-2.652018E-05,0.567,0
0.0387,5.941863E-05,0.5805,119,0.0387,-4.36408E-06,0.5805,0
0.0396,-3.356985E-06,0.594,119,0.0396,1.342794E-05,0.594,1
0.0405,-1.242084E-05,0.6075,120,0.0405,-3.356985E-07,0.6075,0
0.0414,-3.692683E-06,0.621,119,0.0414,-1.309224E-05,0.621,0
0.0423,-5.035477E-06,0.6345,120,0.0423,-3.759823E-05,0.6345,0
0.0432,-1.174945E-05,0.648,119,0.0432,-1.477073E-05,0.648,0
0.0441,-5.304036E-05,0.6615,119,0.0441,6.042573E-06,0.6615,-3
0.045,-3.726253E-05,0.675,118,0.045,-1.644922E-05,0.675,-4
0.0459,-4.095522E-05,0.6885,118,0.0459,-4.46479E-05,0.6885,1
0.0468,-3.121996E-05,0.702,118,0.0468,7.385367E-06,0.702,0
0.0477,1.577783E-05,0.7155,119,0.0477,-6.713969E-07,0.7155,3
0.0486,-1.678492E-06,0.729,119,0.0486,-6.54612E-05,0.729,-1
0.0495,-9.735256E-06,0.7425,119,0.0495,-1.712062E-05,0.7425,-4
0.0504,4.263371E-05,0.756,120,0.0504,-3.021286E-06,0.756,-2
0.0513,2.987716E-05,0.7695,120,0.0513,-6.042573E-05,0.7695,0
0.0522,-4.934768E-05,0.783,119,0.0522,-4.49836E-05,0.783,0
0.0531,-2.987716E-05,0.7965,121,0.0531,-3.356985E-06,0.7965,0
0.054,-2.719158E-05,0.81,121,0.054,-6.713969E-07,0.81,-1
0.0549,-2.28275E-05,0.8235,120,0.0549,-2.383459E-05,0.8235,-1
0.0558,-1.007095E-06,0.837,122,0.0558,-4.36408E-05,0.837,-1
0.0567,3.155566E-05,0.8505,120,0.0567,7.721065E-06,0.8505,-2
0.0576,2.316319E-05,0.864,120,0.0576,1.980621E-05,0.864,-3
0.0585,1.712062E-05,0.8775,120,0.0585,-2.014191E-05,0.8775,-1
0.0594,1.980621E-05,0.891,120,0.0594,-3.994812E-05,0.891,-2
0.0603,1.678492E-06,0.9045,119,0.0603,1.208515E-05,0.9045,-1
0.0612,1.342794E-06,0.918,120,0.0612,-1.040665E-05,0.918,0
0.0621,-4.699779E-06,0.9315,121,0.0621,-5.304036E-05,0.9315,-1
0.063,-1.141375E-05,0.945,119,0.063,1.007095E-06,0.945,0
0.0639,-3.356985E-07,0.9585,121,0.0639,3.726253E-05,0.9585,-1
0.0648,2.652018E-05,0.972,120,0.0648,-2.316319E-05,0.972,0
0.0657,6.042573E-06,0.9855,120,0.0657,-1.980621E-05,0.9855,-2
0.0666,-6.378271E-06,0.999,121,0.0666,9.063859E-06,0.999,0
0.0675,-2.719158E-05,1.0125,122,0.0675,-2.18204E-05,1.0125,-1
0.0684,-6.378271E-06,1.026,120,0.0684,-3.289845E-05,1.026,0
0.0693,-1.678492E-06,1.0395,122,0.0693,-4.33051E-05,1.0395,1
0.0702,-2.316319E-05,1.053,120,0.0702,-1.309224E-05,1.053,0
0.0711,-3.826963E-05,1.0665,122,0.0711,1.577783E-05,1.0665,0
0.072,-3.021286E-05,1.08,120,0.072,-1.342794E-05,1.08,1
0.0729,-2.316319E-05,1.0935,122,0.0729,-3.692683E-05,1.0935,-2
0.07380001,-7.049668E-06,1.107,122,0.07380001,2.987716E-05,1.107,-1
0.07470001,-2.383459E-05,1.1205,119,0.07470001,3.692683E-06,1.1205,2
0.0756,-3.021286E-06,1.134,119,0.0756,-6.814679E-05,1.134,1
0.0765,4.36408E-06,1.1475,122,0.0765,-3.625543E-05,1.1475,-1
0.0774,-1.712062E-05,1.161,121,0.0774,-9.735256E-06,1.161,-3
0.0783,-2.047761E-05,1.1745,122,0.0783,-4.699779E-05,1.1745,0
0.0792,-4.599069E-05,1.188,120,0.0792,-2.584878E-05,1.188,0
0.0801,-3.927672E-05,1.2015,120,0.0801,1.913481E-05,1.2015,2
0.081,-3.591974E-05,1.215,119,0.081,1.846342E-05,1.215,0
0.0819,-2.618448E-05,1.2285,121,0.0819,2.349889E-06,1.2285,0
0.0828,-5.706874E-06,1.242,121,0.0828,-2.819867E-05,1.242,0
0.0837,-1.242084E-05,1.2555,120,0.0837,-1.745632E-05,1.2555,0
0.0846,-1.477073E-05,1.269,120,0.0846,-7.049668E-06,1.269,0
0.0855,-1.342794E-06,1.2825,121,0.0855,-4.901198E-05,1.2825,0
0.0864,-3.356985E-07,1.296,121,0.0864,-6.478981E-05,1.296,1
0.0873,-1.846342E-05,1.3095,120,0.0873,-5.001907E-05,1.3095,0
0.0882,-2.18204E-05,1.323,121,0.0882,-3.390555E-05,1.323,0
0.0891,-6.713969E-06,1.3365,121,0.0891,-5.203327E-05,1.3365,-1
0.09,5.706874E-06,1.35,120,0.09,3.424125E-05,1.35,0
0.0909,2.349889E-05,1.3635,121,0.0909,1.309224E-05,1.3635,0
0.0918,3.826963E-05,1.377,121,0.0918,-5.404745E-05,1.377,0
0.0927,3.994812E-05,1.3905,122,0.0927,-3.289845E-05,1.3905,0
0.0936,7.721065E-06,1.404,121,0.0936,-4.699779E-06,1.404,-3
0.09450001,9.399558E-06,1.4175,120,0.09450001,-2.987716E-05,1.4175,0
0.09540001,1.980621E-05,1.431,122,0.09540001,-3.121996E-05,1.431,-2
0.09630001,2.450599E-05,1.4445,122,0.09630001,-5.001907E-05,1.4445,0
0.0972,2.719158E-05,1.458,122,0.0972,-2.920577E-05,1.458,-1
0.0981,-3.088426E-05,1.4715,121,0.0981,-3.692683E-06,1.4715,0
0.099,-2.383459E-05,1.485,120,0.099,-3.524834E-05,1.485,1
0.0999,-3.356985E-07,1.4985,120,0.0999,-3.121996E-05,1.4985,1
0.1008,-2.417029E-05,1.512,122,0.1008,2.853437E-05,1.512,0
0.1017,-1.846342E-05,1.5255,122,0.1017,7.721065E-06,1.5255,0
0.1026,-9.063859E-06,1.539,121,0.1026,-5.941863E-05,1.539,2
0.1035,-1.141375E-05,1.5525,121,0.1035,-1.040665E-05,1.5525,-1
0.1044,-8.728161E-06,1.566,122,0.1044,2.517739E-05,1.566,-1
0.1053,-1.712062E-05,1.5795,122,0.1053,-1.846342E-05,1.5795,0
0.1062,-1.678492E-06,1.593,122,0.1062,-4.33051E-05,1.593,1
0.1071,-4.36408E-06,1.6065,122,0.1071,-3.692683E-06,1.6065,0
0.108,6.713969E-07,1.62,123,0.108,-1.678492E-05,1.62,-1
0.1089,-6.378271E-06,1.6335,122,0.1089,-2.685588E-05,1.6335,-1
0.1098,-3.021286E-05,1.647,122,0.1098,-3.625543E-05,1.647,0
0.1107,-3.356985E-06,1.6605,122,0.1107,-3.021286E-06,1.6605,0
0.1116,-5.706874E-06,1.674,121,0.1116,3.256275E-05,1.674,1
0.1125,-4.061952E-05,1.6875,121,0.1125,-4.36408E-06,1.6875,-1
0.1134,-2.316319E-05,1.701,121,0.1134,-4.39765E-05,1.701,0
0.1143,-2.349889E-06,1.7145,121,0.1143,8.392462E-06,1.7145,0
0.1152,1.107805E-05,1.728,122,0.1152,-9.399558E-06,1.728,0
0.1161,1.577783E-05,1.7415,122,0.1161,-5.471885E-05,1.7415,-1
0.117,2.920577E-05,1.755,122,0.117,1.678492E-05,1.755,0
0.1179,6.243992E-05,1.7685,122,0.1179,1.007095E-06,1.7685,1
0.1188,9.063859E-06,1.782,121,0.1188,-5.304036E-05,1.782,0
0.1197,-1.007095E-05,1.7955,121,0.1197,-2.24918E-05,1.7955,0
0.1206,1.007095E-06,1.809,121,0.1206,1.678492E-06,1.809,2
0.1215,1.174945E-05,1.8225,121,0.1215,-1.443504E-05,1.8225,0
0.1224,5.035477E-06,1.836,120,0.1224,-2.517739E-05,1.836,0
0.1233,5.706874E-06,1.8495,121,0.1233,-5.102617E-05,1.8495,1
0.1242,-1.309224E-05,1.863,123,0.1242,-3.189136E-05,1.863,1
0.1251,-1.544213E-05,1.8765,122,0.1251,-2.652018E-05,1.8765,-1
0.126,7.385367E-06,1.89,122,0.126,-4.49836E-05,1.89,-1
0.1269,2.652018E-05,1.9035,122,0.1269,-6.54612E-05,1.9035,3
0.1278,-1.980621E-05,1.917,121,0.1278,2.349889E-06,1.917,-1
0.1287,-1.712062E-05,1.9305,121,0.1287,-4.36408E-06,1.9305,-1
0.1296,5.035477E-06,1.944,122,0.1296,-6.915389E-05,1.944,-1
0.1305,-2.987716E-05,1.9575,121,0.1305,-1.141375E-05,1.9575,0
0.1314,-6.109713E-05,1.971,119,0.1314,1.040665E-05,1.971,0
0.1323,-5.874724E-05,1.9845,120,0.1323,-3.021286E-05,1.9845,0
0.1332,-4.699779E-05,1.998,120,0.1332,-9.063859E-06,1.998,-1
0.1341,-3.591974E-05,2.0115,121,0.1341,2.316319E-05,2.0115,-1
0.135,-2.450599E-05,2.025,121,0.135,-3.021286E-06,2.025,-1
0.1359,-3.121996E-05,2.0385,121,0.1359,-7.721065E-06,2.0385,1
0.1368,-1.544213E-05,2.052,122,0.1368,-2.954147E-05,2.052,0
0.1377,1.007095E-05,2.0655,122,0.1377,3.356985E-07,2.0655,-1
0.1386,3.860533E-05,2.079,122,0.1386,1.712062E-05,2.079,-1
0.1395,7.721065E-06,2.0925,121,0.1395,-1.376364E-05,2.0925,-2
0.1404,1.947051E-05,2.106,122,0.1404,-3.323415E-05,2.106,0
0.1413,2.047761E-05,2.1195,121,0.1413,8.392462E-06,2.1195,-2
0.1422,2.349889E-06,2.133,122,0.1422,-2.349889E-05,2.133,-2
0.1431,1.913481E-05,2.1465,122,0.1431,-5.874724E-05,2.1465,-1
0.144,-7.385367E-06,2.16,122,0.144,7.049668E-06,2.16,0
0.1449,-3.927672E-05,2.1735,122,0.1449,-3.692683E-06,2.1735,0
0.1458,-1.242084E-05,2.187,123,0.1458,-4.43122E-05,2.187,0
0.1467,-3.121996E-05,2.2005,121,0.1467,-2.584878E-05,2.2005,-1
0.1476,-6.71397E-05,2.214,122,0.1476,5.035477E-06,2.214,0
0.1485,-5.673304E-05,2.2275,120,0.1485,-1.309224E-05,2.2275,0
0.1494,-1.779202E-05,2.241,121,0.1494,-2.18204E-05,2.241,0
0.1503,-1.376364E-05,2.2545,121,0.1503,-4.800488E-05,2.2545,-1
0.1512,-1.376364E-05,2.268,120,0.1512,-2.618448E-05,2.268,1
0.1521,4.129091E-05,2.2815,122,0.1521,-1.007095E-06,2.2815,-2
0.153,9.063859E-06,2.295,121,0.153,-2.18204E-05,2.295,1
0.1539,-1.007095E-05,2.3085,121,0.1539,-4.800488E-05,2.3085,-1
0.1548,-1.376364E-05,2.322,121,0.1548,1.040665E-05,2.322,0
0.1557,4.36408E-06,2.3355,122,0.1557,-3.356985E-07,2.3355,1
0.1566,-7.049668E-06,2.349,122,0.1566,-5.471885E-05,2.349,1
0.1575,0,2.3625,122,0.1575,-3.021286E-06,2.3625,1
0.1584,-1.678492E-06,2.376,122,0.1584,-4.36408E-06,2.376,0
0.1593,8.392462E-06,2.3895,120,0.1593,-6.378271E-05,2.3895,0
0.1602,1.879912E-05,2.403,123,0.1602,-1.712062E-05,2.403,1
0.1611,7.721065E-06,2.4165,121,0.1611,1.947051E-05,2.4165,-1
0.162,-6.042573E-06,2.43,121,0.162,1.007095E-06,2.43,1
0.1629,-1.812772E-05,2.4435,121,0.1629,-2.18204E-05,2.4435,1
0.1638,-3.356985E-06,2.457,122,0.1638,-5.539025E-05,2.457,-1
0.1647,-1.174945E-05,2.4705,121,0.1647,-1.376364E-05,2.4705,0
0.1656,-2.18204E-05,2.484,122,0.1656,-2.853437E-05,2.484,0
0.1665,1.779202E-05,2.4975,122,0.1665,-6.243992E-05,2.4975,0
0.1674,-1.007095E-06,2.511,120,0.1674,-6.210422E-05,2.511,3
0.1683,-1.275654E-05,2.5245,121,0.1683,1.342794E-06,2.5245,0
0.1692,8.392462E-06,2.538,122,0.1692,-1.342794E-05,2.538,1
0.1701,-1.309224E-05,2.5515,122,0.1701,-5.941863E-05,2.5515,0
0.171,-3.860533E-05,2.565,122,0.171,0,2.565,1
0.1719,-6.881819E-05,2.5785,121,0.1719,1.980621E-05,2.5785,0
0.1728,-6.61326E-05,2.592,121,0.1728,-3.256275E-05,2.592,-1
0.1737,-1.611353E-05,2.6055,122,0.1737,6.378271E-06,2.6055,-1
0.1746,-2.786297E-05,2.619,121,0.1746,2.584878E-05,2.619,0
0.1755,2.047761E-05,2.6325,121,0.1755,9.735256E-06,2.6325,1
0.1764,3.860533E-05,2.646,121,0.1764,4.36408E-06,2.646,2
0.1773,2.618448E-05,2.6595,120,0.1773,-3.726253E-05,2.6595,-1
0.1782,2.18204E-05,2.673,120,0.1782,-2.316319E-05,2.673,1
0.1791,-3.994812E-05,2.6865,121,0.1791,-2.316319E-05,2.6865,0
0.18,-4.129091E-05,2.7,121,0.18,-4.028382E-05,2.7,0
0.1809,-1.678492E-05,2.7135,121,0.1809,-3.927672E-05,2.7135,0
0.1818,-2.316319E-05,2.727,122,0.1818,2.047761E-05,2.727,0
0.1827,-3.558404E-05,2.7405,121,0.1827,-2.316319E-05,2.7405,0
0.1836,-3.021286E-06,2.754,121,0.1836,-7.418937E-05,2.754,1
0.1845,-6.713969E-06,2.7675,121,0.1845,-7.721065E-06,2.7675,0
0.1854,3.256275E-05,2.781,122,0.1854,1.174945E-05,2.781,0
0.1863,3.961242E-05,2.7945,120,0.1863,-5.304036E-05,2.7945,-2
0.1872,-3.021286E-06,2.808,122,0.1872,-3.558404E-05,2.808,2
0.1881,-1.678492E-05,2.8215,121,0.1881,1.342794E-06,2.8215,0
0.189,-1.947051E-05,2.835,122,0.189,-1.376364E-05,2.835,0
0.1899,9.063859E-06,2.8485,121,0.1899,-1.644922E-05,2.8485,2
0.1908,1.712062E-05,2.862,122,0.1908,-3.289845E-05,2.862,1
0.1917,-7.385367E-06,2.8755,121,0.1917,-1.443504E-05,2.8755,2
0.1926,-7.721065E-06,2.889,122,0.1926,2.786297E-05,2.889,0
0.1935,-1.644922E-05,2.9025,123,0.1935,9.399558E-06,2.9025,1
0.1944,-2.014191E-06,2.916,122,0.1944,-2.047761E-05,2.916,0
0.1953,2.517739E-05,2.9295,122,0.1953,1.544213E-05,2.9295,-1
0.1962,5.706874E-06,2.943,121,0.1962,1.074235E-05,2.943,1
0.1971,-9.735256E-06,2.9565,122,0.1971,-5.673304E-05,2.9565,0
0.198,-2.081331E-05,2.97,121,0.198,-1.577783E-05,2.97,2
0.1989,3.860533E-05,2.9835,122,0.1989,-1.678492E-06,2.9835,0
0.1998,4.36408E-05,2.997,122,0.1998,-4.934768E-05,2.997,2
0.2007,2.349889E-06,3.0105,123,0.2007,-4.095522E-05,3.0105,0
0.2016,3.021286E-06,3.024,120,0.2016,-1.376364E-05,3.024,0
0.2025,-5.035477E-06,3.0375,120,0.2025,-2.652018E-05,3.0375,0
0.2034,-8.728161E-06,3.051,122,0.2034,-4.061952E-05,3.051,-1
0.2043,1.376364E-05,3.0645,0,0.2043,-5.774014E-05,3.0645,0
0.2052,5.035477E-06,3.078,0,0.2052,-9.063859E-06,3.078,0
0.2061,-1.275654E-05,3.0915,0,0.2061,1.644922E-05,3.0915,0
0.207,-1.242084E-05,3.105,0,0.207,-3.524834E-05,3.105,0
0.2079,1.107805E-05,3.1185,0,0.2079,-4.599069E-05,3.1185,0
0.2088,-5.706874E-06,3.132,0,0.2088,1.174945E-05,3.132,0
0.2097,-2.081331E-05,3.1455,0,0.2097,9.063859E-06,3.1455,0
0.2106,-1.376364E-05,3.159,0,0.2106,-4.733349E-05,3.159,0
0.2115,-4.46479E-05,3.1725,0,0.2115,1.846342E-05,3.1725,0
0.2124,-4.49836E-05,3.186,0,0.2124,2.18204E-05,3.186,0
0.2133,-2.450599E-05,3.1995,0,0.2133,-4.565499E-05,3.1995,0
0.2142,1.678492E-06,3.213,0,0.2142,-4.934768E-05,3.213,0
0.2151,-1.913481E-05,3.2265,0,0.2151,-1.913481E-05,3.2265,0
0.216,-6.713969E-07,3.24,0,0.216,-5.438316E-05,3.24,0
0.2169,1.443504E-05,3.2535,0,0.2169,-4.53193E-05,3.2535,0
0.2178,-3.356985E-07,3.267,0,0.2178,-3.793393E-05,3.267,0
0.2187,7.721065E-06,3.2805,0,0.2187,-1.678492E-05,3.2805,0
0.2196,-4.33051E-05,3.294,0,0.2196,2.316319E-05,3.294,0
0.2205,-3.994812E-05,3.3075,0,0.2205,-1.980621E-05,3.3075,0
0.2214,-2.752728E-05,3.321,0,0.2214,-2.584878E-05,3.321,0
0.2223,-1.510643E-05,3.3345,0,0.2223,1.141375E-05,3.3345,0
0.2232,-3.189136E-05,3.348,0,0.2232,-7.385367E-06,3.348,0
0.2241,-1.040665E-05,3.3615,0,0.2241,-4.061952E-05,3.3615,0
0.225,4.36408E-06,3.375,0,0.225,1.007095E-05,3.375,0
0.2259,1.309224E-05,3.3885,0,0.2259,8.056763E-06,3.3885,0
0.2268,3.356985E-07,3.402,0,0.2268,-4.46479E-05,3.402,0
0.2277,3.189136E-05,3.4155,0,0.2277,-4.229801E-05,3.4155,0
0.2286,-3.692683E-06,3.429,0,0.2286,-7.049668E-06,3.429,0
0.2295,-1.007095E-05,3.4425,0,0.2295,-7.385367E-06,3.4425,0
0.2304,1.980621E-05,3.456,0,0.2304,-2.954147E-05,3.456,0
0.2313,-4.699779E-06,3.4695,0,0.2313,-5.236896E-05,3.4695,0
0.2322,-2.316319E-05,3.483,0,0.2322,-7.385367E-06,3.483,0
0.2331,-2.719158E-05,3.4965,0,0.2331,1.309224E-05,3.4965,0
0.234,-1.376364E-05,3.51,0,0.234,-2.349889E-05,3.51,0
0.2349,-3.356985E-07,3.5235,0,0.2349,-5.941863E-05,3.5235,0
0.2358,-2.752728E-05,3.537,0,0.2358,-6.713969E-06,3.537,0
0.2367,8.392462E-06,3.5505,0,0.2367,-1.040665E-05,3.5505,0
0.2376,2.1149E-05,3.564,0,0.2376,-6.54612E-05,3.564,0
0.2385,-5.706874E-06,3.5775,0,0.2385,1.007095E-06,3.5775,0
0.2394,9.063859E-06,3.591,0,0.2394,4.196231E-05,3.591,0
0.2403,-1.477073E-05,3.6045,0,0.2403,-2.383459E-05,3.6045,0
0.2412,-5.203327E-05,3.618,0,0.2412,-4.39765E-05,3.618,0
0.2421,-2.24918E-05,3.6315,0,0.2421,6.713969E-07,3.6315,0
0.243,-2.786297E-05,3.645,0,0.243,-5.706874E-06,3.645,0
0.2439,-3.659113E-05,3.6585,0,0.2439,-2.383459E-05,3.6585,0
0.2448,-1.913481E-05,3.672,0,0.2448,-5.069047E-05,3.672,0
0.2457,2.349889E-06,3.6855,0,0.2457,-1.007095E-06,3.6855,0
0.2466,2.1149E-05,3.699,0,0.2466,0,3.699,0
0.2475,-4.36408E-06,3.7125,0,0.2475,-3.121996E-05,3.7125,0
0.2484,1.712062E-05,3.726,0,0.2484,-3.692683E-05,3.726,0
0.2493,-1.544213E-05,3.7395,0,0.2493,2.014191E-06,3.7395,0
0.2502,-7.049668E-06,3.753,0,0.2502,-1.577783E-05,3.753,0
0.2511,3.189136E-05,3.7665,0,0.2511,-6.64683E-05,3.7665,0
0.252,6.042573E-06,3.78,0,0.252,-2.014191E-06,3.78,0
0.2529,-3.591974E-05,3.7935,0,0.2529,1.577783E-05,3.7935,0
0.2538,-3.524834E-05,3.807,0,0.2538,-3.927672E-05,3.807,0
0.2547,1.779202E-05,3.8205,0,0.2547,-3.457694E-05,3.8205,0
0.2556,-3.021286E-06,3.834,0,0.2556,1.208515E-05,3.834,0
0.2565,1.678492E-06,3.8475,0,0.2565,-8.392462E-06,3.8475,0
0.2574,1.275654E-05,3.861,0,0.2574,-1.107805E-05,3.861,0
0.2583,-1.577783E-05,3.8745,0,0.2583,-4.46479E-05,3.8745,0
0.2592,-3.021286E-06,3.888,0,0.2592,-7.049668E-06,3.888,0
0.2601,1.342794E-06,3.9015,0,0.2601,3.189136E-05,3.9015,0
0.261,-6.042573E-06,3.915,0,0.261,2.349889E-06,3.915,0
0.2619,6.378271E-06,3.9285,0,0.2619,-4.46479E-05,3.9285,0
0.2628,-4.699779E-06,3.942,0,0.2628,1.074235E-05,3.942,0
0.2637,-1.712062E-05,3.9555,0,0.2637,4.699779E-06,3.9555,0
0.2646,-8.056763E-06,3.969,0,0.2646,-4.834058E-05,3.969,0
0.2655,-1.342794E-06,3.9825,0,0.2655,3.021286E-06,3.9825,0
0.2664,-1.174945E-05,3.996,0,0.2664,-2.081331E-05,3.996,0
0.2673,-8.728161E-06,4.0095,0,0.2673,-6.378271E-05,4.0095,0
0.2682,-3.793393E-05,4.023,0,0.2682,-1.913481E-05,4.023,0
0.2691,-1.242084E-05,4.0365,0,0.2691,1.040665E-05,4.0365,0
0.27,-1.678492E-05,4.05,0,0.27,-2.014191E-05,4.05,0
0.2709,-3.121996E-05,4.0635,0,0.2709,-2.853437E-05,4.0635,0
0.2718,3.356985E-07,4.077,0,0.2718,-4.867628E-05,4.077,0
0.2727,1.913481E-05,4.0905,0,0.2727,-9.063859E-06,4.0905,0
0.2736,-3.356985E-07,4.104,0,0.2736,-2.047761E-05,4.104,0
0.2745,7.385367E-06,4.1175,0,0.2745,-4.934768E-05,4.1175,0
0.2754,1.242084E-05,4.131,0,0.2754,-6.243992E-05,4.131,0
0.2763,-3.692683E-06,4.1445,0,0.2763,1.007095E-06,4.1445,0
0.2772,3.356985E-07,4.158,0,0.2772,-5.706874E-06,4.158,0
0.2781,-1.443504E-05,4.1715,0,0.2781,-5.572595E-05,4.1715,0
0.279,-2.316319E-05,4.185,0,0.279,-1.040665E-05,4.185,0
0.2799,9.399558E-06,4.1985,0,0.2799,1.309224E-05,4.1985,0
0.2808,-7.721065E-06,4.212,0,0.2808,-3.860533E-05,4.212,0
0.2817,-3.121996E-05,4.2255,0,0.2817,-1.846342E-05,4.2255,0
0.2826,-1.779202E-05,4.239,0,0.2826,-4.699779E-06,4.239,0
0.2835,4.028382E-06,4.2525,0,0.2835,-1.275654E-05,4.2525,0
0.2844,-1.913481E-05,4.266,0,0.2844,-8.392462E-06,4.266,0
0.2853,-4.36408E-06,4.2795,0,0.2853,-4.867628E-05,4.2795,0
0.2862,2.1149E-05,4.293,0,0.2862,-2.652018E-05,4.293,0
0.2871,2.819867E-05,4.3065,0,0.2871,5.035477E-06,4.3065,0
0.288,1.812772E-05,4.32,0,0.288,-3.088426E-05,4.32,0
0.2889,1.779202E-05,4.3335,0,0.2889,-5.404745E-05,4.3335,0
0.2898,-5.371176E-06,4.347,0,0.2898,1.309224E-05,4.347,0
0.2907,1.007095E-06,4.3605,0,0.2907,2.349889E-06,4.3605,0
0.2916,1.678492E-06,4.374,0,0.2916,-5.572595E-05,4.374,0
0.2925,-2.383459E-05,4.3875,0,0.2925,-6.713969E-06,4.3875,0
0.2934,-4.934768E-05,4.401,0,0.2934,2.853437E-05,4.401,0
0.2943,-4.095522E-05,4.4145,0,0.2943,-4.095522E-05,4.4145,0
0.2952,-2.853437E-05,4.428,0,0.2952,-2.752728E-05,4.428,0
0.2961,-3.625543E-05,4.4415,0,0.2961,1.644922E-05,4.4415,0
0.297,-1.846342E-05,4.455,0,0.297,-8.728161E-06,4.455,0
0.2979,-1.577783E-05,4.4685,0,0.2979,-2.887007E-05,4.4685,0
0.2988,-8.392462E-06,4.482,0,0.2988,-4.53193E-05,4.482,0
0.2997,1.846342E-05,4.4955,0,0.2997,-7.721065E-06,4.4955,0
0.3006,1.779202E-05,4.509,0,0.3006,2.1149E-05,4.509,0
0.3015,-2.652018E-05,4.5225,0,0.3015,-3.021286E-06,4.5225,0
0.3024,-6.713969E-06,4.536,0,0.3024,-2.987716E-05,4.536,0
0.3033,-1.678492E-06,4.5495,0,0.3033,1.007095E-05,4.5495,0
0.3042,1.007095E-05,4.563,0,0.3042,1.678492E-06,4.563,0
0.3051,8.728161E-06,4.5765,0,0.3051,-4.599069E-05,4.5765,0
0.306,2.014191E-06,4.59,0,0.306,8.392462E-06,4.59,0
0.3069,9.063859E-06,4.6035,0,0.3069,-3.021286E-06,4.6035,0
0.3078,5.035477E-06,4.617,0,0.3078,-4.53193E-05,4.617,0
0.3087,3.256275E-05,4.6305,0,0.3087,-4.599069E-05,4.6305,0
0.3096,1.040665E-05,4.644,0,0.3096,-3.121996E-05,4.644,0
0.3105,-9.063859E-06,4.6575,0,0.3105,-3.524834E-05,4.6575,0
0.3114,-3.356985E-07,4.671,0,0.3114,-2.920577E-05,4.671,0
0.3123,8.728161E-06,4.6845,0,0.3123,-5.941863E-05,4.6845,0
0.3132,-1.342794E-06,4.698,0,0.3132,-1.980621E-05,4.698,0
0.3141,-2.18204E-05,4.7115,0,0.3141,2.484169E-05,4.7115,0
0.315,-2.014191E-05,4.725,0,0.315,-2.014191E-05,4.725,0
0.3159,-2.28275E-05,4.7385,0,0.3159,-5.069047E-05,4.7385,0
0.3168,-3.457694E-05,4.752,0,0.3168,5.035477E-06,4.752,0
0.3177,-2.551309E-05,4.7655,0,0.3177,-1.174945E-05,4.7655,0
0.3186,-3.021286E-06,4.779,0,0.3186,-6.478981E-05,4.779,0
0.3195,-1.644922E-05,4.7925,0,0.3195,9.063859E-06,4.7925,0
0.3204,-5.706874E-06,4.806,0,0.3204,1.947051E-05,4.806,0
0.3213,-2.18204E-05,4.8195,0,0.3213,-5.505455E-05,4.8195,0
0.3222,-2.887007E-05,4.833,0,0.3222,-5.136187E-05,4.833,0
0.3231,-2.484169E-05,4.8465,0,0.3231,-1.007095E-06,4.8465,0
0.324,-5.706874E-06,4.86,0,0.324,-1.309224E-05,4.86,0
0.3249,-1.879912E-05,4.8735,0,0.3249,-3.591974E-05,4.8735,0
0.3258,-1.678492E-05,4.887,0,0.3258,-3.793393E-05,4.887,0
0.3267,1.376364E-05,4.9005,0,0.3267,-1.208515E-05,4.9005,0
0.3276,-2.24918E-05,4.914,0,0.3276,1.644922E-05,4.914,0
0.3285,-2.719158E-05,4.9275,0,0.3285,-5.706874E-06,4.9275,0
0.3294,-1.040665E-05,4.941,0,0.3294,-1.779202E-05,4.941,0
0.3303,-1.510643E-05,4.9545,0,0.3303,2.383459E-05,4.9545,0
0.3312,-3.054856E-05,4.968,0,0.3312,-3.356985E-07,4.968,0
0.3321,-2.014191E-06,4.9815,0,0.3321,-4.800488E-05,4.9815,0
0.333,2.28275E-05,4.995,0,0.333,4.36408E-06,4.995,0
0.3339,5.606165E-05,5.0085,0,0.3339,-6.378271E-06,5.0085,0
0.3348,2.1149E-05,5.022,0,0.3348,-4.901198E-05,5.022,0
0.3357,-2.349889E-05,5.0355,0,0.3357,-2.1149E-05,5.0355,0
0.3366,-2.752728E-05,5.049,0,0.3366,6.378271E-06,5.049,0
0.3375,-1.510643E-05,5.0625,0,0.3375,9.735256E-06,5.0625,0
0.3384,-2.014191E-06,5.076,0,0.3384,-8.392462E-06,5.076,0
0.3393,-2.18204E-05,5.0895,0,0.3393,-3.860533E-05,5.0895,0
0.3402,7.049668E-06,5.103,0,0.3402,-2.618448E-05,5.103,0
0.3411,2.987716E-05,5.1165,0,0.3411,-3.659113E-05,5.1165,0
0.342,2.887007E-05,5.13,0,0.342,-7.754635E-05,5.13,0
0.3429,6.042573E-06,5.1435,0,0.3429,-7.888914E-05,5.1435,0
0.3438,-1.309224E-05,5.157,0,0.3438,-1.712062E-05,5.157,0
0.3447,3.692683E-06,5.1705,0,0.3447,-1.107805E-05,5.1705,0
0.3456,1.577783E-05,5.184,0,0.3456,-6.6804E-05,5.184,0
0.3465,-9.399558E-06,5.1975,0,0.3465,-1.510643E-05,5.1975,0
0.3474,-7.385367E-06,5.211,0,0.3474,2.28275E-05,5.211,0
0.3483,-1.980621E-05,5.2245,0,0.3483,-4.061952E-05,5.2245,0
0.3492,-5.001907E-05,5.238,0,0.3492,-3.121996E-05,5.238,0
0.3501,-8.392462E-06,5.2515,0,0.3501,9.063859E-06,5.2515,0
0.351,-7.721065E-06,5.265,0,0.351,-2.450599E-05,5.265,0
0.3519,-2.517739E-05,5.2785,0,0.3519,-2.014191E-05,5.2785,0
0.3528,-3.021286E-06,5.292,0,0.3528,-3.457694E-05,5.292,0
0.3537,2.316319E-05,5.3055,0,0.3537,9.063859E-06,5.3055,0
0.3546,3.323415E-05,5.319,0,0.3546,6.378271E-06,5.319,0
0.3555,7.721065E-06,5.3325,0,0.3555,-1.846342E-05,5.3325,0
0.3564,6.378271E-06,5.346,0,0.3564,-2.719158E-05,5.346,0
0.3573,-1.141375E-05,5.3595,0,0.3573,1.712062E-05,5.3595,0
0.3582,1.040665E-05,5.373,0,0.3582,1.846342E-05,5.373,0
0.3591,4.061952E-05,5.3865,0,0.3591,-4.129091E-05,5.3865,0
0.36,-3.356985E-06,5.4,0,0.36,-2.349889E-06,5.4,0
0.3609,-2.786297E-05,5.4135,0,0.3609,2.28275E-05,5.4135,0
0.3618,-4.934768E-05,5.427,0,0.3618,-4.36408E-06,5.427,0
0.3627,-4.43122E-05,5.4405,0,0.3627,-2.14847E-05,5.4405,0
0.3636,-5.505455E-05,5.454,0,0.3636,1.174945E-05,5.454,0
0.3645,-4.263371E-05,5.4675,0,0.3645,5.706874E-06,5.4675,0
0.3654,-2.383459E-05,5.481,0,0.3654,-9.063859E-06,5.481,0
0.3663,-2.618448E-05,5.4945,0,0.3663,-5.035477E-05,5.4945,0
0.3672,1.577783E-05,5.508,0,0.3672,-1.544213E-05,5.508,0
0.3681,5.471885E-05,5.5215,0,0.3681,-1.443504E-05,5.5215,0
0.369,2.786297E-05,5.535,0,0.369,-5.236896E-05,5.535,0
0.3699,3.826963E-05,5.5485,0,0.3699,-6.64683E-05,5.5485,0
0.3708,1.443504E-05,5.562,0,0.3708,-1.242084E-05,5.562,0
0.3717,2.014191E-06,5.5755,0,0.3717,-1.712062E-05,5.5755,0
0.3726,8.728161E-06,5.589,0,0.3726,-6.210422E-05,5.589,0
0.3735,-1.141375E-05,5.6025,0,0.3735,-7.049668E-06,5.6025,0
0.3744,-2.584878E-05,5.616,0,0.3744,1.007095E-06,5.616,0
0.3753,-2.24918E-05,5.6295,0,0.3753,-4.39765E-05,5.6295,0
0.3762,-5.807584E-05,5.643,0,0.3762,-1.846342E-05,5.643,0
0.3771,-3.323415E-05,5.6565,0,0.3771,9.735256E-06,5.6565,0
0.378,-2.383459E-05,5.67,0,0.378,-6.713969E-06,5.67,0
0.3789,-9.063859E-06,5.6835,0,0.3789,-1.745632E-05,5.6835,0
0.3798,-9.735256E-06,5.697,0,0.3798,-3.860533E-05,5.697,0
0.3807,-3.692683E-06,5.7105,0,0.3807,-1.242084E-05,5.7105,0
0.3816,2.685588E-06,5.724,0,0.3816,-3.356985E-07,5.724,0
0.3825,-2.1149E-05,5.7375,0,0.3825,-2.786297E-05,5.7375,0
0.3834,-1.913481E-05,5.751,0,0.3834,-5.001907E-05,5.751,0
0.3843,-5.706874E-06,5.7645,0,0.3843,1.510643E-05,5.7645,0
0.3852,1.544213E-05,5.778,0,0.3852,1.342794E-06,5.778,0
0.3861,-3.692683E-06,5.7915,0,0.3861,-5.774014E-05,5.7915,0
0.387,-6.042573E-06,5.805,0,0.387,-4.36408E-06,5.805,0
0.3879,3.390555E-05,5.8185,0,0.3879,-6.042573E-06,5.8185,0
0.3888,-1.007095E-06,5.832,0,0.3888,-5.337606E-05,5.832,0
0.3897,-1.644922E-05,5.8455,0,0.3897,-4.028382E-06,5.8455,0
0.3906,-6.378271E-06,5.859,0,0.3906,1.678492E-06,5.859,0
0.3915,-1.712062E-05,5.8725,0,0.3915,-6.378271E-06,5.8725,0
0.3924,-2.349889E-05,5.886,0,0.3924,-6.713969E-07,5.886,0
0.3933,-1.409934E-05,5.8995,0,0.3933,-4.263371E-05,5.8995,0
0.3942,2.014191E-06,5.913,0,0.3942,-3.054856E-05,5.913,0
0.3951,-2.18204E-05,5.9265,0,0.3951,-2.450599E-05,5.9265,0
0.396,-1.980621E-05,5.94,0,0.396,-5.572595E-05,5.94,0
0.3969,-8.056763E-06,5.9535,0,0.3969,-5.404745E-05,5.9535,0
0.3978,-1.107805E-05,5.967,0,0.3978,7.049668E-06,5.967,0
0.3987,-1.510643E-05,5.9805,0,0.3987,-2.551309E-05,5.9805,0
0.3996,1.846342E-05,5.994,0,0.3996,-6.61326E-05,5.994,0
0.4005,-1.040665E-05,6.0075,0,0.4005,-7.721065E-06,6.0075,0
0.4014,-1.644922E-05,6.021,0,0.4014,2.24918E-05,6.021,0
0.4023,5.035477E-06,6.0345,0,0.4023,-4.36408E-05,6.0345,0
0.4032,3.826963E-05,6.048,0,0.4032,-2.417029E-05,6.048,0
0.4041,1.712062E-05,6.0615,0,0.4041,2.752728E-05,6.0615,0
0.405,1.443504E-05,6.075,0,0.405,1.174945E-05,6.075,0
0.4059,-3.356985E-06,6.0885,0,0.4059,-1.174945E-05,6.0885,0
0.4068,-9.063859E-06,6.102,0,0.4068,-3.289845E-05,6.102,0
0.4077,-7.049668E-06,6.1155,0,0.4077,-6.378271E-06,6.1155,0
0.4086,-1.309224E-05,6.129,0,0.4086,-7.721065E-06,6.129,0
0.4095,-7.721065E-06,6.1425,0,0.4095,-2.047761E-05,6.1425,0
0.4104,-1.107805E-05,6.156,0,0.4104,-3.927672E-05,6.156,0
0.4113,-2.18204E-05,6.1695,0,0.4113,7.049668E-06,6.1695,0
0.4122,-1.342794E-05,6.183,0,0.4122,-1.275654E-05,6.183,0
0.4131,-1.644922E-05,6.1965,0,0.4131,-5.136187E-05,6.1965,0
0.414,-1.107805E-05,6.21,0,0.414,-6.378271E-06,6.21,0
0.4149,-1.577783E-05,6.2235,0,0.4149,2.21561E-05,6.2235,0
0.4158,-1.007095E-05,6.237,0,0.4158,-2.18204E-05,6.237,0
0.4167,-3.323415E-05,6.2505,0,0.4167,-8.392462E-06,6.2505,0
0.4176,-4.934768E-05,6.264,0,0.4176,1.007095E-05,6.264,0
0.4185,-4.196231E-05,6.2775,0,0.4185,-1.644922E-05,6.2775,0
0.4194,-5.035477E-06,6.291,0,0.4194,-2.484169E-05,6.291,0
0.4203,-3.021286E-06,6.3045,0,0.4203,-4.36408E-05,6.3045,0
0.4212,-6.378271E-06,6.318,0,0.4212,-1.745632E-05,6.318,0
0.4221,1.913481E-05,6.3315,0,0.4221,-1.678492E-06,6.3315,0
0.423,3.390555E-05,6.345,0,0.423,-3.088426E-05,6.345,0
0.4239,6.713969E-06,6.3585,0,0.4239,-4.666209E-05,6.3585,0
0.4248,-1.678492E-05,6.372,0,0.4248,-3.692683E-06,6.372,0
0.4257,-5.706874E-06,6.3855,0,0.4257,-1.712062E-05,6.3855,0
0.4266,1.174945E-05,6.399,0,0.4266,-6.74754E-05,6.399,0
0.4275,-1.107805E-05,6.4125,0,0.4275,-6.713969E-07,6.4125,0
0.4284,-3.558404E-05,6.426,0,0.4284,2.819867E-05,6.426,0
0.4293,-2.853437E-05,6.4395,0,0.4293,-3.860533E-05,6.4395,0
0.4302,-2.047761E-05,6.453,0,0.4302,-2.081331E-05,6.453,0
0.4311,-1.040665E-05,6.4665,0,0.4311,2.450599E-05,6.4665,0
0.432,-1.577783E-05,6.48,0,0.432,-9.735256E-06,6.48,0
0.4329,-2.853437E-05,6.4935,0,0.4329,-1.879912E-05,6.4935,0
0.4338,2.014191E-06,6.507,0,0.4338,-3.793393E-05,6.507,0
0.4347,5.404745E-05,6.5205,0,0.4347,-1.376364E-05,6.5205,0
0.4356,4.46479E-05,6.534,0,0.4356,-1.779202E-05,6.534,0
0.4365,2.349889E-06,6.5475,0,0.4365,-5.169757E-05,6.5475,0
0.4374,1.510643E-05,6.561,0,0.4374,-4.061952E-05,6.561,0
0.4383,-3.356985E-07,6.5745,0,0.4383,-4.028382E-06,6.5745,0
0.4392,-2.349889E-06,6.588,0,0.4392,-2.1149E-05,6.588,0
0.4401,2.24918E-05,6.6015,0,0.4401,-6.143282E-05,6.6015,0
0.441,-1.712062E-05,6.615,0,0.441,-1.745632E-05,6.615,0
0.4419,-2.18204E-05,6.6285,0,0.4419,3.692683E-06,6.6285,0
0.4428,7.049668E-06,6.642,0,0.4428,-3.424125E-05,6.642,0
0.4437,-1.644922E-05,6.6555,0,0.4437,-1.342794E-05,6.6555,0
0.4446,-2.685588E-05,6.669,0,0.4446,2.786297E-05,6.669,0
0.4455,-2.014191E-05,6.6825,0,0.4455,1.644922E-05,6.6825,0
0.4464,-2.18204E-05,6.696,0,0.4464,-1.779202E-05,6.696,0
0.4473,-1.342794E-05,6.7095,0,0.4473,-5.035477E-05,6.7095,0
0.4482,-1.443504E-05,6.723,0,0.4482,-2.685588E-05,6.723,0
0.4491,-4.36408E-06,6.7365,0,0.4491,5.035477E-06,6.7365,0
0.45,-9.735256E-06,6.75,0,0.45,-3.289845E-05,6.75,0
0.4509,-5.706874E-06,6.7635,0,0.4509,-5.639734E-05,6.7635,0
0.4518,1.678492E-06,6.777,0,0.4518,6.713969E-06,6.777,0
0.4527,-3.121996E-05,6.7905,0,0.4527,-2.349889E-06,6.7905,0
0.4536,-3.155566E-05,6.804,0,0.4536,-6.344701E-05,6.804,0
0.4545,-3.659113E-05,6.8175,0,0.4545,-7.385367E-06,6.8175,0
0.4554,-3.961242E-05,6.831,0,0.4554,5.371176E-06,6.831,0
0.4563,-3.793393E-05,6.8445,0,0.4563,-5.807584E-05,6.8445,0
0.4572,-4.632639E-05,6.858,0,0.4572,-1.510643E-05,6.858,0
0.4581,-3.558404E-05,6.8715,0,0.4581,1.040665E-05,6.8715,0
0.459,-1.409934E-05,6.885,0,0.459,-1.007095E-05,6.885,0
0.4599,5.035477E-06,6.8985,0,0.4599,-1.644922E-05,6.8985,0
0.4608,2.316319E-05,6.912,0,0.4608,-4.733349E-05,6.912,0
0.4617,9.063859E-06,6.9255,0,0.4617,-5.706874E-06,6.9255,0
0.4626,-1.107805E-05,6.939,0,0.4626,3.692683E-06,6.939,0
0.4635,-3.356985E-06,6.9525,0,0.4635,-3.457694E-05,6.9525,0
0.4644,9.063859E-06,6.966,0,0.4644,-4.867628E-05,6.966,0
0.4653,-1.644922E-05,6.9795,0,0.4653,0,6.9795,0
0.4662,-5.035477E-06,6.993,0,0.4662,-7.049668E-06,6.993,0
0.4671,6.042573E-06,7.0065,0,0.4671,-6.478981E-05,7.0065,0
0.468,8.728161E-06,7.02,0,0.468,-1.007095E-05,7.02,0
0.4689,5.874724E-05,7.0335,0,0.4689,1.913481E-05,7.0335,0
0.4698,3.121996E-05,7.047,0,0.4698,-2.652018E-05,7.047,0
0.4707,-1.577783E-05,7.0605,0,0.4707,-4.733349E-05,7.0605,0
0.4716,-1.007095E-05,7.074,0,0.4716,-8.392462E-06,7.074,0
0.4725,6.713969E-07,7.0875,0,0.4725,-1.913481E-05,7.0875,0
0.4734,5.035477E-06,7.101,0,0.4734,-1.443504E-05,7.101,0
0.4743,-9.735256E-06,7.1145,0,0.4743,-4.766919E-05,7.1145,0
0.4752,5.706874E-06,7.128,0,0.4752,-2.349889E-06,7.128,0
0.4761,-3.356985E-06,7.1415,0,0.4761,2.920577E-05,7.1415,0
0.477,-1.980621E-05,7.155,0,0.477,-1.107805E-05,7.155,0
0.4779,9.735256E-06,7.1685,0,0.4779,-3.625543E-05,7.1685,0
0.4788,-9.063859E-06,7.182,0,0.4788,2.1149E-05,7.182,0
0.4797,1.342794E-05,7.1955,0,0.4797,2.014191E-06,7.1955,0
0.4806,1.342794E-05,7.209,0,0.4806,-7.116808E-05,7.209,0
0.4815,-6.713969E-06,7.2225,0,0.4815,-5.371176E-06,7.2225,0
0.4824,2.316319E-05,7.236,0,0.4824,-8.392462E-06,7.236,0
0.4833,6.378271E-06,7.2495,0,0.4833,-5.001907E-05,7.2495,0
0.4842,-3.356985E-07,7.263,0,0.4842,-3.692683E-05,7.263,0
0.4851,-1.510643E-05,7.2765,0,0.4851,2.349889E-06,7.2765,0
0.486,7.721065E-06,7.29,0,0.486,-1.644922E-05,7.29,0
0.4869,6.042573E-06,7.3035,0,0.4869,-2.417029E-05,7.3035,0
0.4878,-2.584878E-05,7.317,0,0.4878,-5.102617E-05,7.317,0
0.4887,-1.107805E-05,7.3305,0,0.4887,-2.316319E-05,7.3305,0
0.4896,-6.378271E-06,7.344,0,0.4896,-3.659113E-05,7.344,0
0.4905,-4.33051E-05,7.3575,0,0.4905,-6.61326E-05,7.3575,0
0.4914,-3.356985E-05,7.371,0,0.4914,-6.277562E-05,7.371,0
0.4923,-2.819867E-05,7.3845,0,0.4923,4.028382E-06,7.3845,0
0.4932,-1.712062E-05,7.398,0,0.4932,4.36408E-06,7.398,0
0.4941,-1.342794E-06,7.4115,0,0.4941,-6.243992E-05,7.4115,0
0.495,7.721065E-06,7.425,0,0.495,-2.014191E-06,7.425,0
0.4959,4.095522E-05,7.4385,0,0.4959,6.042573E-06,7.4385,0
0.4968,3.356985E-06,7.452,0,0.4968,-4.263371E-05,7.452,0
0.4977,-1.107805E-05,7.4655,0,0.4977,-2.752728E-05,7.4655,0
0.4986,-1.544213E-05,7.479,0,0.4986,1.040665E-05,7.479,0
0.4995,-1.980621E-05,7.4925,0,0.4995,3.356985E-06,7.4925,0
0.5004,-2.450599E-05,7.506,0,0.5004,-7.721065E-06,7.506,0
0.5013,-2.047761E-05,7.5195,0,0.5013,-3.726253E-05,7.5195,0
0.5022,-8.392462E-06,7.533,0,0.5022,1.678492E-06,7.533,0
0.5031,-1.644922E-05,7.5465,0,0.5031,1.678492E-05,7.5465,0
0.504,3.021286E-06,7.56,0,0.504,-2.316319E-05,7.56,0
0.5049,1.678492E-06,7.5735,0,0.5049,-3.088426E-05,7.5735,0
0.5058,-5.371176E-06,7.587,0,0.5058,1.712062E-05,7.587,0
0.5067,3.356985E-07,7.6005,0,0.5067,1.678492E-06,7.6005,0
0.5076,2.450599E-05,7.614,0,0.5076,-6.881819E-05,7.614,0
0.5085,-1.074235E-05,7.6275,0,0.5085,-9.735256E-06,7.6275,0
0.5094,9.735256E-06,7.641,0,0.5094,2.1149E-05,7.641,0
0.5103,1.846342E-05,7.6545,0,0.5103,-3.524834E-05,7.6545,0
0.5112,-2.18204E-05,7.668,0,0.5112,8.392462E-06,7.668,0
0.5121,-2.450599E-05,7.6815,0,0.5121,3.793393E-05,7.6815,0
0.513,-5.035477E-06,7.695,0,0.513,1.409934E-05,7.695,0
0.5139,-2.014191E-05,7.7085,0,0.5139,-1.174945E-05,7.7085,0
0.5148,-1.242084E-05,7.722,0,0.5148,-4.33051E-05,7.722,0
0.5157,1.309224E-05,7.7355,0,0.5157,-1.712062E-05,7.7355,0
0.5166,9.735256E-06,7.749,0,0.5166,-2.685588E-05,7.749,0
0.5175,7.721065E-06,7.7625,0,0.5175,-5.001907E-05,7.7625,0
0.5184,4.028382E-06,7.776,0,0.5184,-6.881819E-05,7.776,0
0.5193,-1.510643E-05,7.7895,0,0.5193,-2.014191E-06,7.7895,0
0.5202,-1.275654E-05,7.803,0,0.5202,-1.443504E-05,7.803,0
0.5211,-6.713969E-07,7.8165,0,0.5211,-6.478981E-05,7.8165,0
0.522,-1.141375E-05,7.83,0,0.522,-2.24918E-05,7.83,0
0.5229,-3.793393E-05,7.8435,0,0.5229,-1.107805E-05,7.8435,0
0.5238,-1.443504E-05,7.857,0,0.5238,-5.606165E-05,7.857,0
0.5247,1.007095E-05,7.8705,0,0.5247,-3.625543E-05,7.8705,0
0.5256,-1.107805E-05,7.884,0,0.5256,-2.349889E-06,7.884,0
0.5265,-9.735256E-06,7.8975,0,0.5265,-1.913481E-05,7.8975,0
0.5274,-4.36408E-06,7.911,0,0.5274,-3.356985E-07,7.911,0
0.5283,3.692683E-06,7.9245,0,0.5283,-2.551309E-05,7.9245,0
0.5292,-9.735256E-06,7.938,0,0.5292,1.510643E-05,7.938,0
0.5301,-6.243992E-05,7.9515,0,0.5301,2.853437E-05,7.9515,0
0.531,-3.793393E-05,7.965,0,0.531,-4.028382E-06,7.965,0
0.5319,-3.524834E-05,7.9785,0,0.5319,-1.477073E-05,7.9785,0
0.5328,-2.752728E-05,7.992,0,0.5328,2.081331E-05,7.992,0
0.5337,-1.644922E-05,8.0055,0,0.5337,-3.356985E-07,8.0055,0
0.5346,-1.913481E-05,8.019,0,0.5346,-6.54612E-05,8.019,0
0.5355,-1.779202E-05,8.0325,0,0.5355,-8.056763E-06,8.0325,0
0.5364,1.913481E-05,8.046,0,0.5364,9.735256E-06,8.046,0
0.5373,1.644922E-05,8.0595,0,0.5373,-5.001907E-05,8.0595,0
0.5382,-2.316319E-05,8.073,0,0.5382,-5.404745E-05,8.073,0
0.5391,-6.378271E-06,8.0865,0,0.5391,-3.356985E-06,8.0865,0
0.54,-2.853437E-05,8.1,0,0.54,-2.685588E-05,8.1,0
0.5409,-1.107805E-05,8.1135,0,0.5409,-2.987716E-05,8.1135,0
0.5418,1.107805E-05,8.127,0,0.5418,-4.766919E-05,8.127,0
0.5427,2.719158E-05,8.1405,0,0.5427,-8.392462E-06,8.1405,0
0.5436,3.457694E-05,8.154,0,0.5436,2.450599E-05,8.154,0
0.5445,1.174945E-05,8.1675,0,0.5445,-2.786297E-05,8.1675,0
0.5454,0,8.181,0,0.5454,-4.33051E-05,8.181,0
0.5463,-3.692683E-06,8.1945,0,0.5463,3.692683E-06,8.1945,0
0.5472,-1.040665E-05,8.208,0,0.5472,-2.18204E-05,8.208,0
0.5481,9.735256E-06,8.2215,0,0.5481,-5.941863E-05,8.2215,0
0.549,-3.054856E-05,8.235,0,0.549,-1.644922E-05,8.235,0
0.5499,-4.061952E-05,8.2485,0,0.5499,-1.980621E-05,8.2485,0
0.5508,-2.1149E-05,8.262,0,0.5508,-6.143282E-05,8.262,0
0.5517,-3.390555E-05,8.2755,0,0.5517,-4.33051E-05,8.2755,0
0.5526,-4.49836E-05,8.289,0,0.5526,-2.014191E-05,8.289,0
0.5535,-8.392462E-06,8.3025,0,0.5535,-3.692683E-05,8.3025,0
0.5544,-1.846342E-05,8.316,0,0.5544,-3.457694E-05,8.316,0
0.5553,-1.208515E-05,8.3295,0,0.5553,-1.779202E-05,8.3295,0
0.5562,4.599069E-05,8.343,0,0.5562,4.599069E-05,8.343,0
0.5571,1.712062E-05,8.3565,0,0.5571,7.989624E-05,8.3565,0
0.558,-1.510643E-05,8.37,0,0.558,-2.014191E-06,8.37,0
0.5589,1.947051E-05,8.3835,0,0.5589,-2.450599E-05,8.3835,0
0.5598,1.477073E-05,8.397,0,0.5598,3.356985E-05,8.397,0
0.5607,-1.141375E-05,8.4105,0,0.5607,7.049668E-06,8.4105,0
0.5616,5.706874E-06,8.424,0,0.5616,-5.035477E-05,8.424,0
0.5625,-3.356985E-07,8.4375,0,0.5625,1.007095E-06,8.4375,0
0.5634,2.349889E-05,8.451,0,0.5634,1.510643E-05,8.451,0
0.5643,2.047761E-05,8.4645,0,0.5643,-5.505455E-05,8.4645,0
0.5652,-1.107805E-05,8.478,0,0.5652,-3.390555E-05,8.478,0
0.5661,-9.063859E-06,8.4915,0,0.5661,-1.443504E-05,8.4915,0
0.567,-2.551309E-05,8.505,0,0.567,-1.510643E-05,8.505,0
0.5679,1.678492E-06,8.5185,0,0.5679,4.028382E-06,8.5185,0
0.5688,1.275654E-05,8.532,0,0.5688,-1.174945E-05,8.532,0
0.5697,2.1149E-05,8.5455,0,0.5697,1.040665E-05,8.5455,0
0.5706,6.344701E-05,8.559,0,0.5706,9.399558E-06,8.559,0
0.5715,-3.021286E-06,8.5725,0,0.5715,-3.121996E-05,8.5725,0
0.5724,-9.399558E-06,8.586,0,0.5724,-4.229801E-05,8.586,0
0.5733,1.342794E-06,8.5995,0,0.5733,-7.049668E-06,8.5995,0
0.5742,-2.316319E-05,8.613,0,0.5742,-1.812772E-05,8.613,0
0.5751,-3.356985E-07,8.6265,0,0.5751,-5.505455E-05,8.6265,0
0.576,-1.275654E-05,8.64,0,0.576,-2.450599E-05,8.64,0
0.5769,-5.606165E-05,8.6535,0,0.5769,-1.040665E-05,8.6535,0
0.5778,-5.169757E-05,8.667,0,0.5778,-6.61326E-05,8.667,0
0.5787,1.678492E-05,8.6805,0,0.5787,-4.934768E-05,8.6805,0
0.5796,-2.349889E-06,8.694,0,0.5796,-1.913481E-05,8.694,0
0.5805,-1.678492E-05,8.7075,0,0.5805,-2.853437E-05,8.7075,0
0.5814,-1.779202E-05,8.721,0,0.5814,-1.577783E-05,8.721,0
0.5823,-9.063859E-06,8.7345,0,0.5823,-5.069047E-05,8.7345,0
0.5832,-1.846342E-05,8.748,0,0.5832,-1.376364E-05,8.748,0
0.5841,-2.719158E-05,8.7615,0,0.5841,2.349889E-05,8.7615,0
0.585,-1.812772E-05,8.775,0,0.585,-2.24918E-05,8.775,0
0.5859,6.042573E-06,8.7885,0,0.5859,-4.061952E-05,8.7885,0
0.5868,-2.584878E-05,8.802,0,0.5868,1.376364E-05,8.802,0
0.5877,-9.735256E-06,8.8155,0,0.5877,-2.24918E-05,8.8155,0
0.5886,1.779202E-05,8.829,0,0.5886,-7.183947E-05,8.829,0
0.5895,-2.786297E-05,8.8425,0,0.5895,-1.712062E-05,8.8425,0
0.5904,-5.740444E-05,8.856,0,0.5904,-2.18204E-05,8.856,0
0.5913,-4.666209E-05,8.8695,0,0.5913,-7.049668E-05,8.8695,0
0.5922,-4.766919E-05,8.883,0,0.5922,-5.941863E-05,8.883,0
0.5931,-5.941863E-05,8.8965,0,0.5931,-1.040665E-05,8.8965,0
0.594,-1.812772E-05,8.91,0,0.594,-2.18204E-05,8.91,0
0.5949,3.692683E-06,8.9235,0,0.5949,-3.390555E-05,8.9235,0
0.5958,5.035477E-06,8.937,0,0.5958,-5.169757E-05,8.937,0
0.5967,2.316319E-05,8.9505,0,0.5967,-2.517739E-05,8.9505,0
0.5976,1.477073E-05,8.964,0,0.5976,-7.049668E-06,8.964,0
0.5985,-2.18204E-05,8.9775,0,0.5985,-3.659113E-05,8.9775,0
0.5994,1.242084E-05,8.991,0,0.5994,-3.457694E-05,8.991,0
0.6003,1.947051E-05,9.0045,0,0.6003,1.779202E-05,9.0045,0
0.6012,2.014191E-06,9.018,0,0.6012,2.316319E-05,9.018,0
0.6021,6.042573E-06,9.0315,0,0.6021,-1.107805E-05,9.0315,0
0.603,3.021286E-06,9.045,0,0.603,5.304036E-05,9.045,0
0.6039,5.304036E-05,9.0585,0,0.6039,8.560311E-05,9.0585,0
0.6048,2.652018E-05,9.072001,0,0.6048,2.484169E-05,9.072001,0
0.6057,-3.155566E-05,9.0855,0,0.6057,-8.728161E-06,9.0855,0
0.6066,-1.007095E-05,9.099,0,0.6066,1.242084E-05,9.099,0
0.6075,-9.063859E-06,9.1125,0,0.6075,-8.392462E-06,9.1125,0
0.6084,-2.349889E-06,9.126,0,0.6084,-1.745632E-05,9.126,0
0.6093,-5.035477E-06,9.1395,0,0.6093,-4.196231E-05,9.1395,0
0.6102,-4.699779E-06,9.153,0,0.6102,-2.1149E-05,9.153,0
0.6111,2.1149E-05,9.1665,0,0.6111,2.349889E-06,9.1665,0
0.612,1.141375E-05,9.18,0,0.612,-2.517739E-05,9.18,0
0.6129,-1.510643E-05,9.1935,0,0.6129,-4.968337E-05,9.1935,0
0.6138,-2.18204E-05,9.207,0,0.6138,-1.376364E-05,9.207,0
0.6147,-1.342794E-06,9.2205,0,0.6147,-1.980621E-05,9.2205,0
0.6156,2.853437E-05,9.234,0,0.6156,-6.009003E-05,9.234,0
0.6165,7.721065E-06,9.2475,0,0.6165,1.342794E-06,9.2475,0
0.6174,-2.584878E-05,9.261,0,0.6174,8.392462E-06,9.261,0
0.6183,-3.726253E-05,9.2745,0,0.6183,-4.867628E-05,9.2745,0
0.6192,-2.652018E-05,9.288,0,0.6192,-1.812772E-05,9.288,0
0.6201,-3.793393E-05,9.3015,0,0.6201,2.450599E-05,9.3015,0
0.621,-1.510643E-05,9.315,0,0.621,-1.107805E-05,9.315,0
0.6219,-2.18204E-05,9.3285,0,0.6219,-1.980621E-05,9.3285,0
0.6228,-3.021286E-05,9.342,0,0.6228,-3.726253E-05,9.342,0
0.6237,-1.678492E-06,9.3555,0,0.6237,-1.712062E-05,9.3555,0
0.6246,-2.21561E-05,9.369,0,0.6246,-7.049668E-06,9.369,0
0.6255,-3.457694E-05,9.3825,0,0.6255,-5.169757E-05,9.3825,0
0.6264,1.309224E-05,9.396,0,0.6264,-9.567407E-05,9.396,0
0.6273,-2.24918E-05,9.4095,0,0.6273,-1.846342E-05,9.4095,0
0.6282,-1.443504E-05,9.423,0,0.6282,-1.812772E-05,9.423,0
0.6291,3.021286E-05,9.4365,0,0.6291,-6.243992E-05,9.4365,0
0.63,1.443504E-05,9.45,0,0.63,-1.644922E-05,9.45,0
0.6309,9.735256E-06,9.4635,0,0.6309,-1.443504E-05,9.4635,0
0.6318,1.107805E-05,9.477,0,0.6318,-4.565499E-05,9.477,0
0.6327,3.860533E-05,9.4905,0,0.6327,-5.001907E-05,9.4905,0
0.6336,2.349889E-06,9.504,0,0.6336,-1.376364E-05,9.504,0
0.6345,2.24918E-05,9.5175,0,0.6345,-3.726253E-05,9.5175,0
0.6354,2.450599E-05,9.531,0,0.6354,-3.826963E-05,9.531,0
0.6363,1.812772E-05,9.5445,0,0.6363,-5.203327E-05,9.5445,0
0.6372,2.685588E-06,9.558,0,0.6372,-8.392462E-06,9.558,0
0.6381,-3.088426E-05,9.5715,0,0.6381,3.356985E-07,9.5715,0
0.639,-3.121996E-05,9.585,0,0.639,-2.584878E-05,9.585,0
0.6399,-3.457694E-05,9.5985,0,0.6399,-3.726253E-05,9.5985,0
0.6408,-3.390555E-05,9.612,0,0.6408,1.779202E-05,9.612,0
0.6417,-3.390555E-05,9.6255,0,0.6417,-1.644922E-05,9.6255,0
0.6426,-3.591974E-05,9.639,0,0.6426,-9.735256E-05,9.639,0
0.6435,-2.987716E-05,9.6525,0,0.6435,-6.344701E-05,9.6525,0
0.6444,3.692683E-06,9.666,0,0.6444,-4.599069E-05,9.666,0
0.6453,1.577783E-05,9.6795,0,0.6453,-0.0001205158,9.6795,0
0.6462,-1.275654E-05,9.693,0,0.6462,-8.761731E-05,9.693,0
0.6471,-1.409934E-05,9.7065,0,0.6471,-3.457694E-05,9.7065,0
0.648,-1.913481E-05,9.72,0,0.648,-4.36408E-05,9.72,0
0.6489,-1.242084E-05,9.7335,0,0.6489,-1.040665E-05,9.7335,0
0.6498,-1.510643E-05,9.747,0,0.6498,-1.913481E-05,9.747,0
0.6507,2.28275E-05,9.7605,0,0.6507,5.807584E-05,9.7605,0
0.6516,3.121996E-05,9.774,0,0.6516,0.0001070878,9.774,0
0.6525,1.409934E-05,9.7875,0,0.6525,8.69459E-05,9.7875,0
0.6534,1.409934E-05,9.801,0,0.6534,7.217517E-05,9.801,0
0.6543,1.242084E-05,9.8145,0,0.6543,9.231708E-05,9.8145,0
0.6552,3.356985E-05,9.828,0,0.6552,4.53193E-05,9.828,0
0.6561,7.385367E-06,9.8415,0,0.6561,-2.920577E-05,9.8415,0
0.657,-2.047761E-05,9.855,0,0.657,1.040665E-05,9.855,0
0.6579,-3.659113E-05,9.8685,0,0.6579,1.644922E-05,9.8685,0
0.6588,-2.383459E-05,9.882,0,0.6588,-4.800488E-05,9.882,0
0.6597,-2.014191E-06,9.8955,0,0.6597,-4.632639E-05,9.8955,0
0.6606,-1.443504E-05,9.909,0,0.6606,-2.047761E-05,9.909,0
0.6615,4.36408E-06,9.9225,0,0.6615,-4.565499E-05,9.9225,0
0.6624,7.721065E-06,9.936,0,0.6624,-5.572595E-05,9.936,0
0.6633,6.713969E-07,9.9495,0,0.6633,-7.083238E-05,9.9495,0
0.6642,-2.685588E-05,9.963,0,0.6642,-5.136187E-05,9.963,0
0.6651,-5.337606E-05,9.976501,0,0.6651,-2.853437E-05,9.976501,0
0.666,-4.196231E-05,9.99,0,0.666,-5.069047E-05,9.99,0
0.6669,-1.510643E-05,10.0035,0,0.6669,-1.947051E-05,10.0035,0
0.6678,-5.706874E-06,10.017,0,0.6678,6.6804E-05,10.017,0
0.6687,-8.392462E-06,10.0305,0,0.6687,5.404745E-05,10.0305,0
0.6696,3.826963E-05,10.044,0,0.6696,1.544213E-05,10.044,0
0.6705,1.779202E-05,10.0575,0,0.6705,6.277562E-05,10.0575,0
0.6714,2.584878E-05,10.071,0,0.6714,7.150377E-05,10.071,0
0.6723,-1.678492E-06,10.0845,0,0.6723,1.712062E-05,10.0845,0
0.6732,-4.46479E-05,10.098,0,0.6732,9.735256E-06,10.098,0
0.6741,-4.934768E-05,10.1115,0,0.6741,9.063859E-06,10.1115,0
0.675,-2.887007E-05,10.125,0,0.675,-6.042573E-06,10.125,0
0.6759,-2.517739E-05,10.1385,0,0.6759,-1.544213E-05,10.1385,0
0.6768,-8.392462E-06,10.152,0,0.6768,-5.404745E-05,10.152,0
0.6777,-5.975433E-05,10.1655,0,0.6777,-6.61326E-05,10.1655,0
0.6786,-9.634547E-05,10.179,0,0.6786,-6.344701E-05,10.179,0
0.6795,-5.069047E-05,10.1925,0,0.6795,-6.109713E-05,10.1925,0
0.6804,-1.275654E-05,10.206,0,0.6804,-7.687495E-05,10.206,0
0.6813,1.712062E-05,10.2195,0,0.6813,-3.390555E-05,10.2195,0
0.6822,8.728161E-06,10.233,0,0.6822,-4.33051E-05,10.233,0
0.6831,5.706874E-06,10.2465,0,0.6831,-7.351797E-05,10.2465,0
0.684,1.510643E-05,10.26,0,0.684,-1.275654E-05,10.26,0
0.6849,3.088426E-05,10.2735,0,0.6849,2.383459E-05,10.2735,0
0.6858,1.174945E-05,10.287,0,0.6858,-5.069047E-05,10.287,0
0.6867,-1.577783E-05,10.3005,0,0.6867,-4.968337E-05,10.3005,0
0.6876,-9.063859E-06,10.314,0,0.6876,-6.713969E-07,10.314,0
0.6885,-4.36408E-06,10.3275,0,0.6885,-1.846342E-05,10.3275,0
0.6894,-9.063859E-06,10.341,0,0.6894,-3.021286E-05,10.341,0
0.6903,3.692683E-06,10.3545,0,0.6903,-3.457694E-05,10.3545,0
0.6912,-5.706874E-06,10.368,0,0.6912,-9.063859E-06,10.368,0
0.6921,9.399558E-06,10.3815,0,0.6921,9.063859E-06,10.3815,0
0.693,2.1149E-05,10.395,0,0.693,-3.625543E-05,10.395,0
0.6939,1.040665E-05,10.4085,0,0.6939,-5.706874E-05,10.4085,0
0.6948,-2.014191E-06,10.422,0,0.6948,-4.028382E-06,10.422,0
0.6957,5.035477E-05,10.4355,0,0.6957,-1.644922E-05,10.4355,0
0.6966,6.411841E-05,10.449,0,0.6966,-8.82887E-05,10.449,0
0.6975,1.510643E-05,10.4625,0,0.6975,-5.270466E-05,10.4625,0
0.6984,-1.376364E-05,10.476,0,0.6984,-5.740444E-05,10.476,0
0.6993,1.678492E-06,10.4895,0,0.6993,-9.399557E-05,10.4895,0
0.7002,3.021286E-05,10.503,0,0.7002,-8.224613E-05,10.503,0
0.7011,-9.735256E-06,10.5165,0,0.7011,-3.659113E-05,10.5165,0
0.702,-6.713969E-07,10.53,0,0.702,-3.927672E-05,10.53,0
0.7029,-2.719158E-05,10.5435,0,0.7029,-1.040665E-05,10.5435,0
0.7038,-4.733349E-05,10.557,0,0.7038,-6.378271E-06,10.557,0
0.7047,-3.256275E-05,10.5705,0,0.7047,2.24918E-05,10.5705,0
0.7056,-4.095522E-05,10.584,0,0.7056,1.376364E-05,10.584,0
0.7065,-4.162661E-05,10.5975,0,0.7065,-3.994812E-05,10.5975,0
0.7074,-1.779202E-05,10.611,0,0.7074,-4.095522E-05,10.611,0
0.7083,1.275654E-05,10.6245,0,0.7083,1.577783E-05,10.6245,0
0.7092,-1.141375E-05,10.638,0,0.7092,1.242084E-05,10.638,0
0.7101,-3.356985E-07,10.6515,0,0.7101,-5.337606E-05,10.6515,0
0.711,5.035477E-06,10.665,0,0.711,2.853437E-05,10.665,0
0.7119,-1.577783E-05,10.6785,0,0.7119,5.975433E-05,10.6785,0
0.7128,-1.879912E-05,10.692,0,0.7128,1.779202E-05,10.692,0
0.7137,-4.263371E-05,10.7055,0,0.7137,4.095522E-05,10.7055,0
0.7146,-5.673304E-05,10.719,0,0.7146,4.061952E-05,10.719,0
0.7155,-4.632639E-05,10.7325,0,0.7155,-1.678492E-06,10.7325,0
0.7164,-1.107805E-05,10.746,0,0.7164,-4.46479E-05,10.746,0
0.7173,-3.591974E-05,10.7595,0,0.7173,-0.0001373007,10.7595,0
0.7182,6.378271E-06,10.773,0,0.7182,-0.0001420005,10.773,0
0.7191,6.478981E-05,10.7865,0,0.7191,-0.0001148089,10.7865,0
0.72,3.558404E-05,10.8,0,0.72,-0.0001433432,10.8,0
0.7209,1.577783E-05,10.8135,0,0.7209,-0.0001000381,10.8135,0
0.7218,-1.141375E-05,10.827,0,0.7218,3.356985E-06,10.827,0
0.7227,-1.980621E-05,10.8405,0,0.7227,4.46479E-05,10.8405,0
0.7236,-1.174945E-05,10.854,0,0.7236,4.699779E-06,10.854,0
0.7245,-1.712062E-05,10.8675,0,0.7245,0.0001044022,10.8675,0
0.7254,-1.980621E-05,10.881,0,0.7254,0.0001510643,10.881,0
0.7263,-1.107805E-05,10.8945,0,0.7263,0.0001164874,10.8945,0
0.7272,-2.484169E-05,10.908,0,0.7272,0.0001148089,10.908,0
0.7281,-3.692683E-06,10.9215,0,0.7281,0.0001044022,10.9215,0
0.729,-2.383459E-05,10.935,0,0.729,3.390555E-05,10.935,0
0.7299,-3.793393E-05,10.9485,0,0.7299,-1.443504E-05,10.9485,0
0.7308,-2.517739E-05,10.962,0,0.7308,-3.994812E-05,10.962,0
0.7317,-4.867628E-05,10.9755,0,0.7317,5.035477E-06,10.9755,0
0.7326,-9.164568E-05,10.989,0,0.7326,1.913481E-05,10.989,0
0.7335,-7.083238E-05,11.0025,0,0.7335,-1.779202E-05,11.0025,0
0.7344,1.913481E-05,11.016,0,0.7344,-5.539025E-05,11.016,0
0.7353,1.040665E-05,11.0295,0,0.7353,-2.18204E-05,11.0295,0
0.7362,2.652018E-05,11.043,0,0.7362,-5.404745E-05,11.043,0
0.7371,9.097429E-05,11.0565,0,0.7371,-0.0001111162,11.0565,0
0.738,8.72816E-05,11.07,0,0.738,-4.46479E-05,11.07,0
0.7389,7.385367E-05,11.0835,0,0.7389,-3.793393E-05,11.0835,0
0.7398,4.968337E-05,11.097,0,0.7398,-6.814679E-05,11.097,0
0.7407,3.659113E-05,11.1105,0,0.7407,-1.980621E-05,11.1105,0
0.7416,1.577783E-05,11.124,0,0.7416,1.007095E-05,11.124,0
0.7425,9.735256E-06,11.1375,0,0.7425,-2.786297E-05,11.1375,0
0.7434,0,11.151,0,0.7434,-8.258183E-05,11.151,0
0.7443,5.371176E-06,11.1645,0,0.7443,-0.0001144732,11.1645,0
0.7452,3.356985E-07,11.178,0,0.7452,-4.028382E-05,11.178,0
0.7461,9.063859E-06,11.1915,0,0.7461,-6.713969E-06,11.1915,0
0.747,-5.371176E-06,11.205,0,0.747,-5.136187E-05,11.205,0
0.7479,5.035477E-06,11.2185,0,0.7479,-7.553216E-05,11.2185,0
0.7488,-5.706874E-06,11.232,0,0.7488,-1.846342E-05,11.232,0
0.7497,-3.659113E-05,11.2455,0,0.7497,-3.121996E-05,11.2455,0
0.7506,-3.457694E-05,11.259,0,0.7506,-8.224613E-05,11.259,0
0.7515,-2.484169E-05,11.2725,0,0.7515,-8.728161E-06,11.2725,0
0.7524,-1.242084E-05,11.286,0,0.7524,-9.063859E-06,11.286,0
0.7533,-1.443504E-05,11.2995,0,0.7533,-5.035477E-05,11.2995,0
0.7542,-3.356985E-06,11.313,0,0.7542,1.678492E-06,11.313,0
0.7551,-2.786297E-05,11.3265,0,0.7551,3.994812E-05,11.3265,0
0.756,-2.349889E-06,11.34,0,0.756,1.443504E-05,11.34,0
0.7569,6.378271E-06,11.3535,0,0.7569,1.812772E-05,11.3535,0
0.7578,-2.417029E-05,11.367,0,0.7578,-3.994812E-05,11.367,0
0.7587,-1.947051E-05,11.3805,0,0.7587,-1.376364E-05,11.3805,0
0.7596,-2.316319E-05,11.394,0,0.7596,-1.107805E-05,11.394,0
0.7605,-2.18204E-05,11.4075,0,0.7605,-2.719158E-05,11.4075,0
0.7614,-6.378271E-06,11.421,0,0.7614,-6.143282E-05,11.421,0
0.7623,9.735256E-06,11.4345,0,0.7623,-2.316319E-05,11.4345,0
0.7632,5.404745E-05,11.448,0,0.7632,-3.256275E-05,11.448,0
0.7641,4.46479E-05,11.4615,0,0.7641,-8.090334E-05,11.4615,0
0.765,3.189136E-05,11.475,0,0.765,-3.356985E-05,11.475,0
0.7659,3.356985E-07,11.4885,0,0.7659,1.242084E-05,11.4885,0
0.7668,-8.056763E-06,11.502,0,0.7668,-2.920577E-05,11.502,0
0.7677,-6.6804E-05,11.5155,0,0.7677,-6.64683E-05,11.5155,0
0.7686,-5.136187E-05,11.529,0,0.7686,-3.659113E-05,11.529,0
0.7695,-9.063859E-06,11.5425,0,0.7695,-4.968337E-05,11.5425,0
0.7704,-3.524834E-05,11.556,0,0.7704,-6.915389E-05,11.556,0
0.7713,-2.786297E-05,11.5695,0,0.7713,-9.903105E-05,11.5695,0
0.7722,1.443504E-05,11.583,0,0.7722,-4.162661E-05,11.583,0
0.7731,-1.779202E-05,11.5965,0,0.7731,1.712062E-05,11.5965,0
0.774,-3.189136E-05,11.61,0,0.774,-2.28275E-05,11.61,0
0.7749,-1.544213E-05,11.6235,0,0.7749,-3.356985E-06,11.6235,0
0.7758,-1.107805E-05,11.637,0,0.7758,0.0001134661,11.637,0
0.7767,1.409934E-05,11.6505,0,0.7767,0.0001420005,11.6505,0
0.7776,1.980621E-05,11.664,0,0.7776,0.0001258869,11.664,0
0.7785,-9.735256E-06,11.6775,0,0.7785,0.0001540856,11.6775,0
0.7794,0,11.691,0,0.7794,0.0001067521,11.691,0
0.7803,-2.081331E-05,11.7045,0,0.7803,1.007095E-06,11.7045,0
0.7812,2.920577E-05,11.718,0,0.7812,-3.524834E-05,11.718,0
0.7821,1.678492E-05,11.7315,0,0.7821,-1.376364E-05,11.7315,0
0.783,-2.316319E-05,11.745,0,0.783,-2.987716E-05,11.745,0
0.7839,-2.450599E-05,11.7585,0,0.7839,-4.061952E-05,11.7585,0
0.7848,-1.107805E-05,11.772,0,0.7848,-5.639734E-05,11.772,0
0.7857,-3.323415E-05,11.7855,0,0.7857,-3.356985E-05,11.7855,0
0.7866,-7.553216E-05,11.799,0,0.7866,1.980621E-05,11.799,0
0.7875,-8.459602E-05,11.8125,0,0.7875,-2.987716E-05,11.8125,0
0.7884,-4.33051E-05,11.826,0,0.7884,-7.754635E-05,11.826,0
0.7893,-2.383459E-05,11.8395,0,0.7893,-2.853437E-05,11.8395,0
0.7902,-1.409934E-05,11.853,0,0.7902,-5.740444E-05,11.853,0
0.7911,1.443504E-05,11.8665,0,0.7911,-0.0001003738,11.8665,0
0.792,5.539025E-05,11.88,0,0.792,-4.095522E-05,11.88,0
0.7929,0.0001050736,11.8935,0,0.7929,-2.316319E-05,11.8935,0
0.7938,7.653925E-05,11.907,0,0.7938,-8.69459E-05,11.907,0
0.7947,-1.107805E-05,11.9205,0,0.7947,-4.061952E-05,11.9205,0
0.7956,-2.920577E-05,11.934,0,0.7956,1.443504E-05,11.934,0
0.7965,-4.53193E-05,11.9475,0,0.7965,3.021286E-05,11.9475,0
0.7974,-4.061952E-05,11.961,0,0.7974,-4.028382E-06,11.961,0
0.7983,-2.24918E-05,11.9745,0,0.7983,-3.323415E-05,11.9745,0
0.7992,-2.18204E-05,11.988,0,0.7992,-6.042573E-06,11.988,0
0.8001,-3.558404E-05,12.0015,0,0.8001,-2.349889E-06,12.0015,0
0.801,-9.903105E-05,12.015,0,0.801,-5.471885E-05,12.015,0
0.8019,-0.0001171588,12.0285,0,0.8019,-4.229801E-05,12.0285,0
0.8028,-7.553216E-05,12.042,0,0.8028,1.577783E-05,12.042,0
0.8037,-3.088426E-05,12.0555,0,0.8037,3.356985E-07,12.0555,0
0.8046,1.510643E-05,12.069,0,0.8046,-3.860533E-05,12.069,0
0.8055,6.378271E-06,12.0825,0,0.8055,1.309224E-05,12.0825,0
0.8064,8.96315E-05,12.096,0,0.8064,3.591974E-05,12.096,0
0.8073,0.0001030594,12.1095,0,0.8073,-4.599069E-05,12.1095,0
0.8082,2.652018E-05,12.123,0,0.8082,-5.136187E-05,12.123,0
0.8091,2.383459E-05,12.1365,0,0.8091,3.021286E-06,12.1365,0
0.81,2.24918E-05,12.15,0,0.81,-1.644922E-05,12.15,0
0.8109,-6.378271E-06,12.1635,0,0.8109,-2.920577E-05,12.1635,0
0.8118,4.263371E-05,12.177,0,0.8118,-1.275654E-05,12.177,0
0.8127,5.673304E-05,12.1905,0,0.8127,3.692683E-06,12.1905,0
0.8136,1.376364E-05,12.204,0,0.8136,3.860533E-05,12.204,0
0.8145,1.242084E-05,12.2175,0,0.8145,-1.174945E-05,12.2175,0
0.8154,1.678492E-06,12.231,0,0.8154,-5.774014E-05,12.231,0
0.8163,1.208515E-05,12.2445,0,0.8163,-2.047761E-05,12.2445,0
0.8172,-3.994812E-05,12.258,0,0.8172,-3.021286E-05,12.258,0
0.8181,-2.316319E-05,12.2715,0,0.8181,-8.426032E-05,12.2715,0
0.819,-1.342794E-05,12.285,0,0.819,-2.551309E-05,12.285,0
0.8199,-4.028382E-05,12.2985,0,0.8199,-6.109713E-05,12.2985,0
0.8208,-4.061952E-05,12.312,0,0.8208,-0.0001037308,12.312,0
0.8217,-4.699779E-05,12.3255,0,0.8217,-0.0001030594,12.3255,0
0.8226,-6.61326E-05,12.339,0,0.8226,-6.51255E-05,12.339,0
0.8235,-4.53193E-05,12.3525,0,0.8235,-4.39765E-05,12.3525,0
0.8244,-2.584878E-05,12.366,0,0.8244,-5.136187E-05,12.366,0
0.8253,-3.323415E-05,12.3795,0,0.8253,-6.378271E-05,12.3795,0
0.8262,-3.356985E-07,12.393,0,0.8262,2.819867E-05,12.393,0
0.8271,5.035477E-06,12.4065,0,0.8271,8.795301E-05,12.4065,0
0.828,3.021286E-06,12.42,0,0.828,4.934768E-05,12.42,0
0.8289,1.678492E-06,12.4335,0,0.8289,2.484169E-05,12.4335,0
0.8298,-2.349889E-06,12.447,0,0.8298,5.941863E-05,12.447,0
0.8307,1.779202E-05,12.4605,0,0.8307,4.666209E-05,12.4605,0
0.8316,2.652018E-05,12.474,0,0.8316,6.713969E-07,12.474,0
0.8325,2.28275E-05,12.4875,0,0.8325,3.994812E-05,12.4875,0
0.8334,9.735256E-06,12.501,0,0.8334,2.18204E-05,12.501,0
0.8343,-4.196231E-05,12.5145,0,0.8343,-3.860533E-05,12.5145,0
0.8352,-2.316319E-05,12.528,0,0.8352,-4.599069E-05,12.528,0
0.8361,3.692683E-06,12.5415,0,0.8361,-4.699779E-06,12.5415,0
0.837,-1.107805E-05,12.555,0,0.837,1.007095E-06,12.555,0
0.8379,-1.007095E-05,12.5685,0,0.8379,-1.544213E-05,12.5685,0
0.8388,3.692683E-06,12.582,0,0.8388,-4.834058E-05,12.582,0
0.8397,-1.577783E-05,12.5955,0,0.8397,-8.291753E-05,12.5955,0
0.8406,-4.229801E-05,12.609,0,0.8406,-0.0001164874,12.609,0
0.8415,-3.860533E-05,12.6225,0,0.8415,-0.0001779202,12.6225,0
0.8424,-5.706874E-06,12.636,0,0.8424,-0.0001977264,12.636,0
0.8433,-4.36408E-06,12.6495,0,0.8433,-0.0001201801,12.6495,0
0.8442,2.383459E-05,12.663,0,0.8442,-8.761731E-05,12.663,0
0.8451,5.639734E-05,12.6765,0,0.8451,-7.083238E-05,12.6765,0
0.846,3.054856E-05,12.69,0,0.846,8.224613E-05,12.69,0
0.8469,5.941863E-05,12.7035,0,0.8469,0.0001963836,12.7035,0
0.8478,3.927672E-05,12.717,0,0.8478,0.0001658351,12.717,0
0.8487,-1.007095E-05,12.7305,0,0.8487,0.0001228656,12.7305,0
0.8496,-1.644922E-05,12.744,0,0.8496,7.418937E-05,12.744,0
0.8505,-2.551309E-05,12.7575,0,0.8505,3.289845E-05,12.7575,0
0.8514,-3.927672E-05,12.771,0,0.8514,-1.443504E-05,12.771,0
0.8523,-5.203327E-05,12.7845,0,0.8523,-4.061952E-05,12.7845,0
0.8532,-8.392462E-06,12.798,0,0.8532,-1.007095E-06,12.798,0
0.8541,3.424125E-05,12.8115,0,0.8541,3.457694E-05,12.8115,0
0.855,1.577783E-05,12.825,0,0.855,7.049668E-06,12.825,0
0.8559,4.229801E-05,12.8385,0,0.8559,-4.129091E-05,12.8385,0
0.8568,3.289845E-05,12.852,0,0.8568,1.409934E-05,12.852,0
0.8577,-5.706874E-06,12.8655,0,0.8577,2.450599E-05,12.8655,0
0.8586,1.544213E-05,12.879,0,0.8586,-8.392462E-06,12.879,0
0.8595001,2.584878E-05,12.8925,0,0.8595001,6.51255E-05,12.8925,0
0.8604,7.385367E-06,12.906,0,0.8604,3.121996E-05,12.906,0
0.8613,3.692683E-06,12.9195,0,0.8613,-4.33051E-05,12.9195,0
0.8622,-4.565499E-05,12.933,0,0.8622,-3.927672E-05,12.933,0
0.8631,-3.256275E-05,12.9465,0,0.8631,-2.383459E-05,12.9465,0
0.864,-2.349889E-05,12.96,0,0.864,-4.196231E-05,12.96,0
0.8649,-1.846342E-05,12.9735,0,0.8649,-5.404745E-05,12.9735,0
0.8658,-1.443504E-05,12.987,0,0.8658,-9.835965E-05,12.987,0
0.8667,-1.174945E-05,13.0005,0,0.8667,-8.291753E-05,13.0005,0
0.8676,5.975433E-05,13.014,0,0.8676,-9.164568E-05,13.014,0
0.8685,6.478981E-05,13.0275,0,0.8685,-8.89601E-05,13.0275,0
0.8694,-2.584878E-05,13.041,0,0.8694,-0.0001195087,13.041,0
0.8703,-0.0001111162,13.0545,0,0.8703,-6.411841E-05,13.0545,0
0.8712,-0.0001279011,13.068,0,0.8712,-4.867628E-05,13.068,0
0.8721,-9.869535E-05,13.0815,0,0.8721,-0.0001010452,13.0815,0
0.873,-3.155566E-05,13.095,0,0.873,-2.987716E-05,13.095,0
0.8739,5.001907E-05,13.1085,0,0.8739,2.920577E-05,13.1085,0
0.8748,2.316319E-05,13.122,0,0.8748,-1.846342E-05,13.122,0
0.8757,6.378271E-06,13.1355,0,0.8757,-1.712062E-05,13.1355,0
0.8766,-4.733349E-05,13.149,0,0.8766,7.385367E-06,13.149,0
0.8775,-0.0001047379,13.1625,0,0.8775,-3.256275E-05,13.1625,0
0.8784,-9.500267E-05,13.176,0,0.8784,-3.021286E-05,13.176,0
0.8793,-6.009003E-05,13.1895,0,0.8793,-3.927672E-05,13.1895,0
0.8802,-3.356985E-05,13.203,0,0.8802,-2.349889E-06,13.203,0
0.8811,-1.846342E-05,13.2165,0,0.8811,3.793393E-05,13.2165,0
0.882,3.894102E-05,13.23,0,0.882,-1.477073E-05,13.23,0
0.8829,9.768826E-05,13.2435,0,0.8829,-1.745632E-05,13.2435,0
0.8838,1.007095E-06,13.257,0,0.8838,4.49836E-05,13.257,0
0.8847,-3.591974E-05,13.2705,0,0.8847,1.174945E-05,13.2705,0
0.8856,-1.644922E-05,13.284,0,0.8856,-5.404745E-05,13.284,0
0.8865,-1.409934E-05,13.2975,0,0.8865,3.692683E-06,13.2975,0
0.8874,1.577783E-05,13.311,0,0.8874,-2.383459E-05,13.311,0
0.8883,3.021286E-05,13.3245,0,0.8883,-6.814679E-05,13.3245,0
0.8892,2.047761E-05,13.338,0,0.8892,-2.652018E-05,13.338,0
0.8901,1.275654E-05,13.3515,0,0.8901,7.721065E-06,13.3515,0
0.891,2.752728E-05,13.365,0,0.891,-9.063859E-06,13.365,0
0.8919,3.155566E-05,13.3785,0,0.8919,-2.652018E-05,13.3785,0
0.8928,1.040665E-05,13.392,0,0.8928,-3.256275E-05,13.392,0
0.8937,8.392462E-06,13.4055,0,0.8937,-2.18204E-05,13.4055,0
0.8946,2.24918E-05,13.419,0,0.8946,-3.994812E-05,13.419,0
0.8955,-4.565499E-05,13.4325,0,0.8955,-5.606165E-05,13.4325,0
0.8964,-5.337606E-05,13.446,0,0.8964,-5.001907E-05,13.446,0
0.8973,-1.443504E-05,13.4595,0,0.8973,2.450599E-05,13.4595,0
0.8982,-2.584878E-05,13.473,0,0.8982,2.450599E-05,13.473,0
0.8991,-3.356985E-07,13.4865,0,0.8991,-4.800488E-05,13.4865,0
0.9,-1.644922E-05,13.5,0,0.9,-1.644922E-05,13.5,0
0.9009,-1.443504E-05,13.5135,0,0.9009,9.735256E-06,13.5135,0
0.9018,-7.049668E-06,13.527,0,0.9018,-4.901198E-05,13.527,0
0.9027,-3.793393E-05,13.5405,0,0.9027,-2.417029E-05,13.5405,0
0.9036,-1.712062E-05,13.554,0,0.9036,9.735256E-06,13.554,0
0.9045,-1.678492E-05,13.5675,0,0.9045,-7.385367E-05,13.5675,0
0.9054,-7.721065E-06,13.581,0,0.9054,-9.365987E-05,13.581,0
0.9063,-4.766919E-05,13.5945,0,0.9063,-0.0001242084,13.5945,0
0.9072,-3.424125E-05,13.608,0,0.9072,-5.572595E-05,13.608,0
0.9081,3.054856E-05,13.6215,0,0.9081,-1.678492E-06,13.6215,0
0.909,4.53193E-05,13.635,0,0.909,-1.678492E-06,13.635,0
0.9099,2.887007E-05,13.6485,0,0.9099,2.752728E-05,13.6485,0
0.9108,1.577783E-05,13.662,0,0.9108,0.0001420005,13.662,0
0.9117,1.510643E-05,13.6755,0,0.9117,0.0001265583,13.6755,0
0.9126,3.692683E-06,13.689,0,0.9126,1.712062E-05,13.689,0
0.9135,-4.699779E-06,13.7025,0,0.9135,-2.853437E-05,13.7025,0
0.9144,-1.980621E-05,13.716,0,0.9144,-0.0001003738,13.716,0
0.9153,-1.007095E-05,13.7295,0,0.9153,-0.0001379721,13.7295,0
0.9162,-2.349889E-05,13.743,0,0.9162,-0.0001027237,13.743,0
0.9171,-1.980621E-05,13.7565,0,0.9171,-5.908293E-05,13.7565,0
0.918,5.706874E-06,13.77,0,0.918,-2.450599E-05,13.77,0
0.9189,-6.042573E-06,13.7835,0,0.9189,3.323415E-05,13.7835,0
0.9198,1.040665E-05,13.797,0,0.9198,0.0001164874,13.797,0
0.9207,9.063859E-06,13.8105,0,0.9207,0.0002135042,13.8105,0
0.9216,-3.927672E-05,13.824,0,0.9216,0.0001040665,13.824,0
0.9225,-1.678492E-05,13.8375,0,0.9225,2.652018E-05,13.8375,0
0.9234,9.735256E-06,13.851,0,0.9234,1.678492E-06,13.851,0
0.9243,7.385367E-06,13.8645,0,0.9243,3.659113E-05,13.8645,0
0.9252,-1.275654E-05,13.878,0,0.9252,1.510643E-05,13.878,0
0.9261,1.812772E-05,13.8915,0,0.9261,-4.196231E-05,13.8915,0
0.927,4.699779E-05,13.905,0,0.927,5.035477E-06,13.905,0
0.9279,3.860533E-05,13.9185,0,0.9279,-2.18204E-05,13.9185,0
0.9288,3.457694E-05,13.932,0,0.9288,-6.78111E-05,13.932,0
0.9297,4.800488E-05,13.9455,0,0.9297,-2.349889E-05,13.9455,0
0.9306,2.21561E-05,13.959,0,0.9306,-3.692683E-06,13.959,0
0.9315,1.007095E-05,13.9725,0,0.9315,-2.584878E-05,13.9725,0
0.9324,2.349889E-06,13.986,0,0.9324,-8.358892E-05,13.986,0
0.9333,-1.510643E-05,13.9995,0,0.9333,-0.0001007095,13.9995,0
0.9342,2.349889E-06,14.013,0,0.9342,-7.284657E-05,14.013,0
0.9351,-8.392462E-06,14.0265,0,0.9351,-8.96315E-05,14.0265,0
0.936,-4.599069E-05,14.04,0,0.936,-0.0001218585,14.04,0
0.9369,-5.606165E-05,14.0535,0,0.9369,-0.0001245441,14.0535,0
0.9378,-3.793393E-05,14.067,0,0.9378,-5.774014E-05,14.067,0
0.9387,7.721065E-06,14.0805,0,0.9387,-3.189136E-05,14.0805,0
0.9396001,4.263371E-05,14.094,0,0.9396001,-5.304036E-05,14.094,0
0.9405,6.378271E-06,14.1075,0,0.9405,5.874724E-05,14.1075,0
0.9414001,-3.256275E-05,14.121,0,0.9414001,0.0001252155,14.121,0
0.9423,-0.0001299153,14.1345,0,0.9423,2.450599E-05,14.1345,0
0.9432001,-0.0001000381,14.148,0,0.9432001,1.712062E-05,14.148,0
0.9441,0,14.1615,0,0.9441,4.33051E-05,14.1615,0
0.9450001,2.1149E-05,14.175,0,0.9450001,2.584878E-05,14.175,0
0.9459,2.719158E-05,14.1885,0,0.9459,1.409934E-05,14.1885,0
0.9468,1.879912E-05,14.202,0,0.9468,-3.927672E-05,14.202,0
0.9477,-2.920577E-05,14.2155,0,0.9477,-2.517739E-05,14.2155,0
0.9486,-2.719158E-05,14.229,0,0.9486,9.063859E-06,14.229,0
0.9495,2.1149E-05,14.2425,0,0.9495,-3.927672E-05,14.2425,0
0.9504,1.947051E-05,14.256,0,0.9504,-6.143282E-05,14.256,0
0.9513,-2.853437E-05,14.2695,0,0.9513,-4.028382E-06,14.2695,0
0.9522,-6.713969E-06,14.283,0,0.9522,-7.721065E-06,14.283,0
0.9531,1.443504E-05,14.2965,0,0.9531,-5.941863E-05,14.2965,0
0.954,-7.553216E-05,14.31,0,0.954,-1.107805E-05,14.31,0
0.9549,-8.392462E-05,14.3235,0,0.9549,7.721065E-06,14.3235,0
0.9558,-1.947051E-05,14.337,0,0.9558,-5.304036E-05,14.337,0
0.9567,4.129091E-05,14.3505,0,0.9567,-3.054856E-05,14.3505,0
0.9576,8.157473E-05,14.364,0,0.9576,1.342794E-06,14.364,0
0.9585,0.0001151446,14.3775,0,0.9585,-4.968337E-05,14.3775,0
0.9594,0.0001467002,14.391,0,0.9594,-0.0001097734,14.391,0
0.9603,0.0001094377,14.4045,0,0.9603,-0.0001379721,14.4045,0
0.9612,-2.21561E-05,14.418,0,0.9612,-0.0001104448,14.418,0
0.9621,-0.0001712062,14.4315,0,0.9621,-7.620356E-05,14.4315,0
0.963,-9.063859E-05,14.445,0,0.963,-6.311131E-05,14.445,0
0.9639,-9.063859E-06,14.4585,0,0.9639,-2.383459E-05,14.4585,0
0.9648,-2.954147E-05,14.472,0,0.9648,6.61326E-05,14.472,0
0.9657,3.692683E-06,14.4855,0,0.9657,6.076142E-05,14.4855,0
0.9666,7.687495E-05,14.499,0,0.9666,4.901198E-05,14.499,0
0.9675,2.887007E-05,14.5125,0,0.9675,5.706874E-05,14.5125,0
0.9684,-6.042573E-06,14.526,0,0.9684,-1.443504E-05,14.526,0
0.9693,-6.076142E-05,14.5395,0,0.9693,-3.491264E-05,14.5395,0
0.9702,-6.948959E-05,14.553,0,0.9702,-5.706874E-06,14.553,0
0.9711,-2.18204E-05,14.5665,0,0.9711,3.491264E-05,14.5665,0
0.972,-4.263371E-05,14.58,0,0.972,2.349889E-06,14.58,0
0.9729,1.107805E-05,14.5935,0,0.9729,-1.074235E-05,14.5935,0
0.9738,0.0001530785,14.607,0,0.9738,-3.927672E-05,14.607,0
0.9747,8.560311E-05,14.6205,0,0.9747,-3.726253E-05,14.6205,0
0.9756,3.390555E-05,14.634,0,0.9756,-7.351797E-05,14.634,0
0.9765,5.471885E-05,14.6475,0,0.9765,-8.96315E-05,14.6475,0
0.9774,1.745632E-05,14.661,0,0.9774,-0.0001087663,14.661,0
0.9783,-6.210422E-05,14.6745,0,0.9783,-5.505455E-05,14.6745,0
0.9792,-0.0002044404,14.688,0,0.9792,-4.39765E-05,14.688,0
0.9801,-0.0002554666,14.7015,0,0.9801,-4.599069E-05,14.7015,0
0.981,-0.0001708705,14.715,0,0.981,7.754635E-05,14.715,0
0.9819,-6.210422E-05,14.7285,0,0.9819,0.0001040665,14.7285,0
0.9828,-2.316319E-05,14.742,0,0.9828,-8.392462E-06,14.742,0
0.9837,-1.913481E-05,14.7555,0,0.9837,-7.788205E-05,14.7555,0
0.9846,1.040665E-05,14.769,0,0.9846,-4.766919E-05,14.769,0
0.9855,-3.927672E-05,14.7825,0,0.9855,-5.841154E-05,14.7825,0
0.9864,-8.392462E-05,14.796,0,0.9864,-3.793393E-05,14.796,0
0.9873,-5.203327E-05,14.8095,0,0.9873,-4.46479E-05,14.8095,0
0.9882,-9.063859E-06,14.823,0,0.9882,3.591974E-05,14.823,0
0.9891,-1.577783E-05,14.8365,0,0.9891,8.996719E-05,14.8365,0
0.99,-7.385367E-06,14.85,0,0.99,2.349889E-05,14.85,0
0.9909,2.584878E-05,14.8635,0,0.9909,-1.376364E-05,14.8635,0
0.9918,4.666209E-05,14.877,0,0.9918,4.196231E-05,14.877,0
0.9927,6.344701E-05,14.8905,0,0.9927,1.712062E-05,14.8905,0
0.9936,5.606165E-05,14.904,0,0.9936,-4.599069E-05,14.904,0
0.9945,6.411841E-05,14.9175,0,0.9945,-4.028382E-05,14.9175,0
0.9954,5.539025E-05,14.931,0,0.9954,-8.560311E-05,14.931,0
0.9963,4.263371E-05,14.9445,0,0.9963,-0.0001795987,14.9445,0
0.9972,-1.644922E-05,14.958,0,0.9972,-0.0001923552,14.958,0
0.9981,-3.054856E-05,14.9715,0,0.9981,-0.000126894,14.9715,0
0.999,-8.627451E-05,14.985,0,0.999,-6.74754E-05,14.985,0
0.9999,-0.0001144732,14.9985,0,0.9999,5.169757E-05,14.9985,0
1.0008,-2.349889E-05,15.012,0,1.0008,0.000224918,15.012,0
1.0017,3.894102E-05,15.0255,0,1.0017,0.0002601663,15.0255,0
1.0026,2.316319E-05,15.039,0,1.0026,0.0002198825,15.039,0
1.0035,3.155566E-05,15.0525,0,1.0035,0.0001114519,15.0525,0
1.0044,5.941863E-05,15.066,0,1.0044,1.376364E-05,15.066,0
1.0053,1.779202E-05,15.0795,0,1.0053,2.1149E-05,15.0795,0
1.0062,-8.392462E-06,15.093,0,1.0062,-5.706874E-06,15.093,0
1.0071,1.007095E-06,15.1065,0,1.0071,-7.385367E-05,15.1065,0
1.008,2.618448E-05,15.12,0,1.008,-1.544213E-05,15.12,0
1.0089,3.927672E-05,15.1335,0,1.0089,1.712062E-05,15.1335,0
1.0098,1.644922E-05,15.147,0,1.0098,-7.016098E-05,15.147,0
1.0107,4.263371E-05,15.1605,0,1.0107,-8.627451E-05,15.1605,0
1.0116,-1.242084E-05,15.174,0,1.0116,-4.33051E-05,15.174,0
1.0125,-5.807584E-05,15.1875,0,1.0125,-6.277562E-05,15.1875,0
1.0134,-2.383459E-05,15.201,0,1.0134,-8.89601E-05,15.201,0
1.0143,-1.644922E-05,15.2145,0,1.0143,-9.668116E-05,15.2145,0
1.0152,3.692683E-06,15.228,0,1.0152,-6.009003E-05,15.228,0
1.0161,3.994812E-05,15.2415,0,1.0161,-2.349889E-05,15.2415,0
1.017,1.577783E-05,15.255,0,1.017,-6.61326E-05,15.255,0
1.0179,2.24918E-05,15.2685,0,1.0179,-8.661021E-05,15.2685,0
1.0188,2.21561E-05,15.282,0,1.0188,3.356985E-06,15.282,0
1.0197,4.196231E-05,15.2955,0,1.0197,8.728161E-06,15.2955,0
1.0206,1.141375E-05,15.309,0,1.0206,-4.229801E-05,15.309,0
1.0215,1.544213E-05,15.3225,0,1.0215,2.28275E-05,15.3225,0
1.0224,3.726253E-05,15.336,0,1.0224,1.779202E-05,15.336,0
1.0233,6.915389E-05,15.3495,0,1.0233,-0.000112459,15.3495,0
1.0242,7.486076E-05,15.363,0,1.0242,-0.0001309224,15.363,0
1.0251,8.023193E-05,15.3765,0,1.0251,-9.835965E-05,15.3765,0
1.026,3.021286E-06,15.39,0,1.026,-9.030289E-05,15.39,0
1.0269,-6.57969E-05,15.4035,0,1.0269,-5.136187E-05,15.4035,0
1.0278,-0.0001440146,15.417,0,1.0278,-4.968337E-05,15.417,0
1.0287,-0.0002312963,15.4305,0,1.0287,2.920577E-05,15.4305,0
1.0296,-0.0001930266,15.444,0,1.0296,0.0001242084,15.444,0
1.0305,-6.411841E-05,15.4575,0,1.0305,0.000144686,15.4575,0
1.0314,-4.061952E-05,15.471,0,1.0314,7.183947E-05,15.471,0
1.0323,-3.189136E-05,15.4845,0,1.0323,8.291753E-05,15.4845,0
1.0332,7.721065E-06,15.498,0,1.0332,1.477073E-05,15.498,0
1.0341,-1.846342E-05,15.5115,0,1.0341,-7.351797E-05,15.5115,0
1.035,-6.243992E-05,15.525,0,1.035,-5.337606E-05,15.525,0
1.0359,5.706874E-06,15.5385,0,1.0359,-4.867628E-05,15.5385,0
1.0368,6.042573E-05,15.552,0,1.0368,-0.0001117876,15.552,0
1.0377,4.095522E-05,15.5655,0,1.0377,-8.560311E-05,15.5655,0
1.0386,2.517739E-05,15.579,0,1.0386,-3.121996E-05,15.579,0
1.0395,2.887007E-05,15.5925,0,1.0395,-3.390555E-05,15.5925,0
1.0404,5.035477E-06,15.606,0,1.0404,-4.33051E-05,15.606,0
1.0413,-2.1149E-05,15.6195,0,1.0413,-1.040665E-05,15.6195,0
1.0422,-3.356985E-06,15.633,0,1.0422,7.788205E-05,15.633,0
1.0431,3.424125E-05,15.6465,0,1.0431,7.486076E-05,15.6465,0
1.044,2.1149E-05,15.66,0,1.044,-3.994812E-05,15.66,0
1.0449,-3.021286E-06,15.6735,0,1.0449,-7.754635E-05,15.6735,0
1.0458,6.042573E-06,15.687,0,1.0458,-4.39765E-05,15.687,0
1.0467,1.879912E-05,15.7005,0,1.0467,-7.956054E-05,15.7005,0
1.0476,3.121996E-05,15.714,0,1.0476,-0.0001272297,15.714,0
1.0485,-1.779202E-05,15.7275,0,1.0485,-7.083238E-05,15.7275,0
1.0494,-5.639734E-05,15.741,0,1.0494,-1.846342E-05,15.741,0
1.0503,-8.493171E-05,15.7545,0,1.0503,-9.735256E-06,15.7545,0
1.0512,-0.0001185016,15.768,0,1.0512,7.217517E-05,15.768,0
1.0521,-8.157473E-05,15.7815,0,1.0521,0.0001319295,15.7815,0
1.053,6.948959E-05,15.795,0,1.053,6.6804E-05,15.795,0
1.0539,0.0001742275,15.8085,0,1.0539,-2.349889E-06,15.8085,0
1.0548,0.0002064546,15.822,0,1.0548,-4.901198E-05,15.822,0
1.0557,0.0001567712,15.8355,0,1.0557,-3.558404E-05,15.8355,0
1.0566,0.0001144732,15.849,0,1.0566,-5.673304E-05,15.849,0
1.0575,5.606165E-05,15.8625,0,1.0575,-0.0001185016,15.8625,0
1.0584,4.800488E-05,15.876,0,1.0584,-9.130999E-05,15.876,0
1.0593,-9.735256E-06,15.8895,0,1.0593,-1.007095E-05,15.8895,0
1.0602,2.1149E-05,15.903,0,1.0602,3.826963E-05,15.903,0
1.0611,-1.846342E-05,15.9165,0,1.0611,-4.800488E-05,15.9165,0
1.062,-0.0002376745,15.93,0,1.062,-2.819867E-05,15.93,0
1.0629,-0.0002759442,15.9435,0,1.0629,2.786297E-05,15.9435,0
1.0638,-0.0002799725,15.957,0,1.0638,-2.383459E-05,15.957,0
1.0647,-0.000260502,15.9705,0,1.0647,6.478981E-05,15.9705,0
1.0656,-6.109713E-05,15.984,0,1.0656,0.0001574426,15.984,0
1.0665,4.49836E-05,15.9975,0,1.0665,6.814679E-05,15.9975,0
1.0674,2.853437E-05,16.011,0,1.0674,-4.36408E-06,16.011,0
1.0683,7.721065E-06,16.0245,0,1.0683,-4.867628E-05,16.0245,0
1.0692,-3.356985E-05,16.038,0,1.0692,-5.102617E-05,16.038,0
1.0701,-5.941863E-05,16.0515,0,1.0701,-2.584878E-05,16.0515,0
1.071,-7.620356E-05,16.065,0,1.071,-5.304036E-05,16.065,0
1.0719,-5.941863E-05,16.0785,0,1.0719,-8.358892E-05,16.0785,0
1.0728,-7.553216E-05,16.092,0,1.0728,-4.733349E-05,16.092,0
1.0737,-4.196231E-05,16.1055,0,1.0737,-7.452507E-05,16.1055,0
1.0746,3.894102E-05,16.119,0,1.0746,-0.0001279011,16.119,0
1.0755,5.941863E-05,16.1325,0,1.0755,-6.915389E-05,16.1325,0
1.0764,0.0001070878,16.146,0,1.0764,-4.934768E-05,16.146,0
1.0773,0.0001054093,16.1595,0,1.0773,-9.097429E-05,16.1595,0
1.0782,7.150377E-05,16.173,0,1.0782,-9.365987E-05,16.173,0
1.0791,1.107805E-05,16.1865,0,1.0791,-1.007095E-05,16.1865,0
1.08,-3.121996E-05,16.2,0,1.08,7.251087E-05,16.2,0
1.0809,-2.853437E-05,16.2135,0,1.0809,4.53193E-05,16.2135,0
1.0818,-1.409934E-05,16.227,0,1.0818,-1.242084E-05,16.227,0
1.0827,2.316319E-05,16.2405,0,1.0827,6.042573E-06,16.2405,0
1.0836,3.390555E-05,16.254,0,1.0836,-9.063859E-06,16.254,0
1.0845,1.577783E-05,16.2675,0,1.0845,-5.606165E-05,16.2675,0
1.0854,2.047761E-05,16.281,0,1.0854,-8.358892E-05,16.281,0
1.0863,0.0001164874,16.2945,0,1.0863,-1.510643E-05,16.2945,0
1.0872,0.0001567712,16.308,0,1.0872,-2.551309E-05,16.308,0
1.0881,5.136187E-05,16.3215,0,1.0881,-5.841154E-05,16.3215,0
1.089,-3.524834E-05,16.335,0,1.089,4.934768E-05,16.335,0
1.0899,-6.378271E-05,16.3485,0,1.0899,0.0001305867,16.3485,0
1.0908,-8.761731E-05,16.362,0,1.0908,6.74754E-05,16.362,0
1.0917,-0.0001185016,16.3755,0,1.0917,1.443504E-05,16.3755,0
1.0926,-3.524834E-05,16.389,0,1.0926,1.275654E-05,16.389,0
1.0935,2.383459E-05,16.4025,0,1.0935,-3.189136E-05,16.4025,0
1.0944,0.000119173,16.416,0,1.0944,-7.284657E-05,16.416,0
1.0953,0.0001292439,16.4295,0,1.0953,-0.0001426719,16.4295,0
1.0962,6.378271E-06,16.443,0,1.0962,-6.344701E-05,16.443,0
1.0971,-6.74754E-05,16.4565,0,1.0971,7.049668E-06,16.4565,0
1.098,-5.874724E-05,16.47,0,1.098,-7.385367E-06,16.47,0
1.0989,-5.975433E-05,16.4835,0,1.0989,2.584878E-05,16.4835,0
1.0998,4.39765E-05,16.497,0,1.0998,0.0001198444,16.497,0
1.1007,0.0001013809,16.5105,0,1.1007,7.687495E-05,16.5105,0
1.1016,7.721065E-05,16.524,0,1.1016,-1.242084E-05,16.524,0
1.1025,-6.848249E-05,16.5375,0,1.1025,4.43122E-05,16.5375,0
1.1034,-0.0002047761,16.551,0,1.1034,2.920577E-05,16.551,0
1.1043,-0.0001003738,16.5645,0,1.1043,-6.713969E-06,16.5645,0
1.1052,-4.53193E-05,16.578,0,1.1052,1.040665E-05,16.578,0
1.1061,-5.337606E-05,16.5915,0,1.1061,2.383459E-05,16.5915,0
1.107,-3.256275E-05,16.605,0,1.107,-9.735256E-06,16.605,0
1.1079,-4.061952E-05,16.6185,0,1.1079,-2.853437E-05,16.6185,0
1.1088,4.699779E-06,16.632,0,1.1088,-6.814679E-05,16.632,0
1.1097,6.54612E-05,16.6455,0,1.1097,-3.189136E-05,16.6455,0
1.1106,3.558404E-05,16.659,0,1.1106,-2.987716E-05,16.659,0
1.1115,-1.208515E-05,16.6725,0,1.1115,-9.735256E-05,16.6725,0
1.1124,2.719158E-05,16.686,0,1.1124,-0.0001138018,16.686,0
1.1133,1.309224E-05,16.6995,0,1.1133,-2.987716E-05,16.6995,0
1.1142,-6.713969E-07,16.713,0,1.1142,-2.450599E-05,16.713,0
1.1151,7.049668E-06,16.7265,0,1.1151,-5.941863E-05,16.7265,0
1.116,-1.309224E-05,16.74,0,1.116,-1.443504E-05,16.74,0
1.1169,-3.390555E-05,16.7535,0,1.1169,-5.169757E-05,16.7535,0
1.1178,-2.014191E-06,16.767,0,1.1178,-0.0001507286,16.767,0
1.1187,-1.678492E-06,16.7805,0,1.1187,-0.0001644923,16.7805,0
1.1196,-1.242084E-05,16.794,0,1.1196,-0.0001064164,16.794,0
1.1205,5.169757E-05,16.8075,0,1.1205,-7.318227E-05,16.8075,0
1.1214,7.284657E-05,16.821,0,1.1214,-4.43122E-05,16.821,0
1.1223,0.000112459,16.8345,0,1.1223,5.169757E-05,16.8345,0
1.1232,3.994812E-05,16.848,0,1.1232,0.0001413291,16.848,0
1.1241,-1.510643E-05,16.8615,0,1.1241,8.86244E-05,16.8615,0
1.125,4.666209E-05,16.875,0,1.125,8.392462E-06,16.875,0
1.1259,-3.961242E-05,16.8885,0,1.1259,-2.450599E-05,16.8885,0
1.1268,-7.821774E-05,16.902,0,1.1268,5.639734E-05,16.902,0
1.1277,-9.231708E-05,16.9155,0,1.1277,1.376364E-05,16.9155,0
1.1286,-4.867628E-05,16.929,0,1.1286,-6.210422E-05,16.929,0
1.1295,-3.927672E-05,16.9425,0,1.1295,-1.409934E-05,16.9425,0
1.1304,-1.443504E-05,16.956,0,1.1304,2.920577E-05,16.956,0
1.1313,4.53193E-05,16.9695,0,1.1313,1.477073E-05,16.9695,0
1.1322,7.687495E-05,16.983,0,1.1322,4.733349E-05,16.983,0
1.1331,3.323415E-05,16.9965,0,1.1331,3.356985E-05,16.9965,0
1.134,-1.510643E-05,17.01,0,1.134,-8.392462E-06,17.01,0
1.1349,2.1149E-05,17.0235,0,1.1349,-1.208515E-05,17.0235,0
1.1358,-1.678492E-06,17.037,0,1.1358,-5.874724E-05,17.037,0
1.1367,-4.934768E-05,17.0505,0,1.1367,-5.270466E-05,17.0505,0
1.1376,-0.0001030594,17.064,0,1.1376,-5.539025E-05,17.064,0
1.1385,-3.558404E-05,17.0775,0,1.1385,-7.318227E-05,17.0775,0
1.1394,1.779202E-05,17.091,0,1.1394,-8.593881E-05,17.091,0
1.1403,1.577783E-05,17.1045,0,1.1403,-7.049668E-06,17.1045,0
1.1412,-5.706874E-06,17.118,0,1.1412,-1.040665E-05,17.118,0
1.1421,-1.174945E-05,17.1315,0,1.1421,-4.196231E-05,17.1315,0
1.143,-4.29694E-05,17.145,0,1.143,1.443504E-05,17.145,0
1.1439,-3.189136E-05,17.1585,0,1.1439,3.860533E-05,17.1585,0
1.1448,3.189136E-05,17.172,0,1.1448,-4.800488E-05,17.172,0
1.1457,-5.740444E-05,17.1855,0,1.1457,-4.196231E-05,17.1855,0
1.1466,-8.627451E-05,17.199,0,1.1466,-1.107805E-05,17.199,0
1.1475,-9.970245E-05,17.2125,0,1.1475,-2.652018E-05,17.2125,0
1.1484,-0.0001050736,17.226,0,1.1484,-7.318227E-05,17.226,0
1.1493,-5.941863E-05,17.2395,0,1.1493,-0.0001520714,17.2395,0
1.1502,-3.692683E-05,17.253,0,1.1502,-0.0001426719,17.253,0
1.1511,-1.342794E-05,17.2665,0,1.1511,-0.0001359579,17.2665,0
1.152,2.047761E-05,17.28,0,1.152,-0.0001070878,17.28,0
1.1529,4.53193E-05,17.2935,0,1.1529,-5.606165E-05,17.2935,0
1.1538,3.121996E-05,17.307,0,1.1538,4.901198E-05,17.307,0
1.1547,4.632639E-05,17.3205,0,1.1547,0.0001322652,17.3205,0
1.1556,8.358892E-05,17.334,0,1.1556,0.0001228656,17.334,0
1.1565,4.968337E-05,17.3475,0,1.1565,7.956054E-05,17.3475,0
1.1574,2.047761E-05,17.361,0,1.1574,2.652018E-05,17.361,0
1.1583,-3.256275E-05,17.3745,0,1.1583,-4.901198E-05,17.3745,0
1.1592,-5.337606E-05,17.388,0,1.1592,-1.208515E-05,17.388,0
1.1601,-6.009003E-05,17.4015,0,1.1601,1.107805E-05,17.4015,0
1.161,2.21561E-05,17.415,0,1.161,-2.786297E-05,17.415,0
1.1619,3.726253E-05,17.4285,0,1.1619,-4.162661E-05,17.4285,0
1.1628,2.1149E-05,17.442,0,1.1628,-6.076142E-05,17.442,0
1.1637,-2.853437E-05,17.4555,0,1.1637,1.275654E-05,17.4555,0
1.1646,-5.304036E-05,17.469,0,1.1646,3.659113E-05,17.469,0
1.1655,1.577783E-05,17.4825,0,1.1655,-6.713969E-07,17.4825,0
1.1664,6.277562E-05,17.496,0,1.1664,-2.349889E-06,17.496,0
1.1673,-5.706874E-06,17.5095,0,1.1673,1.812772E-05,17.5095,0
1.1682,7.721065E-06,17.523,0,1.1682,2.349889E-05,17.523,0
1.1691,-1.208515E-05,17.5365,0,1.1691,3.356985E-07,17.5365,0
1.17,-6.411841E-05,17.55,0,1.17,3.894102E-05,17.55,0
1.1709,4.36408E-05,17.5635,0,1.1709,5.874724E-05,17.5635,0
1.1718,8.69459E-05,17.577,0,1.1718,-2.517739E-05,17.577,0
1.1727,7.183947E-05,17.5905,0,1.1727,-7.821774E-05,17.5905,0
1.1736,2.081331E-05,17.604,0,1.1736,-4.766919E-05,17.604,0
1.1745,5.337606E-05,17.6175,0,1.1745,-4.666209E-05,17.6175,0
1.1754,1.007095E-05,17.631,0,1.1754,-6.61326E-05,17.631,0
1.1763,-0.0001181659,17.6445,0,1.1763,-8.996719E-05,17.6445,0
1.1772,-4.33051E-05,17.658,0,1.1772,-5.975433E-05,17.658,0
1.1781,0.0001067521,17.6715,0,1.1781,-2.954147E-05,17.6715,0
1.179,8.82887E-05,17.685,0,1.179,3.021286E-06,17.685,0
1.1799,-3.457694E-05,17.6985,0,1.1799,4.129091E-05,17.6985,0
1.1808,-7.486076E-05,17.712,0,1.1808,3.323415E-05,17.712,0
1.1817,-1.376364E-05,17.7255,0,1.1817,-3.927672E-05,17.7255,0
1.1826,1.678492E-06,17.739,0,1.1826,-0.0001044022,17.739,0
1.1835,-9.701686E-05,17.7525,0,1.1835,-3.860533E-05,17.7525,0
1.1844,-0.0001037308,17.766,0,1.1844,-4.33051E-05,17.766,0
1.1853,-5.001907E-05,17.7795,0,1.1853,-7.620356E-05,17.7795,0
1.1862,-0.0001309224,17.793,0,1.1862,-8.795301E-05,17.793,0
1.1871,-0.0001732204,17.8065,0,1.1871,-4.095522E-05,17.8065,0
1.188,-6.915389E-05,17.82,0,1.188,2.853437E-05,17.82,0
1.1889,-3.256275E-05,17.8335,0,1.1889,7.721065E-06,17.8335,0
1.1898,-2.987716E-05,17.847,0,1.1898,1.745632E-05,17.847,0
1.1907,-3.356985E-07,17.8605,0,1.1907,9.634547E-05,17.8605,0
1.1916,-1.947051E-05,17.874,0,1.1916,0.000105745,17.874,0
1.1925,-1.174945E-05,17.8875,0,1.1925,5.572595E-05,17.8875,0
1.1934,6.277562E-05,17.901,0,1.1934,3.659113E-05,17.901,0
1.1943,7.116808E-05,17.9145,0,1.1943,3.256275E-05,17.9145,0
1.1952,1.678492E-06,17.928,0,1.1952,-3.021286E-05,17.928,0
1.1961,7.486076E-05,17.9415,0,1.1961,-6.143282E-05,17.9415,0
1.197,0.0001916838,17.955,0,1.197,-9.063859E-06,17.955,0
1.1979,8.392462E-05,17.9685,0,1.1979,-2.18204E-05,17.9685,0
1.1988,-7.284657E-05,17.982,0,1.1988,-8.493171E-05,17.982,0
1.1997,-8.627451E-05,17.9955,0,1.1997,-4.699779E-05,17.9955,0
1.2006,-7.486076E-05,18.009,0,1.2006,-1.477073E-05,18.009,0
1.2015,-6.210422E-05,18.0225,0,1.2015,-3.927672E-05,18.0225,0
1.2024,3.356985E-07,18.036,0,1.2024,-3.189136E-05,18.036,0
1.2033,5.471885E-05,18.0495,0,1.2033,-6.478981E-05,18.0495,0
1.2042,3.088426E-05,18.063,0,1.2042,-5.807584E-05,18.063,0
1.2051,4.162661E-05,18.0765,0,1.2051,-6.57969E-05,18.0765,0
1.206,3.927672E-05,18.09,0,1.206,-0.0001188373,18.09,0
1.2069,-1.644922E-05,18.1035,0,1.2069,-0.0001383078,18.1035,0
1.2078,-3.994812E-05,18.117,0,1.2078,-9.265278E-05,18.117,0
1.2087,-8.392462E-06,18.1305,0,1.2087,-0.0001037308,18.1305,0
1.2096,3.390555E-05,18.144,0,1.2096,-0.0001299153,18.144,0
1.2105,-2.316319E-05,18.1575,0,1.2105,-4.33051E-05,18.1575,0
1.2114,-8.023193E-05,18.171,0,1.2114,4.36408E-05,18.171,0
1.2123,-3.692683E-06,18.1845,0,1.2123,0.0001389792,18.1845,0
1.2132,2.383459E-05,18.198,0,1.2132,8.69459E-05,18.198,0
1.2141,3.994812E-05,18.2115,0,1.2141,9.063859E-05,18.2115,0
1.215,0.0001084306,18.225,0,1.215,6.176852E-05,18.225,0
1.2159,8.69459E-05,18.2385,0,1.2159,3.323415E-05,18.2385,0
1.2168,4.867628E-05,18.252,0,1.2168,-1.947051E-05,18.252,0
1.2177,2.081331E-05,18.2655,0,1.2177,-7.385367E-06,18.2655,0
1.2186,-7.754635E-05,18.279,0,1.2186,1.577783E-05,18.279,0
1.2195,-9.298848E-05,18.2925,0,1.2195,-2.685588E-05,18.2925,0
1.2204,6.74754E-05,18.306,0,1.2204,-5.069047E-05,18.306,0
1.2213,0.0001332723,18.3195,0,1.2213,1.913481E-05,18.3195,0
1.2222,-2.685588E-05,18.333,0,1.2222,-1.208515E-05,18.333,0
1.2231,-8.795301E-05,18.3465,0,1.2231,-0.0001359579,18.3465,0
1.224,-8.392462E-05,18.36,0,1.224,-9.835965E-05,18.36,0
1.2249,-0.0002145113,18.3735,0,1.2249,-6.344701E-05,18.3735,0
1.2258,-0.0002417029,18.387,0,1.2258,-9.970245E-05,18.387,0
1.2267,-0.0001198444,18.4005,0,1.2267,-5.337606E-05,18.4005,0
1.2276,-8.392462E-06,18.414,0,1.2276,4.800488E-05,18.414,0
1.2285,8.69459E-05,18.4275,0,1.2285,0.000119173,18.4275,0
1.2294,0.0001080949,18.441,0,1.2294,0.0001282368,18.441,0
1.2303,7.553216E-05,18.4545,0,1.2303,5.975433E-05,18.4545,0
1.2312,7.217517E-05,18.468,0,1.2312,7.083238E-05,18.468,0
1.2321,0.0001225299,18.4815,0,1.2321,5.471885E-05,18.4815,0
1.233,3.726253E-05,18.495,0,1.233,-2.21561E-05,18.495,0
1.2339,-3.356985E-07,18.5085,0,1.2339,-3.625543E-05,18.5085,0
1.2348,-3.356985E-06,18.522,0,1.2348,-3.189136E-05,18.522,0
1.2357,-6.042573E-06,18.5355,0,1.2357,-5.136187E-05,18.5355,0
1.2366,-1.745632E-05,18.549,0,1.2366,-7.888914E-05,18.549,0
1.2375,2.21561E-05,18.5625,0,1.2375,-1.007095E-06,18.5625,0
1.2384,7.721065E-06,18.576,0,1.2384,2.652018E-05,18.576,0
1.2393,-5.203327E-05,18.5895,0,1.2393,-5.404745E-05,18.5895,0
1.2402,-5.404745E-05,18.603,0,1.2402,-3.524834E-05,18.603,0
1.2411,-0.0001393149,18.6165,0,1.2411,-3.524834E-05,18.6165,0
1.242,-0.0001967193,18.63,0,1.242,-6.009003E-05,18.63,0
1.2429,-9.298848E-05,18.6435,0,1.2429,-5.572595E-05,18.6435,0
1.2438,0.0001775845,18.657,0,1.2438,-7.620356E-05,18.657,0
1.2447,0.0001873197,18.6705,0,1.2447,-7.016098E-05,18.6705,0
1.2456,1.174945E-05,18.684,0,1.2456,-8.358892E-05,18.684,0
1.2465,-3.524834E-05,18.6975,0,1.2465,-0.0001242084,18.6975,0
1.2474,-5.841154E-05,18.711,0,1.2474,-0.0001836271,18.711,0
1.2483,-0.0001356222,18.7245,0,1.2483,-0.0001272297,18.7245,0
1.2492,-0.0001127947,18.738,0,1.2492,-8.661021E-05,18.738,0
1.2501,-1.913481E-05,18.7515,0,1.2501,1.644922E-05,18.7515,0
1.251,1.007095E-06,18.765,0,1.251,0.0001675135,18.765,0
1.2519,4.36408E-06,18.7785,0,1.2519,0.0001681849,18.7785,0
1.2528,5.606165E-05,18.792,0,1.2528,0.0001352865,18.792,0
1.2537,4.599069E-05,18.8055,0,1.2537,0.0001107805,18.8055,0
1.2546,1.040665E-05,18.819,0,1.2546,7.754635E-05,18.819,0
1.2555,3.189136E-05,18.8325,0,1.2555,2.719158E-05,18.8325,0
1.2564,-2.316319E-05,18.846,0,1.2564,-2.047761E-05,18.846,0
1.2573,-4.632639E-05,18.8595,0,1.2573,-0.0001117876,18.8595,0
1.2582,5.706874E-06,18.873,0,1.2582,-8.96315E-05,18.873,0
1.2591,5.035477E-05,18.8865,0,1.2591,-7.318227E-05,18.8865,0
1.26,9.466698E-05,18.9,0,1.26,-8.795301E-05,18.9,0
1.2609,7.687495E-05,18.9135,0,1.2609,-0.0001245441,18.9135,0
1.2618,3.759823E-05,18.927,0,1.2618,-2.18204E-05,18.927,0
1.2627,-4.43122E-05,18.9405,0,1.2627,3.692683E-05,18.9405,0
1.2636,-0.0001668421,18.954,0,1.2636,8.426032E-05,18.954,0
1.2645,-6.54612E-05,18.9675,0,1.2645,0.0001265583,18.9675,0
1.2654,-2.24918E-05,18.981,0,1.2654,5.740444E-05,18.981,0
1.2663,-1.544213E-05,18.9945,0,1.2663,-1.477073E-05,18.9945,0
1.2672,4.934768E-05,19.008,0,1.2672,3.021286E-06,19.008,0
1.2681,-4.46479E-05,19.0215,0,1.2681,-2.349889E-06,19.0215,0
1.269,-5.539025E-05,19.035,0,1.269,-1.913481E-05,19.035,0
1.2699,-1.342794E-06,19.0485,0,1.2699,2.349889E-06,19.0485,0
1.2708,-1.980621E-05,19.062,0,1.2708,-6.54612E-05,19.062,0
1.2717,-4.766919E-05,19.0755,0,1.2717,-5.539025E-05,19.0755,0
1.2726,-5.236896E-05,19.089,0,1.2726,-8.560311E-05,19.089,0
1.2735,-7.351797E-05,19.1025,0,1.2735,-0.0001255512,19.1025,0
1.2744,-2.316319E-05,19.116,0,1.2744,-0.0001272297,19.116,0
1.2753,1.510643E-05,19.1295,0,1.2753,-1.544213E-05,19.1295,0
1.2762,4.095522E-05,19.143,0,1.2762,6.411841E-05,19.143,0
1.2771,0.0001044022,19.1565,0,1.2771,1.107805E-05,19.1565,0
1.278,0.000105745,19.17,0,1.278,4.229801E-05,19.17,0
1.2789,0.000105745,19.1835,0,1.2789,-1.007095E-06,19.1835,0
1.2798,6.344701E-05,19.197,0,1.2798,-0.0001070878,19.197,0
1.2807,-8.82887E-05,19.2105,0,1.2807,-7.754635E-05,19.2105,0
1.2816,-5.069047E-05,19.224,0,1.2816,-1.947051E-05,19.224,0
1.2825,-1.376364E-05,19.2375,0,1.2825,-3.894102E-05,19.2375,0
1.2834,0.0001037308,19.251,0,1.2834,-8.627451E-05,19.251,0
1.2843,0.0001930266,19.2645,0,1.2843,-0.000133608,19.2645,0
1.2852,0.0001406577,19.278,0,1.2852,-0.0001188373,19.278,0
1.2861,9.231708E-05,19.2915,0,1.2861,-9.365987E-05,19.2915,0
1.287,-2.349889E-05,19.305,0,1.287,-0.0001238727,19.305,0
1.2879,-0.0002934005,19.3185,0,1.2879,-2.1149E-05,19.3185,0
1.2888,-0.000351812,19.332,0,1.2888,7.351797E-05,19.332,0
1.2897,-0.0001688563,19.3455,0,1.2897,0.0001500572,19.3455,0
1.2906,-0.0001013809,19.359,0,1.2906,0.0001514,19.359,0
1.2915,-0.0001312581,19.3725,0,1.2915,0.0001070878,19.3725,0
1.2924,-2.584878E-05,19.386,0,1.2924,6.51255E-05,19.386,0
1.2933,1.409934E-05,19.3995,0,1.2933,-3.256275E-05,19.3995,0
1.2942,-3.021286E-06,19.413,0,1.2942,-6.210422E-05,19.413,0
1.2951,4.632639E-05,19.4265,0,1.2951,9.735256E-06,19.4265,0
1.296,5.069047E-05,19.44,0,1.296,2.417029E-05,19.44,0
1.2969,7.217517E-05,19.4535,0,1.2969,-2.014191E-06,19.4535,0
1.2978,7.016098E-05,19.467,0,1.2978,-2.450599E-05,19.467,0
1.2987,7.486076E-05,19.4805,0,1.2987,-1.074235E-05,19.4805,0
1.2996,1.577783E-05,19.494,0,1.2996,9.735256E-06,19.494,0
1.3005,-7.049668E-06,19.5075,0,1.3005,-3.323415E-05,19.5075,0
1.3014,-5.673304E-05,19.521,0,1.3014,-6.344701E-05,19.521,0
1.3023,4.699779E-06,19.5345,0,1.3023,-8.728161E-06,19.5345,0
1.3032,5.471885E-05,19.548,0,1.3032,1.007095E-06,19.548,0
1.3041,5.035477E-06,19.5615,0,1.3041,-7.150377E-05,19.5615,0
1.305,-3.256275E-05,19.575,0,1.305,-2.21561E-05,19.575,0
1.3059,7.049668E-06,19.5885,0,1.3059,-8.392462E-06,19.5885,0
1.3068,9.198138E-05,19.602,0,1.3068,-9.768826E-05,19.602,0
1.3077,0.000161471,19.6155,0,1.3077,-0.0001577783,19.6155,0
1.3086,0.0001030594,19.629,0,1.3086,-0.000193698,19.629,0
1.3095,7.586786E-05,19.6425,0,1.3095,-0.0002453956,19.6425,0
1.3104,1.174945E-05,19.656,0,1.3104,-0.0001628138,19.656,0
1.3113,-0.0001500572,19.6695,0,1.3113,-0.0001366293,19.6695,0
1.3122,-0.0002205539,19.683,0,1.3122,-1.913481E-05,19.683,0
1.3131,-0.0001540856,19.6965,0,1.3131,0.0001930266,19.6965,0
1.314,-0.0001386435,19.71,0,1.314,0.000257145,19.71,0
1.3149,-7.385367E-05,19.7235,0,1.3149,0.000126894,19.7235,0
1.3158,-4.901198E-05,19.737,0,1.3158,0.0001104448,19.737,0
1.3167,-3.121996E-05,19.7505,0,1.3167,9.701686E-05,19.7505,0
1.3176,2.1149E-05,19.764,0,1.3176,3.591974E-05,19.764,0
1.3185,-2.316319E-05,19.7775,0,1.3185,4.934768E-05,19.7775,0
1.3194,1.779202E-05,19.791,0,1.3194,3.659113E-05,19.791,0
1.3203,5.539025E-05,19.8045,0,1.3203,-1.980621E-05,19.8045,0
1.3212,-6.378271E-06,19.818,0,1.3212,-0.0001050736,19.818,0
1.3221,-8.392462E-06,19.8315,0,1.3221,-7.620356E-05,19.8315,0
1.323,2.584878E-05,19.845,0,1.323,-7.116808E-05,19.845,0
1.3239,1.712062E-05,19.8585,0,1.3239,-7.721065E-05,19.8585,0
1.3248,5.136187E-05,19.872,0,1.3248,-9.701686E-05,19.872,0
1.3257,5.673304E-05,19.8855,0,1.3257,1.174945E-05,19.8855,0
1.3266,4.129091E-05,19.899,0,1.3266,6.881819E-05,19.899,0
1.3275,4.263371E-05,19.9125,0,1.3275,2.383459E-05,19.9125,0
1.3284,0.0001467002,19.926,0,1.3284,-7.956054E-05,19.926,0
1.3293,0.0001453574,19.9395,0,1.3293,-7.586786E-05,19.9395,0
1.3302,0.0002024262,19.953,0,1.3302,-6.344701E-05,19.953,0
1.3311,0.0001738918,19.9665,0,1.3311,-0.0001077592,19.9665,0
1.332,9.097429E-05,19.98,0,1.332,-8.123904E-05,19.98,0
1.3329,1.577783E-05,19.9935,0,1.3329,-7.116808E-05,19.9935,0
1.3338,-0.0001319295,20.007,0,1.3338,-9.903105E-05,20.007,0
1.3347,-0.0002910506,20.0205,0,1.3347,3.692683E-06,20.0205,0
1.3356,-0.0004206302,20.034,0,1.3356,6.076142E-05,20.034,0
1.3365,-0.0002353246,20.0475,0,1.3365,0.0001064164,20.0475,0
1.3374,-5.606165E-05,20.061,0,1.3374,0.0001698634,20.061,0
1.3383,4.36408E-06,20.0745,0,1.3383,0.0001198444,20.0745,0
1.3392,7.721065E-06,20.088,0,1.3392,5.270466E-05,20.088,0
1.3401,1.510643E-05,20.1015,0,1.3401,2.21561E-05,20.1015,0
1.341,-2.24918E-05,20.115,0,1.341,-6.378271E-06,20.115,0
1.3419,-2.18204E-05,20.1285,0,1.3419,-3.759823E-05,20.1285,0
1.3428,-4.46479E-05,20.142,0,1.3428,-7.049668E-06,20.142,0
1.3437,-5.539025E-05,20.1555,0,1.3437,-7.049668E-06,20.1555,0
1.3446,-2.450599E-05,20.169,0,1.3446,-7.351797E-05,20.169,0
1.3455,-1.678492E-06,20.1825,0,1.3455,-2.383459E-05,20.1825,0
1.3464,3.659113E-05,20.196,0,1.3464,9.735256E-06,20.196,0
1.3473,0.0001107805,20.2095,0,1.3473,-4.800488E-05,20.2095,0
1.3482,7.519646E-05,20.223,0,1.3482,-4.29694E-05,20.223,0
1.3491,-2.853437E-05,20.2365,0,1.3491,-2.24918E-05,20.2365,0
1.35,-2.786297E-05,20.25,0,1.35,-5.169757E-05,20.25,0
1.3509,-3.625543E-05,20.2635,0,1.3509,-7.016098E-05,20.2635,0
1.3518,-1.913481E-05,20.277,0,1.3518,-0.0001352865,20.277,0
1.3527,-1.779202E-05,20.2905,0,1.3527,-0.0001567712,20.2905,0
1.3536,5.673304E-05,20.304,0,1.3536,-0.000161471,20.304,0
1.3545,5.606165E-05,20.3175,0,1.3545,-0.0001715419,20.3175,0
1.3554,6.78111E-05,20.331,0,1.3554,-8.560311E-05,20.331,0
1.3563,7.452507E-05,20.3445,0,1.3563,4.800488E-05,20.3445,0
1.3572,8.560311E-05,20.358,0,1.3572,0.0001070878,20.358,0
1.3581,2.853437E-05,20.3715,0,1.3581,0.0001070878,20.3715,0
1.359,9.466698E-05,20.385,0,1.359,0.0001114519,20.385,0
1.3599,0.0001117876,20.3985,0,1.3599,7.989624E-05,20.3985,0
1.3608,5.706874E-05,20.412,0,1.3608,-1.779202E-05,20.412,0
1.3617,-3.121996E-05,20.4255,0,1.3617,-1.779202E-05,20.4255,0
1.3626,-4.53193E-05,20.439,0,1.3626,1.544213E-05,20.439,0
1.3635,-3.323415E-05,20.4525,0,1.3635,-3.726253E-05,20.4525,0
1.3644,-0.0001352865,20.466,0,1.3644,-9.869535E-05,20.466,0
1.3653,-1.544213E-05,20.4795,0,1.3653,-0.0001144732,20.4795,0
1.3662,-4.36408E-06,20.493,0,1.3662,-0.0001104448,20.493,0
1.3671,-0.000161471,20.5065,0,1.3671,-6.54612E-05,20.5065,0
1.368,-0.0001077592,20.52,0,1.368,-6.210422E-05,20.52,0
1.3689,-1.745632E-05,20.5335,0,1.3689,-5.841154E-05,20.5335,0
1.3698,-1.107805E-05,20.547,0,1.3698,-1.443504E-05,20.547,0
1.3707,1.846342E-05,20.5605,0,1.3707,-8.325322E-05,20.5605,0
1.3716,0.000105745,20.574,0,1.3716,-0.0001420005,20.574,0
1.3725,8.358892E-05,20.5875,0,1.3725,-5.874724E-05,20.5875,0
1.3734,8.69459E-05,20.601,0,1.3734,4.666209E-05,20.601,0
1.3743,8.69459E-05,20.6145,0,1.3743,4.061952E-05,20.6145,0
1.3752,4.800488E-05,20.628,0,1.3752,9.970245E-05,20.628,0
1.3761,-0.0002584878,20.6415,0,1.3761,0.000207126,20.6415,0
1.377,-0.0002806439,20.655,0,1.377,6.6804E-05,20.655,0
1.3779,-0.0001232013,20.6685,0,1.3779,2.652018E-05,20.6685,0
1.3788,-0.0001030594,20.682,0,1.3788,8.728161E-06,20.682,0
1.3797,-6.478981E-05,20.6955,0,1.3797,6.881819E-05,20.6955,0
1.3806,-3.390555E-05,20.709,0,1.3806,6.57969E-05,20.709,0
1.3815,-1.107805E-05,20.7225,0,1.3815,-1.242084E-05,20.7225,0
1.3824,-1.007095E-05,20.736,0,1.3824,-7.083238E-05,20.736,0
1.3833,-3.961242E-05,20.7495,0,1.3833,-3.927672E-05,20.7495,0
1.3842,-4.061952E-05,20.763,0,1.3842,-6.478981E-05,20.763,0
1.3851,1.242084E-05,20.7765,0,1.3851,-0.0001195087,20.7765,0
1.386,7.486076E-05,20.79,0,1.386,-4.53193E-05,20.79,0
1.3869,0.000148043,20.8035,0,1.3869,1.342794E-06,20.8035,0
1.3878,2.517739E-05,20.817,0,1.3878,-2.484169E-05,20.817,0
1.3887,-7.217517E-05,20.8305,0,1.3887,-5.706874E-06,20.8305,0
1.3896,-3.692683E-05,20.844,0,1.3896,1.007095E-06,20.844,0
1.3905,-3.591974E-05,20.8575,0,1.3905,-2.014191E-06,20.8575,0
1.3914,-3.994812E-05,20.871,0,1.3914,8.728161E-06,20.871,0
1.3923,2.316319E-05,20.8845,0,1.3923,1.712062E-05,20.8845,0
1.3932,1.812772E-05,20.898,0,1.3932,8.795301E-05,20.898,0
1.3941,0.0001003738,20.9115,0,1.3941,6.143282E-05,20.9115,0
1.395,0.000115816,20.925,0,1.395,-3.424125E-05,20.925,0
1.3959,0.0002064546,20.9385,0,1.3959,-6.277562E-05,20.9385,0
1.3968,0.0003414054,20.952,0,1.3968,-3.591974E-05,20.952,0
1.3977,0.0001765774,20.9655,0,1.3977,-8.157473E-05,20.9655,0
1.3986,2.047761E-05,20.979,0,1.3986,-0.0001443503,20.979,0
1.3995,-5.001907E-05,20.9925,0,1.3995,-0.0001876554,20.9925,0
1.4004,-0.0002074617,21.006,0,1.4004,-0.0002205539,21.006,0
1.4013,-0.0004078737,21.0195,0,1.4013,-0.0002665446,21.0195,0
1.4022,-0.0002145113,21.033,0,1.4022,-0.0001822843,21.033,0
1.4031,-0.0002104829,21.0465,0,1.4031,1.342794E-06,21.0465,0
1.404,-0.0001742275,21.06,0,1.404,0.0001554284,21.06,0
1.4049,-3.692683E-05,21.0735,0,1.4049,0.0002554666,21.0735,0
1.4058,1.644922E-05,21.087,0,1.4058,0.0002682231,21.087,0
1.4067,3.021286E-06,21.1005,0,1.4067,0.0001067521,21.1005,0
1.4076,-1.644922E-05,21.114,0,1.4076,7.620356E-05,21.114,0
1.4085,4.53193E-05,21.1275,0,1.4085,1.712062E-05,21.1275,0
1.4094,0.0001141375,21.141,0,1.4094,-2.450599E-05,21.141,0
1.4103,6.948959E-05,21.1545,0,1.4103,2.652018E-05,21.1545,0
1.4112,-2.014191E-06,21.168,0,1.4112,-2.786297E-05,21.168,0
1.4121,1.443504E-05,21.1815,0,1.4121,-0.0001044022,21.1815,0
1.413,-2.551309E-05,21.195,0,1.413,-7.150377E-05,21.195,0
1.4139,1.644922E-05,21.2085,0,1.4139,-8.090334E-05,21.2085,0
1.4148,6.143282E-05,21.222,0,1.4148,-0.0001990692,21.222,0
1.4157,3.021286E-06,21.2355,0,1.4157,-0.0002205539,21.2355,0
1.4166,3.054856E-05,21.249,0,1.4166,-0.0001560998,21.249,0
1.4175,0.0001359579,21.2625,0,1.4175,-8.560311E-05,21.2625,0
1.4184,0.0001795987,21.276,0,1.4184,-1.812772E-05,21.276,0
1.4193,0.0001802701,21.2895,0,1.4193,-5.706874E-06,21.2895,0
1.4202,3.390555E-05,21.303,0,1.4202,0.0001530785,21.303,0
1.4211,-6.478981E-05,21.3165,0,1.4211,0.0002756084,21.3165,0
1.422,-7.687495E-05,21.33,0,1.422,0.0001201801,21.33,0
1.4229,-9.903105E-05,21.3435,0,1.4229,-2.349889E-06,21.3435,0
1.4238,-0.0001144732,21.357,0,1.4238,2.081331E-05,21.357,0
1.4247,-0.0001211871,21.3705,0,1.4247,-7.385367E-06,21.3705,0
1.4256,-2.484169E-05,21.384,0,1.4256,-4.867628E-05,21.384,0
1.4265,1.443504E-05,21.3975,0,1.4265,8.056763E-06,21.3975,0
1.4274,-3.692683E-06,21.411,0,1.4274,4.061952E-05,21.411,0
1.4283,-1.443504E-05,21.4245,0,1.4283,-4.46479E-05,21.4245,0
1.4292,-5.001907E-05,21.438,0,1.4292,-6.009003E-05,21.438,0
1.4301,-4.867628E-05,21.4515,0,1.4301,3.356985E-07,21.4515,0
1.431,-5.001907E-05,21.465,0,1.431,-3.390555E-05,21.465,0
1.4319,-3.927672E-05,21.4785,0,1.4319,-6.243992E-05,21.4785,0
1.4328,-1.141375E-05,21.492,0,1.4328,-0.0001067521,21.492,0
1.4337,-6.042573E-06,21.5055,0,1.4337,-9.265278E-05,21.5055,0
1.4346,-4.36408E-06,21.519,0,1.4346,-7.586786E-05,21.519,0
1.4355,1.040665E-05,21.5325,0,1.4355,-8.493171E-05,21.5325,0
1.4364,3.692683E-06,21.546,0,1.4364,1.712062E-05,21.546,0
1.4373,-5.203327E-05,21.5595,0,1.4373,0.0001215228,21.5595,0
1.4382,-3.491264E-05,21.573,0,1.4382,0.0001393149,21.573,0
1.4391,-6.713969E-07,21.5865,0,1.4391,6.344701E-05,21.5865,0
1.44,-3.021286E-05,21.6,0,1.44,3.659113E-05,21.6,0
1.4409,0.0001044022,21.6135,0,1.4409,-2.18204E-05,21.6135,0
1.4418,0.0001178302,21.627,0,1.4418,-0.0001148089,21.627,0
1.4427,3.961242E-05,21.6405,0,1.4427,-8.493171E-05,21.6405,0
1.4436,6.6804E-05,21.654,0,1.4436,-4.800488E-05,21.654,0
1.4445,0.0001174945,21.6675,0,1.4445,-4.39765E-05,21.6675,0
1.4454,6.076142E-05,21.681,0,1.4454,2.484169E-05,21.681,0
1.4463,3.726253E-05,21.6945,0,1.4463,-3.021286E-06,21.6945,0
1.4472,5.035477E-06,21.708,0,1.4472,-0.0001242084,21.708,0
1.4481,-0.0001272297,21.7215,0,1.4481,-0.0001295796,21.7215,0
1.449,-0.0002621805,21.735,0,1.449,-0.000154757,21.735,0
1.4499,-9.567407E-05,21.7485,0,1.4499,-0.0001373007,21.7485,0
1.4508,-7.586786E-05,21.762,0,1.4508,-4.162661E-05,21.762,0
1.4517,-2.819867E-05,21.7755,0,1.4517,5.471885E-05,21.7755,0
1.4526,6.814679E-05,21.789,0,1.4526,6.51255E-05,21.789,0
1.4535,2.349889E-05,21.8025,0,1.4535,-1.409934E-05,21.8025,0
1.4544,4.599069E-05,21.816,0,1.4544,-0.0001601282,21.816,0
1.4553,6.143282E-05,21.8295,0,1.4553,-0.0001957122,21.8295,0
1.4562,7.351797E-05,21.843,0,1.4562,-9.567407E-05,21.843,0
1.4571,3.021286E-05,21.8565,0,1.4571,7.351797E-05,21.8565,0
1.458,1.242084E-05,21.87,0,1.458,0.0003105211,21.87,0
1.4589,-0.0001305867,21.8835,0,1.4589,0.0003246204,21.8835,0
1.4598,1.342794E-06,21.897,0,1.4598,0.0001161517,21.897,0
1.4607,8.358892E-05,21.9105,0,1.4607,7.016098E-05,21.9105,0
1.4616,0.0001319295,21.924,0,1.4616,3.591974E-05,21.924,0
1.4625,9.970245E-05,21.9375,0,1.4625,-3.457694E-05,21.9375,0
1.4634,-0.0001060807,21.951,0,1.4634,-8.89601E-05,21.951,0
1.4643,-0.0002007477,21.9645,0,1.4643,-6.411841E-05,21.9645,0
1.4652,-0.0002400244,21.978,0,1.4652,-0.000109102,21.978,0
1.4661,-0.0001681849,21.9915,0,1.4661,-0.0001470359,21.9915,0
1.467,-8.291753E-05,22.005,0,1.467,-5.102617E-05,22.005,0
1.4679,7.150377E-05,22.0185,0,1.4679,-6.109713E-05,22.0185,0
1.4688,0.0002145113,22.032,0,1.4688,-0.0001430075,22.032,0
1.4697,0.0002386816,22.0455,0,1.4697,-0.0001077592,22.0455,0
1.4706,0.0001299153,22.059,0,1.4706,-7.956054E-05,22.059,0
1.4715,-6.042573E-05,22.0725,0,1.4715,-7.586786E-05,22.0725,0
1.4724,-0.0001534142,22.086,0,1.4724,2.987716E-05,22.086,0
1.4733,-0.0001856413,22.0995,0,1.4733,0.000105745,22.0995,0
1.4742,-0.0001762417,22.113,0,1.4742,0.0001255512,22.113,0
1.4751,-0.0001631495,22.1265,0,1.4751,1.644922E-05,22.1265,0
1.476,-8.96315E-05,22.14,0,1.476,-6.042573E-06,22.14,0
1.4769,1.040665E-05,22.1535,0,1.4769,6.042573E-06,22.1535,0
1.4778,-1.712062E-05,22.167,0,1.4778,4.095522E-05,22.167,0
1.4787,4.666209E-05,22.1805,0,1.4787,2.652018E-05,22.1805,0
1.4796,6.277562E-05,22.194,0,1.4796,-4.33051E-05,22.194,0
1.4805,2.517739E-05,22.2075,0,1.4805,-1.174945E-05,22.2075,0
1.4814,6.814679E-05,22.221,0,1.4814,2.1149E-05,22.221,0
1.4823,4.028382E-06,22.2345,0,1.4823,-3.860533E-05,22.2345,0
1.4832,-7.083238E-05,22.248,0,1.4832,-3.591974E-05,22.248,0
1.4841,6.881819E-05,22.2615,0,1.4841,-4.129091E-05,22.2615,0
1.485,0.000190341,22.275,0,1.485,-7.217517E-05,22.275,0
1.4859,0.000246067,22.2885,0,1.4859,-8.72816E-05,22.2885,0
1.4868,0.0001359579,22.302,0,1.4868,-9.533837E-05,22.302,0
1.4877,1.007095E-06,22.3155,0,1.4877,-8.392462E-06,22.3155,0
1.4886,-0.0002047761,22.329,0,1.4886,7.385367E-06,22.329,0
1.4895,-0.0002621805,22.3425,0,1.4895,-6.74754E-05,22.3425,0
1.4904,-3.659113E-05,22.356,0,1.4904,-7.855344E-05,22.356,0
1.4913,9.970245E-05,22.3695,0,1.4913,-1.644922E-05,22.3695,0
1.4922,1.107805E-05,22.383,0,1.4922,-2.349889E-06,22.383,0
1.4931,-9.063859E-06,22.3965,0,1.4931,-2.618448E-05,22.3965,0
1.494,-2.987716E-05,22.41,0,1.494,2.987716E-05,22.41,0
1.4949,-9.030289E-05,22.4235,0,1.4949,3.726253E-05,22.4235,0
1.4958,-5.807584E-05,22.437,0,1.4958,-3.054856E-05,22.437,0
1.4967,3.558404E-05,22.4505,0,1.4967,-6.74754E-05,22.4505,0
1.4976,1.309224E-05,22.464,0,1.4976,-5.203327E-05,22.464,0
1.4985,-8.89601E-05,22.4775,0,1.4985,-4.196231E-05,22.4775,0
1.4994,-0.0002178683,22.491,0,1.4994,-1.644922E-05,22.491,0
1.5003,-5.673304E-05,22.5045,0,1.5003,-7.418937E-05,22.5045,0
1.5012,9.735256E-06,22.518,0,1.5012,-6.948959E-05,22.518,0
1.5021,3.390555E-05,22.5315,0,1.5021,-3.457694E-05,22.5315,0
1.503,3.524834E-05,22.545,0,1.503,-5.673304E-05,22.545,0
1.5039,5.001907E-05,22.5585,0,1.5039,-4.095522E-05,22.5585,0
1.5048,0.000133608,22.572,0,1.5048,5.069047E-05,22.572,0
1.5057,0.0001544213,22.5855,0,1.5057,5.203327E-05,22.5855,0
1.5066,0.0001272297,22.599,0,1.5066,-3.088426E-05,22.599,0
1.5075,2.551309E-05,22.6125,0,1.5075,-3.591974E-05,22.6125,0
1.5084,-1.812772E-05,22.626,0,1.5084,-6.881819E-05,22.626,0
1.5093,-9.298848E-05,22.6395,0,1.5093,-0.000144686,22.6395,0
1.5102,-0.0001292439,22.653,0,1.5102,-0.0001221943,22.653,0
1.5111,-7.318227E-05,22.6665,0,1.5111,-6.713969E-07,22.6665,0
1.512,-6.814679E-05,22.68,0,1.512,-4.699779E-06,22.68,0
1.5129,-3.558404E-05,22.6935,0,1.5129,-0.0001181659,22.6935,0
1.5138,-6.378271E-06,22.707,0,1.5138,-9.365987E-05,22.707,0
1.5147,2.21561E-05,22.7205,0,1.5147,-7.821774E-05,22.7205,0
1.5156,1.577783E-05,22.734,0,1.5156,-0.0001849699,22.734,0
1.5165,3.860533E-05,22.7475,0,1.5165,-0.0001896696,22.7475,0
1.5174,0.0001634852,22.761,0,1.5174,-0.0001047379,22.761,0
1.5183,0.0001195087,22.7745,0,1.5183,0.0001070878,22.7745,0
1.5192,6.378271E-05,22.788,0,1.5192,8.72816E-05,22.788,0
1.5201,7.385367E-05,22.8015,0,1.5201,8.72816E-05,22.8015,0
1.521,-6.042573E-06,22.815,0,1.521,0.0003649043,22.815,0
1.5219,-0.0001597925,22.8285,0,1.5219,0.0004531929,22.8285,0
1.5228,-4.196231E-05,22.842,0,1.5228,0.0003743038,22.842,0
1.5237,-1.007095E-05,22.8555,0,1.5237,0.000231632,22.8555,0
1.5246,-6.176852E-05,22.869,0,1.5246,0.0001607996,22.869,0
1.5255,-0.0001144732,22.8825,0,1.5255,9.500267E-05,22.8825,0
1.5264,-0.0001520714,22.896,0,1.5264,8.392462E-06,22.896,0
1.5273,-6.478981E-05,22.9095,0,1.5273,-4.632639E-05,22.9095,0
1.5282,7.183947E-05,22.923,0,1.5282,-9.735256E-06,22.923,0
1.5291,0.0001675135,22.9365,0,1.5291,-6.54612E-05,22.9365,0
1.53,0.0002574807,22.95,0,1.53,-0.0001010452,22.95,0
1.5309,0.000246067,22.9635,0,1.5309,-0.0001040665,22.9635,0
1.5318,8.023193E-05,22.977,0,1.5318,-3.591974E-05,22.977,0
1.5327,-4.766919E-05,22.9905,0,1.5327,3.692683E-06,22.9905,0
1.5336,-0.0001507286,23.004,0,1.5336,-5.035477E-05,23.004,0
1.5345,-0.0002608377,23.0175,0,1.5345,-6.57969E-05,23.0175,0
1.5354,-0.0002769512,23.031,0,1.5354,-5.438316E-05,23.031,0
1.5363,-0.0001064164,23.0445,0,1.5363,-0.0001987335,23.0445,0
1.5372,2.383459E-05,23.058,0,1.5372,-0.000193698,23.058,0
1.5381,0.0001208515,23.0715,0,1.5381,-0.0001087663,23.0715,0
1.539,0.0001030594,23.085,0,1.539,-0.0001332723,23.085,0
1.5399,3.189136E-05,23.0985,0,1.5399,-0.0002987717,23.0985,0
1.5408,-2.652018E-05,23.112,0,1.5408,-0.0005317464,23.112,0
1.5417,-0.0001738918,23.1255,0,1.5417,-0.0005206683,23.1255,0
1.5426,-0.0002088045,23.139,0,1.5426,-0.0002803082,23.139,0
1.5435,1.745632E-05,23.1525,0,1.5435,-0.0001748989,23.1525,0
1.5444,9.097429E-05,23.166,0,1.5444,-0.0001658351,23.166,0
1.5453,-1.644922E-05,23.1795,0,1.5453,0.0002336461,23.1795,0
1.5462,-1.980621E-05,23.193,0,1.5462,0.0005515526,23.193,0
1.5471,4.095522E-05,23.2065,0,1.5471,0.0004867628,23.2065,0
1.548,1.107805E-05,23.22,0,1.548,0.0004014954,23.22,0
1.5489,8.023193E-05,23.2335,0,1.5489,0.0003508049,23.2335,0
1.5498,6.277562E-05,23.247,0,1.5498,0.0002084688,23.247,0
1.5507,6.411841E-05,23.2605,0,1.5507,6.109713E-05,23.2605,0
1.5516,-8.392462E-06,23.274,0,1.5516,6.6804E-05,23.274,0
1.5525,-3.524834E-05,23.2875,0,1.5525,1.342794E-05,23.2875,0
1.5534,-0.0001765774,23.301,0,1.5534,-8.358892E-05,23.301,0
1.5543,-0.0002299535,23.3145,0,1.5543,-0.0001638209,23.3145,0
1.5552,-0.000224918,23.328,0,1.5552,-0.0001064164,23.328,0
1.5561,-2.047761E-05,23.3415,0,1.5561,-3.054856E-05,23.3415,0
1.557,6.277562E-05,23.355,0,1.557,-2.786297E-05,23.355,0
1.5579,1.913481E-05,23.3685,0,1.5579,-4.49836E-05,23.3685,0
1.5588,-1.040665E-05,23.382,0,1.5588,9.332418E-05,23.382,0
1.5597,4.095522E-05,23.3955,0,1.5597,7.553216E-05,23.3955,0
1.5606,6.478981E-05,23.409,0,1.5606,-9.164568E-05,23.409,0
1.5615,7.620356E-05,23.4225,0,1.5615,-7.687495E-05,23.4225,0
1.5624,-0.0001114519,23.436,0,1.5624,-0.0002064546,23.436,0
1.5633,-0.0001809415,23.4495,0,1.5633,-0.0003068284,23.4495,0
1.5642,-6.478981E-05,23.463,0,1.5642,-0.0002487526,23.463,0
1.5651,5.404745E-05,23.4765,0,1.5651,-0.0002131685,23.4765,0
1.566,0.0001849699,23.49,0,1.566,-0.0001248798,23.49,0
1.5669,0.000186984,23.5035,0,1.5669,6.109713E-05,23.5035,0
1.5678,0.0001886625,23.517,0,1.5678,0.0002131685,23.517,0
1.5687,6.076142E-05,23.5305,0,1.5687,0.0001742275,23.5305,0
1.5696,3.927672E-05,23.544,0,1.5696,0.0001376364,23.544,0
1.5705,3.793393E-05,23.5575,0,1.5705,4.599069E-05,23.5575,0
1.5714,0.0001258869,23.571,0,1.5714,-9.735256E-06,23.571,0
1.5723,0.0001218585,23.5845,0,1.5723,-1.510643E-05,23.5845,0
1.5732,-5.673304E-05,23.598,0,1.5732,-1.712062E-05,23.598,0
1.5741,-0.0001376364,23.6115,0,1.5741,-6.61326E-05,23.6115,0
1.575,-9.735256E-05,23.625,0,1.575,-2.584878E-05,23.625,0
1.5759,-0.000179263,23.6385,0,1.5759,-3.726253E-05,23.6385,0
1.5768,2.24918E-05,23.652,0,1.5768,-0.0001121233,23.652,0
1.5777,0.0002668803,23.6655,0,1.5777,-0.000126894,23.6655,0
1.5786,1.846342E-05,23.679,0,1.5786,-0.0001050736,23.679,0
1.5795,-7.855344E-05,23.6925,0,1.5795,-0.0001084306,23.6925,0
1.5804,9.433127E-05,23.706,0,1.5804,-8.627451E-05,23.706,0
1.5813,0.0001272297,23.7195,0,1.5813,-3.390555E-05,23.7195,0
1.5822,-0.0001050736,23.733,0,1.5822,-1.107805E-05,23.733,0
1.5831,-8.560311E-05,23.7465,0,1.5831,2.652018E-05,23.7465,0
1.584,5.304036E-05,23.76,0,1.584,3.289845E-05,23.76,0
1.5849,-0.0001873197,23.7735,0,1.5849,9.399558E-06,23.7735,0
1.5858,-0.0005381246,23.787,0,1.5858,6.344701E-05,23.787,0
1.5867,-0.0003820249,23.8005,0,1.5867,6.009003E-05,23.8005,0
1.5876,-8.69459E-05,23.814,0,1.5876,1.678492E-05,23.814,0
1.5885,-2.18204E-05,23.8275,0,1.5885,-5.673304E-05,23.8275,0
1.5894,2.484169E-05,23.841,0,1.5894,-0.0001362936,23.841,0
1.5903,5.236896E-05,23.8545,0,1.5903,-0.0002081331,23.8545,0
1.5912,-1.980621E-05,23.868,0,1.5912,-0.0001795987,23.868,0
1.5921,2.987716E-05,23.8815,0,1.5921,-0.0001027237,23.8815,0
1.593,0.000112459,23.895,0,1.593,-6.78111E-05,23.895,0
1.5939,0.0001238727,23.9085,0,1.5939,2.349889E-05,23.9085,0
1.5948,9.600977E-05,23.922,0,1.5948,7.754635E-05,23.922,0
1.5957,0.0001537499,23.9355,0,1.5957,0.0001473716,23.9355,0
1.5966,9.500267E-05,23.949,0,1.5966,0.0001312581,23.949,0
1.5975,8.761731E-05,23.9625,0,1.5975,8.224613E-05,23.9625,0
1.5984,8.493171E-05,23.976,0,1.5984,-3.222705E-05,23.976,0
1.5993,-5.874724E-05,23.9895,0,1.5993,1.678492E-05,23.9895,0
1.6002,-0.0001097734,24.003,0,1.6002,-7.049668E-06,24.003,0
1.6011,-7.888914E-05,24.0165,0,1.6011,-5.740444E-05,24.0165,0
1.602,-8.761731E-05,24.03,0,1.602,4.028382E-06,24.03,0
1.6029,-0.0001520714,24.0435,0,1.6029,-5.270466E-05,24.0435,0
1.6038,-0.0001440146,24.057,0,1.6038,-0.0001205158,24.057,0
1.6047,2.819867E-05,24.0705,0,1.6047,-0.000115816,24.0705,0
1.6056,7.183947E-05,24.084,0,1.6056,-0.0001064164,24.084,0
1.6065,0.0001832914,24.0975,0,1.6065,-8.426032E-05,24.0975,0
1.6074,0.0002128328,24.111,0,1.6074,-5.136187E-05,24.111,0
1.6083,2.517739E-05,24.1245,0,1.6083,8.123904E-05,24.1245,0
1.6092,-3.793393E-05,24.138,0,1.6092,0.0002370031,24.138,0
1.6101,-0.0001386435,24.1515,0,1.6101,0.0001728847,24.1515,0
1.611,-5.874724E-05,24.165,0,1.611,9.298848E-05,24.165,0
1.6119,2.047761E-05,24.1785,0,1.6119,-3.591974E-05,24.1785,0
1.6128,5.169757E-05,24.192,0,1.6128,-6.74754E-05,24.192,0
1.6137,0.0001131304,24.2055,0,1.6137,-0.0002185397,24.2055,0
1.6146,8.090334E-05,24.219,0,1.6146,-0.0003440909,24.219,0
1.6155,-3.659113E-05,24.2325,0,1.6155,-0.0003014572,24.2325,0
1.6164,-2.987716E-05,24.246,0,1.6164,-0.0002480812,24.246,0
1.6173,8.291753E-05,24.2595,0,1.6173,-0.0001356222,24.2595,0
1.6182,4.39765E-05,24.273,0,1.6182,7.821774E-05,24.273,0
1.6191,-9.433127E-05,24.2865,0,1.6191,0.0003017929,24.2865,0
1.62,-9.298848E-05,24.3,0,1.62,0.0001070878,24.3,0
1.6209,-9.701686E-05,24.3135,0,1.6209,3.457694E-05,24.3135,0
1.6218,-6.243992E-05,24.327,0,1.6218,0.0001121233,24.327,0
1.6227,-6.71397E-05,24.3405,0,1.6227,0.0001463645,24.3405,0
1.6236,-4.934768E-05,24.354,0,1.6236,0.0001634852,24.354,0
1.6245,-3.289845E-05,24.3675,0,1.6245,0.0001963836,24.3675,0
1.6254,3.692683E-06,24.381,0,1.6254,0.0002104829,24.381,0
1.6263,-3.054856E-05,24.3945,0,1.6263,0.0001980621,24.3945,0
1.6272,-3.155566E-05,24.408,0,1.6272,-5.673304E-05,24.408,0
1.6281,-2.786297E-05,24.4215,0,1.6281,-0.0001920195,24.4215,0
1.629,-2.24918E-05,24.435,0,1.629,-0.0001507286,24.435,0
1.6299,8.023193E-05,24.4485,0,1.6299,-0.0001205158,24.4485,0
1.6308,0.0001151446,24.462,0,1.6308,-6.143282E-05,24.462,0
1.6317,6.948959E-05,24.4755,0,1.6317,8.291753E-05,24.4755,0
1.6326,8.661021E-05,24.489,0,1.6326,0.0002171969,24.489,0
1.6335,5.035477E-05,24.5025,0,1.6335,0.0001681849,24.5025,0
1.6344,-2.349889E-06,24.516,0,1.6344,3.558404E-05,24.516,0
1.6353,0.0002373388,24.5295,0,1.6353,-9.399558E-06,24.5295,0
1.6362,0.0001950408,24.543,0,1.6362,4.934768E-05,24.543,0
1.6371,-1.712062E-05,24.5565,0,1.6371,1.174945E-05,24.5565,0
1.638,-8.761731E-05,24.57,0,1.638,-6.848249E-05,24.57,0
1.6389,-4.565499E-05,24.5835,0,1.6389,-0.000140322,24.5835,0
1.6398,-0.0001211871,24.597,0,1.6398,-0.0001436789,24.597,0
1.6407,-0.0001037308,24.6105,0,1.6407,-0.000148043,24.6105,0
1.6416,1.712062E-05,24.624,0,1.6416,-0.0002299535,24.624,0
1.6425,-1.174945E-05,24.6375,0,1.6425,-0.0001866484,24.6375,0
1.6434,-0.0001322652,24.651,0,1.6434,-0.0001164874,24.651,0
1.6443,-0.0001507286,24.6645,0,1.6443,-0.0001020523,24.6645,0
1.6452,-0.0001383078,24.678,0,1.6452,-1.141375E-05,24.678,0
1.6461,-1.712062E-05,24.6915,0,1.6461,1.174945E-05,24.6915,0
1.647,-1.510643E-05,24.705,0,1.647,-2.484169E-05,24.705,0
1.6479,-8.224613E-05,24.7185,0,1.6479,-6.277562E-05,24.7185,0
1.6488,-0.0001265583,24.732,0,1.6488,-6.948959E-05,24.732,0
1.6497,-0.0001228656,24.7455,0,1.6497,-0.0001396506,24.7455,0
1.6506,-3.054856E-05,24.759,0,1.6506,-0.000172549,24.759,0
1.6515,6.61326E-05,24.7725,0,1.6515,-0.0001678492,24.7725,0
1.6524,2.853437E-05,24.786,0,1.6524,-0.0001413291,24.786,0
1.6533,4.36408E-06,24.7995,0,1.6533,2.014191E-06,24.7995,0
1.6542,1.443504E-05,24.813,0,1.6542,7.721065E-06,24.813,0
1.6551,0.0001571069,24.8265,0,1.6551,3.994812E-05,24.8265,0
1.656,0.0002051118,24.84,0,1.656,0.0001755703,24.84,0
1.6569,0.0002010834,24.8535,0,1.6569,0.0002648661,24.8535,0
1.6578,8.69459E-05,24.867,0,1.6578,0.0001507286,24.867,0
1.6587,9.365987E-05,24.8805,0,1.6587,0.0001406577,24.8805,0
1.6596,5.807584E-05,24.894,0,1.6596,0.0001715419,24.894,0
1.6605,3.256275E-05,24.9075,0,1.6605,0.0001007095,24.9075,0
1.6614,-0.0001346151,24.921,0,1.6614,7.049668E-06,24.921,0
1.6623,-0.0002245823,24.9345,0,1.6623,-6.210422E-05,24.9345,0
1.6632,-0.000105745,24.948,0,1.6632,-6.948959E-05,24.948,0
1.6641,-0.0001886625,24.9615,0,1.6641,-7.016098E-05,24.9615,0
1.665,-0.0001916838,24.975,0,1.665,-9.533837E-05,24.975,0
1.6659,-8.023193E-05,24.9885,0,1.6659,-9.600977E-05,24.9885,0
1.6668,-4.129091E-05,25.002,0,1.6668,-0.0001010452,25.002,0
1.6677,-6.6804E-05,25.0155,0,1.6677,-0.0001339437,25.0155,0
1.6686,-5.706874E-06,25.029,0,1.6686,-0.0001665064,25.029,0
1.6695,5.035477E-06,25.0425,0,1.6695,-0.0001443503,25.0425,0
1.6704,4.867628E-05,25.056,0,1.6704,-0.0001520714,25.056,0
1.6713,0.000185977,25.0695,0,1.6713,-6.61326E-05,25.0695,0
1.6722,0.000158114,25.083,0,1.6722,6.881819E-05,25.083,0
1.6731,-4.934768E-05,25.0965,0,1.6731,2.987716E-05,25.0965,0
1.674,2.584878E-05,25.11,0,1.674,-1.510643E-05,25.11,0
1.6749,-4.33051E-05,25.1235,0,1.6749,2.819867E-05,25.1235,0
1.6758,-0.0001117876,25.137,0,1.6758,-9.768826E-05,25.137,0
1.6767,1.174945E-05,25.1505,0,1.6767,-0.0001634852,25.1505,0
1.6776,0.0001500572,25.164,0,1.6776,-0.0001362936,25.164,0
1.6785,0.000105745,25.1775,0,1.6785,-7.486076E-05,25.1775,0
1.6794,9.768826E-05,25.191,0,1.6794,9.634547E-05,25.191,0
1.6803,1.678492E-06,25.2045,0,1.6803,0.000190341,25.2045,0
1.6812,-0.0002984359,25.218,0,1.6812,0.0001339437,25.218,0
1.6821,-0.0004736705,25.2315,0,1.6821,7.318227E-05,25.2315,0
1.683,-0.0002776226,25.245,0,1.683,4.129091E-05,25.245,0
1.6839,-4.061952E-05,25.2585,0,1.6839,-5.639734E-05,25.2585,0
1.6848,1.577783E-05,25.272,0,1.6848,-6.210422E-05,25.272,0
1.6857,0.0001339437,25.2855,0,1.6857,-2.584878E-05,25.2855,0
1.6866,9.567407E-05,25.299,0,1.6866,5.673304E-05,25.299,0
1.6875,4.061952E-05,25.3125,0,1.6875,0.0001030594,25.3125,0
1.6884,6.076142E-05,25.326,0,1.6884,5.169757E-05,25.326,0
1.6893,1.510643E-05,25.3395,0,1.6893,6.378271E-06,25.3395,0
1.6902,7.016098E-05,25.353,0,1.6902,2.584878E-05,25.353,0
1.6911,0.0001272297,25.3665,0,1.6911,1.007095E-06,25.3665,0
1.692,0.0001715419,25.38,0,1.692,-5.304036E-05,25.38,0
1.6929,0.0001470359,25.3935,0,1.6929,-8.89601E-05,25.3935,0
1.6938,0.000102388,25.407,0,1.6938,-4.800488E-05,25.407,0
1.6947,0.000126894,25.4205,0,1.6947,4.901198E-05,25.4205,0
1.6956,2.047761E-05,25.434,0,1.6956,3.189136E-05,25.434,0
1.6965,-0.0001406577,25.4475,0,1.6965,-6.713969E-06,25.4475,0
1.6974,-7.553216E-05,25.461,0,1.6974,-3.256275E-05,25.461,0
1.6983,2.584878E-05,25.4745,0,1.6983,-9.768826E-05,25.4745,0
1.6992,-5.069047E-05,25.488,0,1.6992,-0.0001141375,25.488,0
1.7001,-3.659113E-05,25.5015,0,1.7001,-6.814679E-05,25.5015,0
1.701,-1.040665E-05,25.515,0,1.701,-2.853437E-05,25.515,0
1.7019,-4.33051E-05,25.5285,0,1.7019,-7.721065E-05,25.5285,0
1.7028,3.625543E-05,25.542,0,1.7028,-0.0001440146,25.542,0
1.7037,0.0001299153,25.5555,0,1.7037,-6.881819E-05,25.5555,0
1.7046,3.189136E-05,25.569,0,1.7046,-1.577783E-05,25.569,0
1.7055,5.706874E-06,25.5825,0,1.7055,-0.0001013809,25.5825,0
1.7064,-6.713969E-06,25.596,0,1.7064,-5.337606E-05,25.596,0
1.7073,-0.0001017166,25.6095,0,1.7073,0.0001923552,25.6095,0
1.7082,-8.96315E-05,25.623,0,1.7082,0.000179263,25.623,0
1.7091,3.189136E-05,25.6365,0,1.7091,-1.644922E-05,25.6365,0
1.71,-6.713969E-06,25.65,0,1.71,1.477073E-05,25.65,0
1.7109,-5.371176E-06,25.6635,0,1.7109,3.121996E-05,25.6635,0
1.7118,-8.392462E-06,25.677,0,1.7118,-9.835965E-05,25.677,0
1.7127,-5.304036E-05,25.6905,0,1.7127,-6.915389E-05,25.6905,0
1.7136,-6.814679E-05,25.704,0,1.7136,3.189136E-05,25.704,0
1.7145,-1.242084E-05,25.7175,0,1.7145,9.735256E-06,25.7175,0
1.7154,-6.74754E-05,25.731,0,1.7154,4.028382E-06,25.731,0
1.7163,-0.0001564355,25.7445,0,1.7163,-0.0001916838,25.7445,0
1.7172,-1.913481E-05,25.758,0,1.7172,-0.0003205921,25.758,0
1.7181,8.123904E-05,25.7715,0,1.7181,-0.0003172351,25.7715,0
1.719,3.323415E-05,25.785,0,1.719,-0.0002893721,25.785,0
1.7199,5.706874E-06,25.7985,0,1.7199,-0.0002010834,25.7985,0
1.7208,-8.392462E-06,25.812,0,1.7208,8.191043E-05,25.812,0
1.7217,-0.0001789273,25.8255,0,1.7217,0.0002735943,25.8255,0
1.7226,-0.0001265583,25.839,0,1.7226,0.0002302892,25.839,0
1.7235,9.164568E-05,25.8525,0,1.7235,0.0003024643,25.8525,0
1.7244,-2.484169E-05,25.866,0,1.7244,0.0001900053,25.866,0
1.7253,5.035477E-06,25.8795,0,1.7253,7.687495E-05,25.8795,0
1.7262,-1.644922E-05,25.893,0,1.7262,7.620356E-05,25.893,0
1.7271,-2.786297E-05,25.9065,0,1.7271,6.54612E-05,25.9065,0
1.728,-1.007095E-05,25.92,0,1.728,-8.392462E-06,25.92,0
1.7289,-7.687495E-05,25.9335,0,1.7289,-5.001907E-05,25.9335,0
1.7298,3.826963E-05,25.947,0,1.7298,-7.016098E-05,25.947,0
1.7307,7.284657E-05,25.9605,0,1.7307,-4.599069E-05,25.9605,0
1.7316,0.0001017166,25.974,0,1.7316,-2.450599E-05,25.974,0
1.7325,8.023193E-05,25.9875,0,1.7325,4.599069E-05,25.9875,0
1.7334,6.378271E-05,26.001,0,1.7334,2.316319E-05,26.001,0
1.7343,2.920577E-05,26.0145,0,1.7343,-5.270466E-05,26.0145,0
1.7352,-7.553216E-05,26.028,0,1.7352,-0.0001500572,26.028,0
1.7361,3.121996E-05,26.0415,0,1.7361,-0.0002500954,26.0415,0
1.737,0.0001044022,26.055,0,1.737,-0.0002329748,26.055,0
1.7379,-4.699779E-05,26.0685,0,1.7379,-0.0001550927,26.0685,0
1.7388,-0.0002155184,26.082,0,1.7388,-3.256275E-05,26.082,0
1.7397,-6.51255E-05,26.0955,0,1.7397,3.726253E-05,26.0955,0
1.7406,-3.356985E-06,26.109,0,1.7406,0.0001151446,26.109,0
1.7415,-6.378271E-06,26.1225,0,1.7415,0.0002396887,26.1225,0
1.7424,-2.786297E-05,26.136,0,1.7424,0.0002682231,26.136,0
1.7433,-3.793393E-05,26.1495,0,1.7433,0.0001339437,26.1495,0
1.7442,-2.450599E-05,26.163,0,1.7442,6.076142E-05,26.163,0
1.7451,9.365987E-05,26.1765,0,1.7451,-6.814679E-05,26.1765,0
1.746,5.539025E-05,26.19,0,1.746,-0.0001534142,26.19,0
1.7469,-1.107805E-05,26.2035,0,1.7469,-0.0001853056,26.2035,0
1.7478,2.920577E-05,26.217,0,1.7478,-8.291753E-05,26.217,0
1.7487,1.141375E-05,26.2305,0,1.7487,-8.69459E-05,26.2305,0
1.7496,-1.678492E-06,26.244,0,1.7496,-9.063859E-06,26.244,0
1.7505,4.061952E-05,26.2575,0,1.7505,0.0001856413,26.2575,0
1.7514,-0.0001033951,26.271,0,1.7514,8.258183E-05,26.271,0
1.7523,-9.265278E-05,26.2845,0,1.7523,-3.860533E-05,26.2845,0
1.7532,-6.71397E-05,26.298,0,1.7532,-4.061952E-05,26.298,0
1.7541,-0.000109102,26.3115,0,1.7541,-4.565499E-05,26.3115,0
1.755,3.457694E-05,26.325,0,1.755,-2.584878E-05,26.325,0
1.7559,0.0001802701,26.3385,0,1.7559,-0.0002010834,26.3385,0
1.7568,0.000203769,26.352,0,1.7568,-0.0003937743,26.352,0
1.7577,0.0001440146,26.3655,0,1.7577,-0.0003158923,26.3655,0
1.7586,2.24918E-05,26.379,0,1.7586,-0.0002269322,26.379,0
1.7595,-7.116808E-05,26.3925,0,1.7595,-6.71397E-05,26.3925,0
1.7604,-8.86244E-05,26.406,0,1.7604,9.365987E-05,26.406,0
1.7613,1.779202E-05,26.4195,0,1.7613,0.0002776226,26.4195,0
1.7622,7.049668E-06,26.433,0,1.7622,0.0002158541,26.433,0
1.7631,4.733349E-05,26.4465,0,1.7631,0.0002057832,26.4465,0
1.764,-3.323415E-05,26.46,0,1.764,0.0001144732,26.46,0
1.7649,-0.0001554284,26.4735,0,1.7649,4.162661E-05,26.4735,0
1.7658,-0.0002020905,26.487,0,1.7658,4.632639E-05,26.487,0
1.7667,-3.424125E-05,26.5005,0,1.7667,8.224613E-05,26.5005,0
1.7676,9.399558E-06,26.514,0,1.7676,-5.304036E-05,26.514,0
1.7685,-1.712062E-05,26.5275,0,1.7685,-0.0001406577,26.5275,0
1.7694,-4.666209E-05,26.541,0,1.7694,-8.358892E-05,26.541,0
1.7703,4.934768E-05,26.5545,0,1.7703,-0.0001003738,26.5545,0
1.7712,3.726253E-05,26.568,0,1.7712,-6.478981E-05,26.568,0
1.7721,-6.948959E-05,26.5815,0,1.7721,-2.014191E-06,26.5815,0
1.773,-5.438316E-05,26.595,0,1.773,9.735256E-06,26.595,0
1.7739,-9.634547E-05,26.6085,0,1.7739,-2.920577E-05,26.6085,0
1.7748,-0.0001550927,26.622,0,1.7748,3.155566E-05,26.622,0
1.7757,-0.0001205158,26.6355,0,1.7757,1.846342E-05,26.6355,0
1.7766,7.553216E-05,26.649,0,1.7766,7.385367E-06,26.649,0
1.7775,0.0001117876,26.6625,0,1.7775,9.500267E-05,26.6625,0
1.7784,0.0001500572,26.676,0,1.7784,3.054856E-05,26.676,0
1.7793,0.0001010452,26.6895,0,1.7793,-8.627451E-05,26.6895,0
1.7802,0.000105745,26.703,0,1.7802,-0.0001305867,26.703,0
1.7811,0.0002057832,26.7165,0,1.7811,-6.210422E-05,26.7165,0
1.782,0.000154757,26.73,0,1.782,-4.162661E-05,26.73,0
1.7829,1.846342E-05,26.7435,0,1.7829,-0.0001211871,26.7435,0
1.7838,-0.000224918,26.757,0,1.7838,-0.0002400244,26.757,0
1.7847,-0.0002994431,26.7705,0,1.7847,-0.000285008,26.7705,0
1.7856,-0.0002433814,26.784,0,1.7856,-0.00042533,26.784,0
1.7865,-9.735256E-05,26.7975,0,1.7865,-0.0005972076,26.7975,0
1.7874,5.371176E-06,26.811,0,1.7874,-0.0004501717,26.811,0
1.7883,-5.102617E-05,26.8245,0,1.7883,-0.0002192111,26.8245,0
1.7892,-7.418937E-05,26.838,0,1.7892,8.996719E-05,26.838,0
1.7901,-3.256275E-05,26.8515,0,1.7901,0.000524361,26.8515,0
1.791,1.712062E-05,26.865,0,1.791,0.0009104143,26.865,0
1.7919,-1.913481E-05,26.8785,0,1.7919,0.0007489433,26.8785,0
1.7928,2.987716E-05,26.892,0,1.7928,0.0004360723,26.892,0
1.7937,-2.685588E-06,26.9055,0,1.7937,0.0002252537,26.9055,0
1.7946,-2.1149E-05,26.919,0,1.7946,0.000144686,26.919,0
1.7955,4.599069E-05,26.9325,0,1.7955,5.270466E-05,26.9325,0
1.7964,5.069047E-05,26.946,0,1.7964,1.510643E-05,26.946,0
1.7973,-2.18204E-05,26.9595,0,1.7973,-4.934768E-05,26.9595,0
1.7982,0.0001326009,26.973,0,1.7982,-0.0001020523,26.973,0
1.7991,0.0001762417,26.9865,0,1.7991,-0.0001802701,26.9865,0
1.8,-2.1149E-05,27,0,1.8,-0.0002806439,27,0
1.8009,-2.081331E-05,27.0135,0,1.8009,-0.0002551308,27.0135,0
1.8018,0.0001755703,27.027,0,1.8018,-0.0001305867,27.027,0
1.8027,7.351797E-05,27.0405,0,1.8027,-0.0001174945,27.0405,0
1.8036,2.618448E-05,27.054,0,1.8036,-5.874724E-05,27.054,0
1.8045,8.157473E-05,27.0675,0,1.8045,2.618448E-05,27.0675,0
1.8054,2.450599E-05,27.081,0,1.8054,-3.390555E-05,27.081,0
1.8063,-7.754635E-05,27.0945,0,1.8063,-4.901198E-05,27.0945,0
1.8072,-0.0001067521,27.108,0,1.8072,-5.337606E-05,27.108,0
1.8081,0.000148043,27.1215,0,1.8081,-0.0001856413,27.1215,0
1.809,0.0003420768,27.135,0,1.809,-0.0001661708,27.135,0
1.8099,0.000207126,27.1485,0,1.8099,-9.265278E-05,27.1485,0
1.8108,-0.000123537,27.162,0,1.8108,-5.203327E-05,27.162,0
1.8117,-0.0002688945,27.1755,0,1.8117,1.544213E-05,27.1755,0
1.8126,-0.0004384222,27.189,0,1.8126,0.0001430075,27.189,0
1.8135,-0.0003998169,27.2025,0,1.8135,8.89601E-05,27.2025,0
1.8144,3.356985E-07,27.216,0,1.8144,-5.807584E-05,27.216,0
1.8153,-3.054856E-05,27.2295,0,1.8153,-5.169757E-05,27.2295,0
1.8162,-0.000144686,27.243,0,1.8162,-4.901198E-05,27.243,0
1.8171,-8.661021E-05,27.2565,0,1.8171,-2.618448E-05,27.2565,0
1.818,-6.881819E-05,27.27,0,1.818,8.92958E-05,27.27,0
1.8189,9.063859E-06,27.2835,0,1.8189,-5.404745E-05,27.2835,0
1.8198,8.224613E-05,27.297,0,1.8198,-0.0003222706,27.297,0
