X[s],"Trigno IM sensor 3: EMG 3 (IM)",X[s],"Trigno IM sensor 3: Mag 3.Z (IM)",X[s],"Trigno IM sensor 4: EMG 4 (IM)",X[s],"Trigno IM sensor 4: Mag 4.Z (IM)"
0.000000,-7.721065E-06,0.000000,118,0.000000,-1.913481E-05,0.000000,0
0.0009,7.721065E-06,0.0135,120,0.0009,3.356985E-07,0.0135,0
0.0018,-9.735256E-06,0.027,120,0.0018,1.779202E-05,0.027,1
0.0027,-6.042573E-06,0.0405,119,0.0027,-1.342794E-06,0.0405,0
0.0036,-2.316319E-05,0.054,119,0.0036,-1.376364E-05,0.054,1
0.0045,-3.524834E-05,0.0675,120,0.0045,-1.342794E-05,0.0675,0
0.0054,-1.644922E-05,0.081,117,0.0054,-3.021286E-06,0.081,1
0.0063,-1.913481E-05,0.0945,119,0.0063,-2.652018E-05,0.0945,2
0.0072,7.385367E-06,0.108,118,0.0072,-2.987716E-05,0.108,0
0.0081,-1.443504E-05,0.1215,119,0.0081,-1.947051E-05,0.1215,1
0.009000001,1.342794E-06,0.135,118,0.009000001,-2.316319E-05,0.135,0
0.0099,4.129091E-05,0.1485,118,0.0099,-2.24918E-05,0.1485,4
0.0108,2.28275E-05,0.162,119,0.0108,-3.121996E-05,0.162,-1
0.0117,-3.692683E-06,0.1755,118,0.0117,-1.242084E-05,0.1755,0
0.0126,-3.021286E-06,0.189,118,0.0126,-2.24918E-05,0.189,0
0.0135,-2.014191E-05,0.2025,119,0.0135,-1.947051E-05,0.2025,0
0.0144,-2.517739E-05,0.216,118,0.0144,-3.961242E-05,0.216,0
0.0153,1.678492E-06,0.2295,118,0.0153,-2.417029E-05,0.2295,0
0.0162,-1.712062E-05,0.243,119,0.0162,-3.189136E-05,0.243,1
0.0171,-4.33051E-05,0.2565,118,0.0171,-3.222705E-05,0.2565,0
0.018,-4.53193E-05,0.27,118,0.018,-2.450599E-05,0.27,0
0.0189,-2.18204E-05,0.2835,118,0.0189,-4.129091E-05,0.2835,1
0.0198,-1.342794E-05,0.297,117,0.0198,-4.129091E-05,0.297,2
0.0207,-5.706874E-06,0.3105,117,0.0207,-3.356985E-05,0.3105,0
0.0216,5.035477E-06,0.324,120,0.0216,-3.659113E-05,0.324,0
0.0225,1.644922E-05,0.3375,118,0.0225,-2.14847E-05,0.3375,0
0.0234,5.337606E-05,0.351,119,0.0234,-2.584878E-05,0.351,0
0.0243,1.980621E-05,0.3645,118,0.0243,-3.121996E-05,0.3645,-1
0.0252,-4.028382E-06,0.378,119,0.0252,-2.014191E-05,0.378,1
0.0261,-1.376364E-05,0.3915,119,0.0261,-1.544213E-05,0.3915,-1
0.027,-4.36408E-06,0.405,118,0.027,-2.752728E-05,0.405,-2
0.0279,-7.049668E-06,0.4185,118,0.0279,-3.726253E-05,0.4185,0
0.0288,3.356985E-07,0.432,117,0.0288,-6.378271E-05,0.432,0
0.0297,2.21561E-05,0.4455,119,0.0297,-2.752728E-05,0.4455,0
0.0306,3.961242E-05,0.459,118,0.0306,-2.786297E-05,0.459,0
0.0315,-4.36408E-06,0.4725,118,0.0315,-5.740444E-05,0.4725,0
0.0324,-4.699779E-06,0.486,119,0.0324,-5.404745E-05,0.486,0
0.0333,1.342794E-06,0.4995,118,0.0333,-3.356985E-06,0.4995,1
0.0342,-1.141375E-05,0.513,119,0.0342,-1.644922E-05,0.513,0
0.0351,-1.007095E-06,0.5265,118,0.0351,-5.874724E-05,0.5265,1
0.036,-3.692683E-06,0.54,117,0.036,7.721065E-06,0.54,-3
0.0369,-2.819867E-05,0.5535,117,0.0369,2.819867E-05,0.5535,-1
0.0378,-3.390555E-05,0.567,120,0.0378,-1.443504E-05,0.567,0
0.0387,-2.987716E-05,0.5805,119,0.0387,-3.054856E-05,0.5805,0
0.0396,-3.793393E-05,0.594,118,0.0396,1.107805E-05,0.594,1
0.0405,-1.678492E-05,0.6075,118,0.0405,3.356985E-06,0.6075,4
0.0414,-1.678492E-05,0.621,118,0.0414,-1.040665E-05,0.621,2
0.0423,2.685588E-06,0.6345,119,0.0423,-4.263371E-05,0.6345,1
0.0432,9.735256E-06,0.648,120,0.0432,-1.242084E-05,0.648,3
0.0441,-3.021286E-06,0.6615,119,0.0441,2.383459E-05,0.6615,0
0.045,-5.035477E-06,0.675,118,0.045,-1.309224E-05,0.675,1
0.0459,-2.316319E-05,0.6885,119,0.0459,-5.001907E-05,0.6885,1
0.0468,-3.424125E-05,0.702,119,0.0468,6.713969E-06,0.702,0
0.0477,-1.275654E-05,0.7155,117,0.0477,0,0.7155,0
0.0486,1.678492E-06,0.729,118,0.0486,-3.994812E-05,0.729,1
0.0495,-8.392462E-06,0.7425,117,0.0495,1.712062E-05,0.7425,-1
0.0504,3.121996E-05,0.756,118,0.0504,2.014191E-06,0.756,0
0.0513,2.450599E-05,0.7695,119,0.0513,-4.33051E-05,0.7695,-1
0.0522,-1.678492E-06,0.783,118,0.0522,-4.095522E-05,0.783,0
0.0531,-1.007095E-06,0.7965,118,0.0531,1.342794E-06,0.7965,-1
0.054,1.644922E-05,0.81,118,0.054,-1.913481E-05,0.81,1
0.0549,-1.342794E-05,0.8235,118,0.0549,-3.155566E-05,0.8235,-1
0.0558,-1.745632E-05,0.837,118,0.0558,-4.901198E-05,0.837,1
0.0567,-7.385367E-06,0.8505,119,0.0567,-3.356985E-06,0.8505,-1
0.0576,-4.196231E-05,0.864,119,0.0576,1.913481E-05,0.864,0
0.0585,-2.652018E-05,0.8775,118,0.0585,-8.392462E-06,0.8775,0
0.0594,-3.356985E-07,0.891,118,0.0594,-2.1149E-05,0.891,3
0.0603,-3.323415E-05,0.9045,119,0.0603,1.712062E-05,0.9045,-3
0.0612,-1.846342E-05,0.918,119,0.0612,5.706874E-06,0.918,0
0.0621,1.040665E-05,0.9315,119,0.0621,-4.49836E-05,0.9315,-1
0.063,-1.644922E-05,0.945,119,0.063,-3.356985E-06,0.945,0
0.0639,-6.713969E-07,0.9585,118,0.0639,-6.378271E-06,0.9585,0
0.0648,9.399558E-06,0.972,119,0.0648,-4.263371E-05,0.972,1
0.0657,-6.378271E-06,0.9855,120,0.0657,-3.994812E-05,0.9855,0
0.0666,-2.551309E-05,0.999,119,0.0666,-7.049668E-06,0.999,-1
0.0675,-1.443504E-05,1.0125,119,0.0675,-2.014191E-05,1.0125,0
0.0684,-8.392462E-06,1.026,119,0.0684,-2.618448E-05,1.026,2
0.0693,-1.510643E-05,1.0395,119,0.0693,-5.001907E-05,1.0395,-1
0.0702,2.349889E-06,1.053,119,0.0702,-2.18204E-05,1.053,-1
0.0711,3.759823E-05,1.0665,119,0.0711,7.721065E-06,1.0665,-1
0.072,1.007095E-05,1.08,118,0.072,-2.551309E-05,1.08,0
0.0729,5.706874E-06,1.0935,119,0.0729,-4.934768E-05,1.0935,0
0.07380001,-2.349889E-06,1.107,119,0.07380001,1.342794E-05,1.107,0
0.07470001,-3.021286E-06,1.1205,119,0.07470001,-5.706874E-06,1.1205,0
0.0756,-5.706874E-06,1.134,119,0.0756,-5.874724E-05,1.134,-1
0.0765,1.040665E-05,1.1475,118,0.0765,-6.713969E-07,1.1475,-2
0.0774,-1.879912E-05,1.161,118,0.0774,9.399558E-06,1.161,-1
0.0783,-5.337606E-05,1.1745,119,0.0783,-4.129091E-05,1.1745,-1
0.0792,2.349889E-06,1.188,119,0.0792,-1.309224E-05,1.188,0
0.0801,7.721065E-06,1.2015,120,0.0801,2.24918E-05,1.2015,-1
0.081,-1.174945E-05,1.215,118,0.081,-1.007095E-06,1.215,0
0.0819,6.042573E-06,1.2285,119,0.0819,-2.383459E-05,1.2285,0
0.0828,1.309224E-05,1.242,119,0.0828,-3.994812E-05,1.242,1
0.0837,-3.356985E-06,1.2555,119,0.0837,-5.706874E-06,1.2555,0
0.0846,-3.994812E-05,1.269,118,0.0846,-1.913481E-05,1.269,0
0.0855,-3.961242E-05,1.2825,117,0.0855,-2.719158E-05,1.2825,-1
0.0864,-2.920577E-05,1.296,119,0.0864,-4.699779E-05,1.296,-1
0.0873,-2.417029E-05,1.3095,119,0.0873,-1.007095E-06,1.3095,1
0.0882,-2.383459E-05,1.323,119,0.0882,-9.063859E-06,1.323,0
0.0891,8.392462E-06,1.3365,120,0.0891,-5.740444E-05,1.3365,0
0.09,-1.107805E-05,1.35,120,0.09,-1.409934E-05,1.35,0
0.0909,5.035477E-06,1.3635,120,0.0909,2.014191E-06,1.3635,0
0.0918,6.378271E-06,1.377,121,0.0918,-4.666209E-05,1.377,1
0.0927,-6.378271E-06,1.3905,119,0.0927,-3.591974E-05,1.3905,-2
0.0936,-1.309224E-05,1.404,120,0.0936,1.007095E-06,1.404,0
0.09450001,-3.390555E-05,1.4175,120,0.09450001,-5.706874E-06,1.4175,-2
0.09540001,-2.584878E-05,1.431,120,0.09540001,6.378271E-06,1.431,0
0.09630001,1.846342E-05,1.4445,120,0.09630001,-2.584878E-05,1.4445,1
0.0972,3.726253E-05,1.458,120,0.0972,1.309224E-05,1.458,1
0.0981,-9.399558E-06,1.4715,119,0.0981,2.920577E-05,1.4715,0
0.099,-1.510643E-05,1.485,121,0.099,-1.913481E-05,1.485,0
0.0999,2.047761E-05,1.4985,120,0.0999,-3.491264E-05,1.4985,1
0.1008,-1.678492E-05,1.512,120,0.1008,1.040665E-05,1.512,-2
0.1017,-2.014191E-05,1.5255,121,0.1017,2.014191E-06,1.5255,0
0.1026,6.042573E-06,1.539,121,0.1026,-6.64683E-05,1.539,1
0.1035,-2.349889E-05,1.5525,122,0.1035,-3.021286E-06,1.5525,0
0.1044,-2.081331E-05,1.566,121,0.1044,6.713969E-07,1.566,-2
0.1053,1.678492E-06,1.5795,121,0.1053,-5.169757E-05,1.5795,-1
0.1062,3.457694E-05,1.593,121,0.1062,-2.551309E-05,1.593,-2
0.1071,5.706874E-06,1.6065,121,0.1071,1.242084E-05,1.6065,0
0.108,2.719158E-05,1.62,123,0.108,-5.371176E-06,1.62,0
0.1089,2.24918E-05,1.6335,121,0.1089,-1.712062E-05,1.6335,3
0.1098,1.779202E-05,1.647,120,0.1098,-3.524834E-05,1.647,0
0.1107,8.392462E-06,1.6605,122,0.1107,-1.544213E-05,1.6605,-1
0.1116,7.049668E-06,1.674,122,0.1116,3.021286E-06,1.674,2
0.1125,1.007095E-06,1.6875,121,0.1125,-1.644922E-05,1.6875,1
0.1134,-2.047761E-05,1.701,122,0.1134,-3.356985E-05,1.701,3
0.1143,-3.054856E-05,1.7145,120,0.1143,-3.021286E-06,1.7145,0
0.1152,-2.719158E-05,1.728,122,0.1152,-1.846342E-05,1.728,1
0.1161,-1.107805E-05,1.7415,122,0.1161,-5.807584E-05,1.7415,1
0.117,-8.392462E-06,1.755,120,0.117,-1.242084E-05,1.755,0
0.1179,-5.404745E-05,1.7685,122,0.1179,-1.712062E-05,1.7685,1
0.1188,-4.49836E-05,1.782,121,0.1188,-4.733349E-05,1.782,-1
0.1197,2.1149E-05,1.7955,122,0.1197,-2.853437E-05,1.7955,1
0.1206,-1.309224E-05,1.809,122,0.1206,-7.049668E-06,1.809,0
0.1215,-2.24918E-05,1.8225,122,0.1215,-3.021286E-06,1.8225,3
0.1224,-6.042573E-06,1.836,122,0.1224,-1.779202E-05,1.836,-1
0.1233,-1.309224E-05,1.8495,121,0.1233,-4.43122E-05,1.8495,1
0.1242,-1.745632E-05,1.863,122,0.1242,-8.728161E-06,1.863,0
0.1251,-6.243992E-05,1.8765,122,0.1251,9.399558E-06,1.8765,2
0.126,-4.53193E-05,1.89,122,0.126,-3.121996E-05,1.89,-1
0.1269,-2.047761E-05,1.9035,122,0.1269,-6.277562E-05,1.9035,0
0.1278,-2.24918E-05,1.917,122,0.1278,0,1.917,0
0.1287,1.678492E-06,1.9305,121,0.1287,6.713969E-07,1.9305,0
0.1296,1.107805E-05,1.944,122,0.1296,-5.673304E-05,1.944,-2
0.1305,-1.007095E-05,1.9575,123,0.1305,-5.706874E-06,1.9575,2
0.1314,2.887007E-05,1.971,122,0.1314,3.356985E-07,1.971,4
0.1323,3.591974E-05,1.9845,122,0.1323,-4.196231E-05,1.9845,-1
0.1332,-2.014191E-06,1.998,122,0.1332,-1.342794E-05,1.998,2
0.1341,-1.174945E-05,2.0115,122,0.1341,-2.349889E-06,2.0115,0
0.135,-1.644922E-05,2.025,122,0.135,-1.477073E-05,2.025,1
0.1359,-5.035477E-06,2.0385,121,0.1359,-1.577783E-05,2.0385,0
0.1368,-6.713969E-06,2.052,120,0.1368,-3.961242E-05,2.052,0
0.1377,2.24918E-05,2.0655,121,0.1377,3.021286E-06,2.0655,0
0.1386,-8.392462E-06,2.079,119,0.1386,-3.356985E-07,2.079,1
0.1395,-1.644922E-05,2.0925,121,0.1395,-2.584878E-05,2.0925,0
0.1404,7.385367E-06,2.106,121,0.1404,-3.155566E-05,2.106,5
0.1413,-1.510643E-05,2.1195,122,0.1413,1.040665E-05,2.1195,0
0.1422,-2.484169E-05,2.133,120,0.1422,-1.007095E-06,2.133,1
0.1431,-1.174945E-05,2.1465,119,0.1431,-5.941863E-05,2.1465,1
0.144,-5.706874E-06,2.16,120,0.144,-2.014191E-06,2.16,1
0.1449,-6.713969E-07,2.1735,119,0.1449,-9.063859E-06,2.1735,0
0.1458,2.014191E-06,2.187,121,0.1458,-4.867628E-05,2.187,0
0.1467,-1.242084E-05,2.2005,119,0.1467,-6.109713E-05,2.2005,0
0.1476,-3.021286E-05,2.214,120,0.1476,-1.779202E-05,2.214,0
0.1485,-6.378271E-06,2.2275,120,0.1485,-2.047761E-05,2.2275,0
0.1494,1.577783E-05,2.241,120,0.1494,-1.376364E-05,2.241,0
0.1503,5.706874E-06,2.2545,120,0.1503,-4.666209E-05,2.2545,-1
0.1512,-1.242084E-05,2.268,120,0.1512,-2.551309E-05,2.268,0
0.1521,-9.063859E-06,2.2815,120,0.1521,7.385367E-06,2.2815,2
0.153,5.035477E-06,2.295,120,0.153,-1.678492E-05,2.295,0
0.1539,7.049668E-06,2.3085,121,0.1539,-4.49836E-05,2.3085,0
0.1548,-9.063859E-06,2.322,121,0.1548,-3.356985E-06,2.322,0
0.1557,-1.544213E-05,2.3355,121,0.1557,-7.049668E-06,2.3355,1
0.1566,1.712062E-05,2.349,122,0.1566,-6.076142E-05,2.349,0
0.1575,2.383459E-05,2.3625,122,0.1575,1.007095E-05,2.3625,0
0.1584,2.517739E-05,2.376,121,0.1584,-4.028382E-06,2.376,1
0.1593,5.706874E-06,2.3895,121,0.1593,-5.404745E-05,2.3895,1
0.1602,-6.378271E-06,2.403,119,0.1602,-1.309224E-05,2.403,0
0.1611,-1.812772E-05,2.4165,122,0.1611,2.887007E-05,2.4165,2
0.162,-6.378271E-06,2.43,121,0.162,-2.349889E-06,2.43,1
0.1629,3.021286E-06,2.4435,122,0.1629,-1.409934E-05,2.4435,0
0.1638,2.28275E-05,2.457,121,0.1638,-2.752728E-05,2.457,1
0.1647,3.121996E-05,2.4705,120,0.1647,-1.242084E-05,2.4705,0
0.1656,3.692683E-06,2.484,120,0.1656,-3.155566E-05,2.484,0
0.1665,3.692683E-06,2.4975,121,0.1665,-5.069047E-05,2.4975,-2
0.1674,-5.035477E-06,2.511,121,0.1674,-4.733349E-05,2.511,1
0.1683,-2.417029E-05,2.5245,122,0.1683,-5.035477E-06,2.5245,2
0.1692,-6.378271E-06,2.538,120,0.1692,-6.713969E-07,2.538,0
0.1701,1.678492E-06,2.5515,120,0.1701,-5.874724E-05,2.5515,1
0.171,-4.53193E-05,2.565,122,0.171,-2.24918E-05,2.565,0
0.1719,-3.155566E-05,2.5785,121,0.1719,1.040665E-05,2.5785,1
0.1728,-2.618448E-05,2.592,121,0.1728,-4.129091E-05,2.592,1
0.1737,-4.632639E-05,2.6055,121,0.1737,-2.819867E-05,2.6055,0
0.1746,-4.766919E-05,2.619,120,0.1746,-1.678492E-06,2.619,2
0.1755,-1.812772E-05,2.6325,122,0.1755,-1.040665E-05,2.6325,5
0.1764,-1.477073E-05,2.646,122,0.1764,-4.699779E-06,2.646,2
0.1773,1.007095E-06,2.6595,122,0.1773,-4.53193E-05,2.6595,2
0.1782,1.477073E-05,2.673,121,0.1782,-2.081331E-05,2.673,-1
0.1791,2.18204E-05,2.6865,122,0.1791,-3.692683E-06,2.6865,1
0.18,2.349889E-06,2.7,120,0.18,-3.659113E-05,2.7,3
0.1809,-1.007095E-06,2.7135,121,0.1809,-4.33051E-05,2.7135,3
0.1818,-2.1149E-05,2.727,121,0.1818,-3.021286E-06,2.727,1
0.1827,-1.644922E-05,2.7405,121,0.1827,-2.417029E-05,2.7405,1
0.1836,-5.035477E-06,2.754,120,0.1836,-4.733349E-05,2.754,2
0.1845,1.007095E-06,2.7675,121,0.1845,1.007095E-05,2.7675,1
0.1854,-1.812772E-05,2.781,121,0.1854,3.659113E-05,2.781,3
0.1863,-1.644922E-05,2.7945,121,0.1863,-2.517739E-05,2.7945,1
0.1872,-3.894102E-05,2.808,121,0.1872,-1.275654E-05,2.808,1
0.1881,-2.920577E-05,2.8215,121,0.1881,2.752728E-05,2.8215,0
0.189,-2.349889E-05,2.835,122,0.189,4.36408E-06,2.835,2
0.1899,-3.424125E-05,2.8485,122,0.1899,-1.913481E-05,2.8485,2
0.1908,-1.879912E-05,2.862,121,0.1908,-3.189136E-05,2.862,0
0.1917,1.712062E-05,2.8755,120,0.1917,-1.275654E-05,2.8755,0
0.1926,4.699779E-05,2.889,120,0.1926,-1.007095E-06,2.889,1
0.1935,1.275654E-05,2.9025,120,0.1935,-2.047761E-05,2.9025,-1
0.1944,3.356985E-06,2.916,122,0.1944,-4.867628E-05,2.916,5
0.1953,-5.706874E-06,2.9295,120,0.1953,3.692683E-06,2.9295,3
0.1962,-1.107805E-05,2.943,120,0.1962,-1.007095E-05,2.943,3
0.1971,0,2.9565,122,0.1971,-2.987716E-05,2.9565,0
0.198,-1.376364E-05,2.97,122,0.198,5.035477E-06,2.97,3
0.1989,-3.356985E-07,2.9835,121,0.1989,5.371176E-06,2.9835,0
0.1998,5.706874E-06,2.997,120,0.1998,-3.256275E-05,2.997,1
0.2007,-2.584878E-05,3.0105,120,0.2007,-3.491264E-05,3.0105,0
0.2016,-2.652018E-05,3.024,121,0.2016,-1.980621E-05,3.024,2
0.2025,-3.424125E-05,3.0375,121,0.2025,-2.014191E-05,3.0375,1
0.2034,-2.450599E-05,3.051,120,0.2034,-2.1149E-05,3.051,3
0.2043,1.678492E-06,3.0645,119,0.2043,-5.069047E-05,3.0645,0
0.2052,7.721065E-06,3.078,0,0.2052,-1.477073E-05,3.078,0
0.2061,-1.779202E-05,3.0915,0,0.2061,-9.735256E-06,3.0915,0
0.207,-2.786297E-05,3.105,0,0.207,-4.196231E-05,3.105,0
0.2079,3.692683E-06,3.1185,0,0.2079,-6.54612E-05,3.1185,0
0.2088,-2.719158E-05,3.132,0,0.2088,-7.385367E-06,3.132,0
0.2097,-1.712062E-05,3.1455,0,0.2097,-2.21561E-05,3.1455,0
0.2106,9.735256E-06,3.159,0,0.2106,-7.049668E-05,3.159,0
0.2115,-3.759823E-05,3.1725,0,0.2115,-1.678492E-05,3.1725,0
0.2124,-1.443504E-05,3.186,0,0.2124,-7.049668E-06,3.186,0
0.2133,2.652018E-05,3.1995,0,0.2133,-5.941863E-05,3.1995,0
0.2142,6.411841E-05,3.213,0,0.2142,-5.102617E-05,3.213,0
0.2151,1.040665E-05,3.2265,0,0.2151,5.035477E-06,3.2265,0
0.216,1.913481E-05,3.24,0,0.216,-3.021286E-06,3.24,0
0.2169,-3.356985E-06,3.2535,0,0.2169,-2.18204E-05,3.2535,0
0.2178,3.356985E-06,3.267,0,0.2178,-3.222705E-05,3.267,0
0.2187,5.706874E-06,3.2805,0,0.2187,-1.141375E-05,3.2805,0
0.2196,1.141375E-05,3.294,0,0.2196,2.987716E-05,3.294,0
0.2205,6.378271E-06,3.3075,0,0.2205,-9.735256E-06,3.3075,0
0.2214,9.063859E-06,3.321,0,0.2214,-2.18204E-05,3.321,0
0.2223,9.063859E-06,3.3345,0,0.2223,1.242084E-05,3.3345,0
0.2232,-1.040665E-05,3.348,0,0.2232,3.356985E-07,3.348,0
0.2241,-6.713969E-07,3.3615,0,0.2241,-4.061952E-05,3.3615,0
0.225,-6.378271E-06,3.375,0,0.225,1.678492E-06,3.375,0
0.2259,-4.666209E-05,3.3885,0,0.2259,-3.356985E-06,3.3885,0
0.2268,-4.699779E-05,3.402,0,0.2268,-4.46479E-05,3.402,0
0.2277,-1.644922E-05,3.4155,0,0.2277,-5.069047E-05,3.4155,0
0.2286,-4.061952E-05,3.429,0,0.2286,-1.376364E-05,3.429,0
0.2295,-3.121996E-05,3.4425,0,0.2295,-1.779202E-05,3.4425,0
0.2304,-2.349889E-05,3.456,0,0.2304,-2.551309E-05,3.456,0
0.2313,-9.063859E-06,3.4695,0,0.2313,-3.659113E-05,3.4695,0
0.2322,5.706874E-06,3.483,0,0.2322,-9.063859E-06,3.483,0
0.2331,1.980621E-05,3.4965,0,0.2331,8.392462E-06,3.4965,0
0.234,6.042573E-06,3.51,0,0.234,-3.155566E-05,3.51,0
0.2349,-1.107805E-05,3.5235,0,0.2349,-4.129091E-05,3.5235,0
0.2358,-1.477073E-05,3.537,0,0.2358,1.007095E-05,3.537,0
0.2367,1.107805E-05,3.5505,0,0.2367,7.385367E-06,3.5505,0
0.2376,5.035477E-06,3.564,0,0.2376,-5.236896E-05,3.564,0
0.2385,9.399558E-06,3.5775,0,0.2385,2.014191E-06,3.5775,0
0.2394,1.040665E-05,3.591,0,0.2394,1.510643E-05,3.591,0
0.2403,-3.793393E-05,3.6045,0,0.2403,-3.189136E-05,3.6045,0
0.2412,2.584878E-05,3.618,0,0.2412,7.385367E-06,3.618,0
0.2421,2.21561E-05,3.6315,0,0.2421,1.846342E-05,3.6315,0
0.243,-3.692683E-06,3.645,0,0.243,-1.107805E-05,3.645,0
0.2439,-2.584878E-05,3.6585,0,0.2439,-1.007095E-05,3.6585,0
0.2448,-1.242084E-05,3.672,0,0.2448,-3.189136E-05,3.672,0
0.2457,1.007095E-06,3.6855,0,0.2457,-1.980621E-05,3.6855,0
0.2466,-2.920577E-05,3.699,0,0.2466,1.678492E-06,3.699,0
0.2475,-2.1149E-05,3.7125,0,0.2475,-3.021286E-05,3.7125,0
0.2484,6.378271E-06,3.726,0,0.2484,-4.028382E-05,3.726,0
0.2493,-2.819867E-05,3.7395,0,0.2493,-3.021286E-06,3.7395,0
0.2502,-1.644922E-05,3.753,0,0.2502,-1.980621E-05,3.753,0
0.2511,1.678492E-05,3.7665,0,0.2511,-7.150377E-05,3.7665,0
0.252,-3.692683E-06,3.78,0,0.252,-1.443504E-05,3.78,0
0.2529,-3.121996E-05,3.7935,0,0.2529,-1.309224E-05,3.7935,0
0.2538,-4.39765E-05,3.807,0,0.2538,-5.975433E-05,3.807,0
0.2547,-1.510643E-05,3.8205,0,0.2547,-3.793393E-05,3.8205,0
0.2556,-3.256275E-05,3.834,0,0.2556,-1.678492E-06,3.834,0
0.2565,-2.618448E-05,3.8475,0,0.2565,-1.208515E-05,3.8475,0
0.2574,-2.450599E-05,3.861,0,0.2574,-1.577783E-05,3.861,0
0.2583,-9.735256E-06,3.8745,0,0.2583,-5.673304E-05,3.8745,0
0.2592,1.577783E-05,3.888,0,0.2592,-2.853437E-05,3.888,0
0.2601,4.263371E-05,3.9015,0,0.2601,6.713969E-06,3.9015,0
0.261,1.712062E-05,3.915,0,0.261,-4.095522E-05,3.915,0
0.2619,1.846342E-05,3.9285,0,0.2619,-5.539025E-05,3.9285,0
0.2628,2.652018E-05,3.942,0,0.2628,-2.014191E-06,3.942,0
0.2637,-1.107805E-05,3.9555,0,0.2637,-1.812772E-05,3.9555,0
0.2646,1.007095E-06,3.969,0,0.2646,-6.61326E-05,3.969,0
0.2655,-1.242084E-05,3.9825,0,0.2655,-8.728161E-06,3.9825,0
0.2664,-1.913481E-05,3.996,0,0.2664,6.378271E-06,3.996,0
0.2673,-1.309224E-05,4.0095,0,0.2673,-3.189136E-05,4.0095,0
0.2682,3.424125E-05,4.023,0,0.2682,-1.040665E-05,4.023,0
0.2691,-1.242084E-05,4.0365,0,0.2691,2.349889E-05,4.0365,0
0.27,-2.450599E-05,4.05,0,0.27,-3.356985E-07,4.05,0
0.2709,-1.376364E-05,4.0635,0,0.2709,-1.007095E-06,4.0635,0
0.2718,-1.174945E-05,4.077,0,0.2718,-2.349889E-05,4.077,0
0.2727,-4.33051E-05,4.0905,0,0.2727,1.007095E-06,4.0905,0
0.2736,-4.33051E-05,4.104,0,0.2736,6.713969E-06,4.104,0
0.2745,-1.242084E-05,4.1175,0,0.2745,-3.424125E-05,4.1175,0
0.2754,-1.309224E-05,4.131,0,0.2754,-5.169757E-05,4.131,0
0.2763,0,4.1445,0,0.2763,4.699779E-06,4.1445,0
0.2772,5.035477E-06,4.158,0,0.2772,7.721065E-06,4.158,0
0.2781,6.378271E-06,4.1715,0,0.2781,-4.599069E-05,4.1715,0
0.279,3.692683E-06,4.185,0,0.279,1.174945E-05,4.185,0
0.2799,-1.242084E-05,4.1985,0,0.2799,2.853437E-05,4.1985,0
0.2808,4.36408E-06,4.212,0,0.2808,-2.450599E-05,4.212,0
0.2817,-2.853437E-05,4.2255,0,0.2817,-2.081331E-05,4.2255,0
0.2826,-5.236896E-05,4.239,0,0.2826,3.021286E-06,4.239,0
0.2835,-1.007095E-05,4.2525,0,0.2835,-1.678492E-05,4.2525,0
0.2844,-1.913481E-05,4.266,0,0.2844,-1.812772E-05,4.266,0
0.2853,-1.275654E-05,4.2795,0,0.2853,-5.270466E-05,4.2795,0
0.2862,8.056763E-06,4.293,0,0.2862,-2.383459E-05,4.293,0
0.2871,4.36408E-06,4.3065,0,0.2871,-4.028382E-06,4.3065,0
0.288,-1.342794E-06,4.32,0,0.288,-4.196231E-05,4.32,0
0.2889,-3.021286E-06,4.3335,0,0.2889,-5.606165E-05,4.3335,0
0.2898,-1.779202E-05,4.347,0,0.2898,-1.678492E-06,4.347,0
0.2907,-9.063859E-06,4.3605,0,0.2907,-1.342794E-05,4.3605,0
0.2916,1.577783E-05,4.374,0,0.2916,-5.236896E-05,4.374,0
0.2925,2.383459E-05,4.3875,0,0.2925,-1.342794E-06,4.3875,0
0.2934,-1.208515E-05,4.401,0,0.2934,3.021286E-06,4.401,0
0.2943,-2.18204E-05,4.4145,0,0.2943,-4.46479E-05,4.4145,0
0.2952,2.349889E-06,4.428,0,0.2952,-2.719158E-05,4.428,0
0.2961,-1.812772E-05,4.4415,0,0.2961,9.735256E-06,4.4415,0
0.297,-1.342794E-05,4.455,0,0.297,-6.042573E-06,4.455,0
0.2979,-3.121996E-05,4.4685,0,0.2979,-1.644922E-05,4.4685,0
0.2988,-3.659113E-05,4.482,0,0.2988,-4.43122E-05,4.482,0
0.2997,-8.392462E-06,4.4955,0,0.2997,-2.517739E-05,4.4955,0
0.3006,3.692683E-06,4.509,0,0.3006,-2.752728E-05,4.509,0
0.3015,-9.063859E-06,4.5225,0,0.3015,-4.800488E-05,4.5225,0
0.3024,8.728161E-06,4.536,0,0.3024,-5.404745E-05,4.536,0
0.3033,-8.392462E-06,4.5495,0,0.3033,-1.040665E-05,4.5495,0
0.3042,2.349889E-06,4.563,0,0.3042,-1.443504E-05,4.563,0
0.3051,1.141375E-05,4.5765,0,0.3051,-4.36408E-05,4.5765,0
0.306,2.685588E-06,4.59,0,0.306,-5.706874E-06,4.59,0
0.3069,3.793393E-05,4.6035,0,0.3069,1.846342E-05,4.6035,0
0.3078,3.155566E-05,4.617,0,0.3078,-2.719158E-05,4.617,0
0.3087,1.544213E-05,4.6305,0,0.3087,-4.599069E-05,4.6305,0
0.3096,2.853437E-05,4.644,0,0.3096,-1.342794E-06,4.644,0
0.3105,5.035477E-06,4.6575,0,0.3105,-9.063859E-06,4.6575,0
0.3114,-5.035477E-06,4.671,0,0.3114,-2.551309E-05,4.671,0
0.3123,9.399558E-06,4.6845,0,0.3123,-5.001907E-05,4.6845,0
0.3132,-1.510643E-05,4.698,0,0.3132,-7.721065E-06,4.698,0
0.3141,-1.779202E-05,4.7115,0,0.3141,1.577783E-05,4.7115,0
0.315,1.007095E-06,4.725,0,0.315,-1.174945E-05,4.725,0
0.3159,6.378271E-06,4.7385,0,0.3159,-3.591974E-05,4.7385,0
0.3168,-2.1149E-05,4.752,0,0.3168,2.21561E-05,4.752,0
0.3177,-8.728161E-06,4.7655,0,0.3177,7.721065E-06,4.7655,0
0.3186,2.517739E-05,4.779,0,0.3186,-5.673304E-05,4.779,0
0.3195,-1.712062E-05,4.7925,0,0.3195,0,4.7925,0
0.3204,-3.424125E-05,4.806,0,0.3204,7.721065E-06,4.806,0
0.3213,-2.584878E-05,4.8195,0,0.3213,-2.987716E-05,4.8195,0
0.3222,-3.793393E-05,4.833,0,0.3222,2.349889E-06,4.833,0
0.3231,-3.894102E-05,4.8465,0,0.3231,1.779202E-05,4.8465,0
0.324,-2.887007E-05,4.86,0,0.324,3.021286E-06,4.86,0
0.3249,-2.887007E-05,4.8735,0,0.3249,1.644922E-05,4.8735,0
0.3258,-1.409934E-05,4.887,0,0.3258,-2.887007E-05,4.887,0
0.3267,-3.356985E-07,4.9005,0,0.3267,-2.014191E-05,4.9005,0
0.3276,2.28275E-05,4.914,0,0.3276,-6.378271E-06,4.914,0
0.3285,1.678492E-06,4.9275,0,0.3285,-3.424125E-05,4.9275,0
0.3294,1.040665E-05,4.941,0,0.3294,-5.471885E-05,4.941,0
0.3303,3.692683E-06,4.9545,0,0.3303,-3.692683E-06,4.9545,0
0.3312,-1.007095E-06,4.968,0,0.3312,-1.040665E-05,4.968,0
0.3321,1.309224E-05,4.9815,0,0.3321,-4.867628E-05,4.9815,0
0.333,-6.713969E-07,4.995,0,0.333,-6.042573E-06,4.995,0
0.3339,-1.275654E-05,5.0085,0,0.3339,1.007095E-06,5.0085,0
0.3348,-1.913481E-05,5.022,0,0.3348,-3.726253E-05,5.022,0
0.3357,-4.934768E-05,5.0355,0,0.3357,-3.927672E-05,5.0355,0
0.3366,-6.478981E-05,5.049,0,0.3366,4.699779E-06,5.049,0
0.3375,-2.316319E-05,5.0625,0,0.3375,-8.392462E-06,5.0625,0
0.3384,-1.846342E-05,5.076,0,0.3384,-3.121996E-05,5.076,0
0.3393,-7.049668E-06,5.0895,0,0.3393,-5.438316E-05,5.0895,0
0.3402,1.007095E-06,5.103,0,0.3402,-2.987716E-05,5.103,0
0.3411,-1.980621E-05,5.1165,0,0.3411,1.007095E-06,5.1165,0
0.342,-2.752728E-05,5.13,0,0.342,-4.061952E-05,5.13,0
0.3429,-2.047761E-05,5.1435,0,0.3429,-5.404745E-05,5.1435,0
0.3438,-9.735256E-06,5.157,0,0.3438,5.706874E-06,5.157,0
0.3447,5.371176E-06,5.1705,0,0.3447,-1.577783E-05,5.1705,0
0.3456,5.035477E-06,5.184,0,0.3456,-7.318227E-05,5.184,0
0.3465,1.007095E-06,5.1975,0,0.3465,-2.28275E-05,5.1975,0
0.3474,4.263371E-05,5.211,0,0.3474,-1.846342E-05,5.211,0
0.3483,1.174945E-05,5.2245,0,0.3483,-5.874724E-05,5.2245,0
0.3492,-2.853437E-05,5.238,0,0.3492,-4.196231E-05,5.238,0
0.3501,-7.385367E-06,5.2515,0,0.3501,-1.812772E-05,5.2515,0
0.351,-1.678492E-06,5.265,0,0.351,-1.174945E-05,5.265,0
0.3519,-1.074235E-05,5.2785,0,0.3519,-2.450599E-05,5.2785,0
0.3528,1.443504E-05,5.292,0,0.3528,-4.33051E-05,5.292,0
0.3537,1.644922E-05,5.3055,0,0.3537,-1.644922E-05,5.3055,0
0.3546,1.040665E-05,5.319,0,0.3546,5.035477E-06,5.319,0
0.3555,9.735256E-06,5.3325,0,0.3555,-1.611353E-05,5.3325,0
0.3564,2.383459E-05,5.346,0,0.3564,-3.457694E-05,5.346,0
0.3573,-3.356985E-06,5.3595,0,0.3573,2.349889E-06,5.3595,0
0.3582,-1.409934E-05,5.373,0,0.3582,6.713969E-06,5.373,0
0.3591,-1.678492E-06,5.3865,0,0.3591,-3.524834E-05,5.3865,0
0.36,-1.510643E-05,5.4,0,0.36,-4.36408E-06,5.4,0
0.3609,-9.735256E-06,5.4135,0,0.3609,1.242084E-05,5.4135,0
0.3618,-3.021286E-06,5.427,0,0.3618,-4.129091E-05,5.427,0
0.3627,-1.678492E-06,5.4405,0,0.3627,-1.342794E-05,5.4405,0
0.3636,-3.189136E-05,5.454,0,0.3636,6.042573E-06,5.454,0
0.3645,1.376364E-05,5.4675,0,0.3645,-5.706874E-06,5.4675,0
0.3654,2.887007E-05,5.481,0,0.3654,-1.947051E-05,5.481,0
0.3663,-1.644922E-05,5.4945,0,0.3663,-5.740444E-05,5.4945,0
0.3672,-2.417029E-05,5.508,0,0.3672,-2.047761E-05,5.508,0
0.3681,-2.484169E-05,5.5215,0,0.3681,1.712062E-05,5.5215,0
0.369,-3.793393E-05,5.535,0,0.369,-2.786297E-05,5.535,0
0.3699,-2.685588E-05,5.5485,0,0.3699,-4.733349E-05,5.5485,0
0.3708,-1.510643E-05,5.562,0,0.3708,1.242084E-05,5.562,0
0.3717,-1.913481E-05,5.5755,0,0.3717,-3.356985E-07,5.5755,0
0.3726,4.36408E-06,5.589,0,0.3726,-5.001907E-05,5.589,0
0.3735,9.063859E-06,5.6025,0,0.3735,5.035477E-06,5.6025,0
0.3744,1.644922E-05,5.616,0,0.3744,-1.678492E-06,5.616,0
0.3753,1.007095E-06,5.6295,0,0.3753,-4.53193E-05,5.6295,0
0.3762,-3.356985E-07,5.643,0,0.3762,-3.659113E-05,5.643,0
0.3771,-4.699779E-06,5.6565,0,0.3771,5.035477E-06,5.6565,0
0.378,-1.510643E-05,5.67,0,0.378,-1.712062E-05,5.67,0
0.3789,-9.735256E-06,5.6835,0,0.3789,-1.242084E-05,5.6835,0
0.3798,1.007095E-06,5.697,0,0.3798,-3.692683E-05,5.697,0
0.3807,-3.424125E-05,5.7105,0,0.3807,-2.853437E-05,5.7105,0
0.3816,-5.941863E-05,5.724,0,0.3816,-2.18204E-05,5.724,0
0.3825,-3.256275E-05,5.7375,0,0.3825,-4.53193E-05,5.7375,0
0.3834,-3.323415E-05,5.751,0,0.3834,-6.411841E-05,5.751,0
0.3843,-3.994812E-05,5.7645,0,0.3843,3.356985E-07,5.7645,0
0.3852,-4.36408E-06,5.778,0,0.3852,-7.049668E-06,5.778,0
0.3861,-4.028382E-06,5.7915,0,0.3861,-6.344701E-05,5.7915,0
0.387,-8.392462E-06,5.805,0,0.387,-2.349889E-06,5.805,0
0.3879,3.726253E-05,5.8185,0,0.3879,1.443504E-05,5.8185,0
0.3888,1.309224E-05,5.832,0,0.3888,-2.24918E-05,5.832,0
0.3897,1.208515E-05,5.8455,0,0.3897,3.692683E-06,5.8455,0
0.3906,6.713969E-07,5.859,0,0.3906,2.685588E-05,5.859,0
0.3915,9.399558E-06,5.8725,0,0.3915,1.510643E-05,5.8725,0
0.3924,1.242084E-05,5.886,0,0.3924,9.735256E-06,5.886,0
0.3933,1.040665E-05,5.8995,0,0.3933,-3.054856E-05,5.8995,0
0.3942,-1.040665E-05,5.913,0,0.3942,-1.644922E-05,5.913,0
0.3951,-4.33051E-05,5.9265,0,0.3951,-4.699779E-06,5.9265,0
0.396,-2.450599E-05,5.94,0,0.396,-3.356985E-05,5.94,0
0.3969,0,5.9535,0,0.3969,-4.061952E-05,5.9535,0
0.3978,-2.517739E-05,5.967,0,0.3978,-7.049668E-06,5.967,0
0.3987,-3.927672E-05,5.9805,0,0.3987,-1.409934E-05,5.9805,0
0.3996,-7.049668E-06,5.994,0,0.3996,-6.411841E-05,5.994,0
0.4005,-1.309224E-05,6.0075,0,0.4005,-3.692683E-06,6.0075,0
0.4014,5.035477E-06,6.021,0,0.4014,1.980621E-05,6.021,0
0.4023,7.721065E-06,6.0345,0,0.4023,-3.692683E-05,6.0345,0
0.4032,-1.376364E-05,6.048,0,0.4032,-3.759823E-05,6.048,0
0.4041,-9.399558E-06,6.0615,0,0.4041,9.063859E-06,6.0615,0
0.405,1.577783E-05,6.075,0,0.405,-1.712062E-05,6.075,0
0.4059,-3.356985E-07,6.0885,0,0.4059,-2.517739E-05,6.0885,0
0.4068,-5.706874E-06,6.102,0,0.4068,-3.894102E-05,6.102,0
0.4077,1.107805E-05,6.1155,0,0.4077,-8.728161E-06,6.1155,0
0.4086,-1.007095E-06,6.129,0,0.4086,3.054856E-05,6.129,0
0.4095,-2.685588E-06,6.1425,0,0.4095,-1.577783E-05,6.1425,0
0.4104,-1.141375E-05,6.156,0,0.4104,-5.069047E-05,6.156,0
0.4113,-7.721065E-06,6.1695,0,0.4113,1.745632E-05,6.1695,0
0.4122,-5.035477E-06,6.183,0,0.4122,-4.699779E-06,6.183,0
0.4131,-7.385367E-06,6.1965,0,0.4131,-4.39765E-05,6.1965,0
0.414,1.409934E-05,6.21,0,0.414,-7.721065E-06,6.21,0
0.4149,3.189136E-05,6.2235,0,0.4149,6.042573E-06,6.2235,0
0.4158,7.721065E-06,6.237,0,0.4158,-3.524834E-05,6.237,0
0.4167,-2.719158E-05,6.2505,0,0.4167,-4.934768E-05,6.2505,0
0.4176,-1.846342E-05,6.264,0,0.4176,-1.074235E-05,6.264,0
0.4185,-3.054856E-05,6.2775,0,0.4185,-1.879912E-05,6.2775,0
0.4194,-1.141375E-05,6.291,0,0.4194,-2.920577E-05,6.291,0
0.4203,-2.349889E-06,6.3045,0,0.4203,-4.599069E-05,6.3045,0
0.4212,1.846342E-05,6.318,0,0.4212,-9.063859E-06,6.318,0
0.4221,2.719158E-05,6.3315,0,0.4221,-6.713969E-07,6.3315,0
0.423,1.376364E-05,6.345,0,0.423,-2.517739E-05,6.345,0
0.4239,4.699779E-06,6.3585,0,0.4239,-4.162661E-05,6.3585,0
0.4248,-1.913481E-05,6.372,0,0.4248,1.644922E-05,6.372,0
0.4257,-1.007095E-06,6.3855,0,0.4257,-6.378271E-06,6.3855,0
0.4266,1.309224E-05,6.399,0,0.4266,-5.404745E-05,6.399,0
0.4275,-2.652018E-05,6.4125,0,0.4275,-3.692683E-06,6.4125,0
0.4284,-3.860533E-05,6.426,0,0.4284,2.316319E-05,6.426,0
0.4293,-2.618448E-05,6.4395,0,0.4293,-2.18204E-05,6.4395,0
0.4302,-2.652018E-05,6.453,0,0.4302,-4.632639E-05,6.453,0
0.4311,-1.477073E-05,6.4665,0,0.4311,-3.356985E-07,6.4665,0
0.432,-1.745632E-05,6.48,0,0.432,-2.1149E-05,6.48,0
0.4329,-2.954147E-05,6.4935,0,0.4329,-1.846342E-05,6.4935,0
0.4338,-2.047761E-05,6.507,0,0.4338,-5.069047E-05,6.507,0
0.4347,8.392462E-06,6.5205,0,0.4347,-2.316319E-05,6.5205,0
0.4356,-2.349889E-06,6.534,0,0.4356,-8.392462E-06,6.534,0
0.4365,-2.786297E-05,6.5475,0,0.4365,-3.356985E-05,6.5475,0
0.4374,-4.36408E-06,6.561,0,0.4374,-4.800488E-05,6.561,0
0.4383,-8.728161E-06,6.5745,0,0.4383,8.728161E-06,6.5745,0
0.4392,-2.383459E-05,6.588,0,0.4392,5.706874E-06,6.588,0
0.4401,-1.242084E-05,6.6015,0,0.4401,-4.46479E-05,6.6015,0
0.441,6.713969E-07,6.615,0,0.441,-3.356985E-06,6.615,0
0.4419,1.846342E-05,6.6285,0,0.4419,1.913481E-05,6.6285,0
0.4428,2.652018E-05,6.642,0,0.4428,-3.457694E-05,6.642,0
0.4437,2.1149E-05,6.6555,0,0.4437,-1.275654E-05,6.6555,0
0.4446,-9.735256E-06,6.669,0,0.4446,2.853437E-05,6.669,0
0.4455,6.378271E-06,6.6825,0,0.4455,-3.692683E-06,6.6825,0
0.4464,7.385367E-06,6.696,0,0.4464,-2.887007E-05,6.696,0
0.4473,2.1149E-05,6.7095,0,0.4473,-5.035477E-05,6.7095,0
0.4482,-2.685588E-06,6.723,0,0.4482,-2.24918E-05,6.723,0
0.4491,-4.867628E-05,6.7365,0,0.4491,-1.242084E-05,6.7365,0
0.45,-4.33051E-05,6.75,0,0.45,-5.001907E-05,6.75,0
0.4509,-2.786297E-05,6.7635,0,0.4509,-4.699779E-05,6.7635,0
0.4518,-3.524834E-05,6.777,0,0.4518,1.712062E-05,6.777,0
0.4527,-3.054856E-05,6.7905,0,0.4527,-5.706874E-06,6.7905,0
0.4536,-3.457694E-05,6.804,0,0.4536,-5.673304E-05,6.804,0
0.4545,-1.376364E-05,6.8175,0,0.4545,-5.035477E-06,6.8175,0
0.4554,3.826963E-05,6.831,0,0.4554,4.36408E-06,6.831,0
0.4563,2.1149E-05,6.8445,0,0.4563,-4.061952E-05,6.8445,0
0.4572,-9.063859E-06,6.858,0,0.4572,-4.800488E-05,6.858,0
0.4581,3.692683E-06,6.8715,0,0.4581,-1.577783E-05,6.8715,0
0.459,3.021286E-06,6.885,0,0.459,-1.980621E-05,6.885,0
0.4599,-3.692683E-06,6.8985,0,0.4599,-2.584878E-05,6.8985,0
0.4608,1.980621E-05,6.912,0,0.4608,-4.263371E-05,6.912,0
0.4617,1.644922E-05,6.9255,0,0.4617,-2.047761E-05,6.9255,0
0.4626,6.713969E-06,6.939,0,0.4626,-7.049668E-06,6.939,0
0.4635,-1.007095E-06,6.9525,0,0.4635,-3.256275E-05,6.9525,0
0.4644,-1.678492E-06,6.966,0,0.4644,-3.424125E-05,6.966,0
0.4653,-2.517739E-05,6.9795,0,0.4653,9.735256E-06,6.9795,0
0.4662,-2.014191E-06,6.993,0,0.4662,-1.007095E-05,6.993,0
0.4671,1.913481E-05,7.0065,0,0.4671,-5.203327E-05,7.0065,0
0.468,5.035477E-06,7.02,0,0.468,3.692683E-06,7.02,0
0.4689,-1.510643E-05,7.0335,0,0.4689,3.994812E-05,7.0335,0
0.4698,9.063859E-06,7.047,0,0.4698,-2.450599E-05,7.047,0
0.4707,4.028382E-05,7.0605,0,0.4707,-5.035477E-06,7.0605,0
0.4716,-6.378271E-06,7.074,0,0.4716,2.819867E-05,7.074,0
0.4725,3.692683E-06,7.0875,0,0.4725,5.706874E-06,7.0875,0
0.4734,-5.371176E-06,7.101,0,0.4734,-9.063859E-06,7.101,0
0.4743,-9.063859E-06,7.1145,0,0.4743,-4.33051E-05,7.1145,0
0.4752,-6.378271E-06,7.128,0,0.4752,-1.812772E-05,7.128,0
0.4761,-2.24918E-05,7.1415,0,0.4761,2.014191E-06,7.1415,0
0.477,-2.1149E-05,7.155,0,0.477,-3.256275E-05,7.155,0
0.4779,-3.356985E-07,7.1685,0,0.4779,-4.061952E-05,7.1685,0
0.4788,-1.510643E-05,7.182,0,0.4788,5.706874E-06,7.182,0
0.4797,-1.544213E-05,7.1955,0,0.4797,-9.399558E-06,7.1955,0
0.4806,-8.392462E-06,7.209,0,0.4806,-5.236896E-05,7.209,0
0.4815,-2.719158E-05,7.2225,0,0.4815,-8.056763E-06,7.2225,0
0.4824,-2.618448E-05,7.236,0,0.4824,-5.706874E-06,7.236,0
0.4833,-1.846342E-05,7.2495,0,0.4833,-4.766919E-05,7.2495,0
0.4842,3.356985E-07,7.263,0,0.4842,-2.316319E-05,7.263,0
0.4851,-1.913481E-05,7.2765,0,0.4851,1.040665E-05,7.2765,0
0.486,-7.049668E-06,7.29,0,0.486,-1.141375E-05,7.29,0
0.4869,7.049668E-06,7.3035,0,0.4869,-2.047761E-05,7.3035,0
0.4878,-1.107805E-05,7.317,0,0.4878,-3.155566E-05,7.317,0
0.4887,-1.913481E-05,7.3305,0,0.4887,-2.24918E-05,7.3305,0
0.4896,-1.208515E-05,7.344,0,0.4896,-1.040665E-05,7.344,0
0.4905,-1.107805E-05,7.3575,0,0.4905,-3.424125E-05,7.3575,0
0.4914,-3.860533E-05,7.371,0,0.4914,-5.203327E-05,7.371,0
0.4923,-3.793393E-05,7.3845,0,0.4923,6.378271E-06,7.3845,0
0.4932,3.021286E-06,7.398,0,0.4932,-1.007095E-05,7.398,0
0.4941,-3.356985E-07,7.4115,0,0.4941,-5.606165E-05,7.4115,0
0.495,-2.450599E-05,7.425,0,0.495,-1.678492E-06,7.425,0
0.4959,-4.36408E-06,7.4385,0,0.4959,-1.007095E-05,7.4385,0
0.4968,-7.385367E-06,7.452,0,0.4968,-5.001907E-05,7.452,0
0.4977,-2.18204E-05,7.4655,0,0.4977,-1.342794E-05,7.4655,0
0.4986,-4.699779E-06,7.479,0,0.4986,1.712062E-05,7.479,0
0.4995,-8.392462E-06,7.4925,0,0.4995,-3.692683E-06,7.4925,0
0.5004,-1.846342E-05,7.506,0,0.5004,-1.409934E-05,7.506,0
0.5013,-5.706874E-06,7.5195,0,0.5013,-4.53193E-05,7.5195,0
0.5022,-2.584878E-05,7.533,0,0.5022,-2.685588E-05,7.533,0
0.5031,-6.74754E-05,7.5465,0,0.5031,-2.517739E-05,7.5465,0
0.504,-3.625543E-05,7.56,0,0.504,-4.095522E-05,7.56,0
0.5049,1.309224E-05,7.5735,0,0.5049,-3.121996E-05,7.5735,0
0.5058,-3.424125E-05,7.587,0,0.5058,-1.174945E-05,7.587,0
0.5067,-3.121996E-05,7.6005,0,0.5067,-3.759823E-05,7.6005,0
0.5076,1.242084E-05,7.614,0,0.5076,-7.217517E-05,7.614,0
0.5085,-3.356985E-07,7.6275,0,0.5085,-6.378271E-06,7.6275,0
0.5094,-6.042573E-06,7.641,0,0.5094,1.309224E-05,7.641,0
0.5103,-5.706874E-06,7.6545,0,0.5103,-3.390555E-05,7.6545,0
0.5112,3.323415E-05,7.668,0,0.5112,-1.913481E-05,7.668,0
0.5121,2.1149E-05,7.6815,0,0.5121,1.947051E-05,7.6815,0
0.513,2.349889E-05,7.695,0,0.513,-9.063859E-06,7.695,0
0.5139,3.356985E-07,7.7085,0,0.5139,-1.107805E-05,7.7085,0
0.5148,1.913481E-05,7.722,0,0.5148,-3.424125E-05,7.722,0
0.5157,2.517739E-05,7.7355,0,0.5157,-1.712062E-05,7.7355,0
0.5166,-2.450599E-05,7.749,0,0.5166,0,7.749,0
0.5175,-3.591974E-05,7.7625,0,0.5175,-2.887007E-05,7.7625,0
0.5184,-3.088426E-05,7.776,0,0.5184,-5.270466E-05,7.776,0
0.5193,-2.1149E-05,7.7895,0,0.5193,-1.678492E-06,7.7895,0
0.5202,-2.584878E-05,7.803,0,0.5202,-1.141375E-05,7.803,0
0.5211,-1.242084E-05,7.8165,0,0.5211,-5.404745E-05,7.8165,0
0.522,1.309224E-05,7.83,0,0.522,-1.141375E-05,7.83,0
0.5229,1.644922E-05,7.8435,0,0.5229,-1.007095E-06,7.8435,0
0.5238,-5.035477E-06,7.857,0,0.5238,-3.558404E-05,7.857,0
0.5247,-7.385367E-06,7.8705,0,0.5247,-1.376364E-05,7.8705,0
0.5256,-2.719158E-05,7.884,0,0.5256,3.356985E-06,7.884,0
0.5265,1.007095E-06,7.8975,0,0.5265,-7.049668E-06,7.8975,0
0.5274,-3.356985E-07,7.911,0,0.5274,-2.21561E-05,7.911,0
0.5283,2.28275E-05,7.9245,0,0.5283,-3.726253E-05,7.9245,0
0.5292,5.706874E-06,7.938,0,0.5292,-2.24918E-05,7.938,0
0.5301,-9.063859E-06,7.9515,0,0.5301,-3.424125E-05,7.9515,0
0.531,6.042573E-06,7.965,0,0.531,-5.404745E-05,7.965,0
0.5319,-4.699779E-06,7.9785,0,0.5319,-6.57969E-05,7.9785,0
0.5328,-1.007095E-06,7.992,0,0.5328,-3.021286E-06,7.992,0
0.5337,1.107805E-05,8.0055,0,0.5337,-8.392462E-06,8.0055,0
0.5346,1.309224E-05,8.019,0,0.5346,-6.277562E-05,8.019,0
0.5355,-1.107805E-05,8.0325,0,0.5355,-5.035477E-06,8.0325,0
0.5364,-6.378271E-06,8.046,0,0.5364,1.040665E-05,8.046,0
0.5373,-1.242084E-05,8.0595,0,0.5373,-3.659113E-05,8.0595,0
0.5382,-7.049668E-06,8.073,0,0.5382,-7.721065E-06,8.073,0
0.5391,-5.706874E-06,8.0865,0,0.5391,3.256275E-05,8.0865,0
0.54,1.409934E-05,8.1,0,0.54,3.189136E-05,8.1,0
0.5409,-1.644922E-05,8.1135,0,0.5409,1.040665E-05,8.1135,0
0.5418,-6.378271E-06,8.127,0,0.5418,-4.196231E-05,8.127,0
0.5427,7.385367E-06,8.1405,0,0.5427,-1.376364E-05,8.1405,0
0.5436,-1.779202E-05,8.154,0,0.5436,-6.378271E-06,8.154,0
0.5445,-3.054856E-05,8.1675,0,0.5445,-4.229801E-05,8.1675,0
0.5454,-2.349889E-06,8.181,0,0.5454,-6.210422E-05,8.181,0
0.5463,-3.155566E-05,8.1945,0,0.5463,-1.174945E-05,8.1945,0
0.5472,-1.107805E-05,8.208,0,0.5472,-1.309224E-05,8.208,0
0.5481,3.894102E-05,8.2215,0,0.5481,-6.076142E-05,8.2215,0
0.549,-8.392462E-06,8.235,0,0.549,-3.692683E-06,8.235,0
0.5499,1.174945E-05,8.2485,0,0.5499,1.275654E-05,8.2485,0
0.5508,2.786297E-05,8.262,0,0.5508,-3.793393E-05,8.262,0
0.5517,2.383459E-05,8.2755,0,0.5517,-2.417029E-05,8.2755,0
0.5526,1.007095E-05,8.289,0,0.5526,1.779202E-05,8.289,0
0.5535,-9.735256E-06,8.3025,0,0.5535,-6.713969E-07,8.3025,0
0.5544,-3.356985E-06,8.316,0,0.5544,-2.081331E-05,8.316,0
0.5553,-9.735256E-06,8.3295,0,0.5553,-4.53193E-05,8.3295,0
0.5562,-1.174945E-05,8.343,0,0.5562,-2.484169E-05,8.343,0
0.5571,-4.129091E-05,8.3565,0,0.5571,-1.678492E-05,8.3565,0
0.558,-4.599069E-05,8.37,0,0.558,-4.800488E-05,8.37,0
0.5589,-2.584878E-05,8.3835,0,0.5589,-5.740444E-05,8.3835,0
0.5598,-2.987716E-05,8.397,0,0.5598,9.399558E-06,8.397,0
0.5607,-4.263371E-05,8.4105,0,0.5607,1.913481E-05,8.4105,0
0.5616,-1.409934E-05,8.424,0,0.5616,1.577783E-05,8.424,0
0.5625,-1.510643E-05,8.4375,0,0.5625,4.129091E-05,8.4375,0
0.5634,-3.356985E-07,8.451,0,0.5634,2.417029E-05,8.451,0
0.5643,3.356985E-06,8.4645,0,0.5643,-1.007095E-05,8.4645,0
0.5652,2.1149E-05,8.478,0,0.5652,-7.385367E-06,8.478,0
0.5661,1.812772E-05,8.4915,0,0.5661,3.356985E-07,8.4915,0
0.567,4.36408E-06,8.505,0,0.567,-1.107805E-05,8.505,0
0.5679,-1.007095E-06,8.5185,0,0.5679,-1.174945E-05,8.5185,0
0.5688,2.752728E-05,8.532,0,0.5688,-2.853437E-05,8.532,0
0.5697,2.383459E-05,8.5455,0,0.5697,-2.450599E-05,8.5455,0
0.5706,-2.316319E-05,8.559,0,0.5706,-6.713969E-07,8.559,0
0.5715,2.349889E-06,8.5725,0,0.5715,-2.18204E-05,8.5725,0
0.5724,-3.021286E-06,8.586,0,0.5724,-5.774014E-05,8.586,0
0.5733,-4.129091E-05,8.5995,0,0.5733,-7.721065E-06,8.5995,0
0.5742,-3.256275E-05,8.613,0,0.5742,-1.376364E-05,8.613,0
0.5751,-1.107805E-05,8.6265,0,0.5751,-6.445411E-05,8.6265,0
0.576,-9.735256E-06,8.64,0,0.576,1.342794E-06,8.64,0
0.5769,1.208515E-05,8.6535,0,0.5769,7.721065E-06,8.6535,0
0.5778,2.047761E-05,8.667,0,0.5778,-5.203327E-05,8.667,0
0.5787,-2.484169E-05,8.6805,0,0.5787,-2.920577E-05,8.6805,0
0.5796,-3.121996E-05,8.694,0,0.5796,-6.713969E-06,8.694,0
0.5805,-1.376364E-05,8.7075,0,0.5805,-1.510643E-05,8.7075,0
0.5814,-2.484169E-05,8.721,0,0.5814,-3.121996E-05,8.721,0
0.5823,-1.443504E-05,8.7345,0,0.5823,-5.706874E-05,8.7345,0
0.5832,1.678492E-05,8.748,0,0.5832,-2.786297E-05,8.748,0
0.5841,-2.1149E-05,8.7615,0,0.5841,-2.014191E-05,8.7615,0
0.585,-2.349889E-05,8.775,0,0.585,-5.404745E-05,8.775,0
0.5859,3.390555E-05,8.7885,0,0.5859,-5.471885E-05,8.7885,0
0.5868,1.577783E-05,8.802,0,0.5868,1.040665E-05,8.802,0
0.5877,-6.378271E-06,8.8155,0,0.5877,-1.007095E-05,8.8155,0
0.5886,-7.049668E-06,8.829,0,0.5886,-4.867628E-05,8.829,0
0.5895,-1.913481E-05,8.8425,0,0.5895,-8.392462E-06,8.8425,0
0.5904,-5.035477E-06,8.856,0,0.5904,7.721065E-06,8.856,0
0.5913,-1.846342E-05,8.8695,0,0.5913,-3.121996E-05,8.8695,0
0.5922,-2.719158E-05,8.883,0,0.5922,-4.33051E-05,8.883,0
0.5931,-2.551309E-05,8.8965,0,0.5931,-1.678492E-06,8.8965,0
0.594,-1.141375E-05,8.91,0,0.594,-2.28275E-05,8.91,0
0.5949,-4.36408E-06,8.9235,0,0.5949,-3.894102E-05,8.9235,0
0.5958,-2.853437E-05,8.937,0,0.5958,-4.666209E-05,8.937,0
0.5967,-1.107805E-05,8.9505,0,0.5967,-1.208515E-05,8.9505,0
0.5976,1.007095E-06,8.964,0,0.5976,1.174945E-05,8.964,0
0.5985,2.685588E-06,8.9775,0,0.5985,-2.21561E-05,8.9775,0
0.5994,1.107805E-05,8.991,0,0.5994,-2.450599E-05,8.991,0
0.6003,-1.913481E-05,9.0045,0,0.6003,2.719158E-05,9.0045,0
0.6012,4.36408E-06,9.018,0,0.6012,3.323415E-05,9.018,0
0.6021,1.275654E-05,9.0315,0,0.6021,-3.390555E-05,9.0315,0
0.603,4.699779E-06,9.045,0,0.603,7.049668E-06,9.045,0
0.6039,3.524834E-05,9.0585,0,0.6039,1.107805E-05,9.0585,0
0.6048,-2.383459E-05,9.072001,0,0.6048,-4.162661E-05,9.072001,0
0.6057,-1.208515E-05,9.0855,0,0.6057,-2.584878E-05,9.0855,0
0.6066,-5.706874E-06,9.099,0,0.6066,1.846342E-05,9.099,0
0.6075,-2.047761E-05,9.1125,0,0.6075,-1.779202E-05,9.1125,0
0.6084,-3.054856E-05,9.126,0,0.6084,-4.800488E-05,9.126,0
0.6093,6.042573E-06,9.1395,0,0.6093,-5.572595E-05,9.1395,0
0.6102,7.721065E-06,9.153,0,0.6102,-1.544213E-05,9.153,0
0.6111,-1.141375E-05,9.1665,0,0.6111,9.399558E-06,9.1665,0
0.612,-1.443504E-05,9.18,0,0.612,-4.800488E-05,9.18,0
0.6129,8.392462E-06,9.1935,0,0.6129,-5.874724E-05,9.1935,0
0.6138,-4.46479E-05,9.207,0,0.6138,-1.947051E-05,9.207,0
0.6147,-2.920577E-05,9.2205,0,0.6147,-2.047761E-05,9.2205,0
0.6156,5.035477E-06,9.234,0,0.6156,-6.311131E-05,9.234,0
0.6165,-6.713969E-07,9.2475,0,0.6165,3.356985E-07,9.2475,0
0.6174,3.524834E-05,9.261,0,0.6174,3.356985E-07,9.261,0
0.6183,3.424125E-05,9.2745,0,0.6183,-5.035477E-05,9.2745,0
0.6192,-2.987716E-05,9.288,0,0.6192,-9.399558E-06,9.288,0
0.6201,-2.584878E-05,9.3015,0,0.6201,1.242084E-05,9.3015,0
0.621,3.356985E-07,9.315,0,0.621,-1.309224E-05,9.315,0
0.6219,-9.063859E-06,9.3285,0,0.6219,-1.745632E-05,9.3285,0
0.6228,4.36408E-06,9.342,0,0.6228,-2.349889E-05,9.342,0
0.6237,1.544213E-05,9.3555,0,0.6237,-2.014191E-06,9.3555,0
0.6246,3.356985E-05,9.369,0,0.6246,-1.007095E-06,9.369,0
0.6255,9.063859E-06,9.3825,0,0.6255,-4.229801E-05,9.3825,0
0.6264,1.947051E-05,9.396,0,0.6264,-8.123904E-05,9.396,0
0.6273,-6.378271E-06,9.4095,0,0.6273,-5.069047E-05,9.4095,0
0.6282,-2.685588E-05,9.423,0,0.6282,-3.356985E-05,9.423,0
0.6291,-1.007095E-05,9.4365,0,0.6291,-7.049668E-05,9.4365,0
0.63,-2.517739E-05,9.45,0,0.63,-1.242084E-05,9.45,0
0.6309,-5.874724E-05,9.4635,0,0.6309,-6.713969E-06,9.4635,0
0.6318,-4.800488E-05,9.477,0,0.6318,-3.323415E-05,9.477,0
0.6327,-4.699779E-06,9.4905,0,0.6327,-2.18204E-05,9.4905,0
0.6336,-4.129091E-05,9.504,0,0.6336,1.477073E-05,9.504,0
0.6345,-2.752728E-05,9.5175,0,0.6345,7.049668E-06,9.5175,0
0.6354,-1.007095E-05,9.531,0,0.6354,-9.063859E-06,9.531,0
0.6363,0,9.5445,0,0.6363,-4.867628E-05,9.5445,0
0.6372,2.014191E-06,9.558,0,0.6372,-3.524834E-05,9.558,0
0.6381,-3.356985E-07,9.5715,0,0.6381,-1.007095E-05,9.5715,0
0.639,-2.349889E-05,9.585,0,0.639,-2.652018E-05,9.585,0
0.6399,-1.577783E-05,9.5985,0,0.6399,-3.054856E-05,9.5985,0
0.6408,-9.399558E-06,9.612,0,0.6408,5.035477E-05,9.612,0
0.6417,-1.477073E-05,9.6255,0,0.6417,6.51255E-05,9.6255,0
0.6426,-7.385367E-06,9.639,0,0.6426,-3.021286E-06,9.639,0
0.6435,-5.706874E-06,9.6525,0,0.6435,2.584878E-05,9.6525,0
0.6444,2.685588E-05,9.666,0,0.6444,2.517739E-05,9.666,0
0.6453,3.726253E-05,9.6795,0,0.6453,-1.208515E-05,9.6795,0
0.6462,7.721065E-06,9.693,0,0.6462,-1.477073E-05,9.693,0
0.6471,1.712062E-05,9.7065,0,0.6471,3.692683E-06,9.7065,0
0.648,7.721065E-06,9.72,0,0.648,-1.510643E-05,9.72,0
0.6489,-4.061952E-05,9.7335,0,0.6489,-1.980621E-05,9.7335,0
0.6498,-1.074235E-05,9.747,0,0.6498,-4.666209E-05,9.747,0
0.6507,1.846342E-05,9.7605,0,0.6507,-1.107805E-05,9.7605,0
0.6516,-1.779202E-05,9.774,0,0.6516,5.035477E-06,9.774,0
0.6525,-2.920577E-05,9.7875,0,0.6525,-2.383459E-05,9.7875,0
0.6534,-1.812772E-05,9.801,0,0.6534,-5.438316E-05,9.801,0
0.6543,-3.121996E-05,9.8145,0,0.6543,-1.745632E-05,9.8145,0
0.6552,-1.242084E-05,9.828,0,0.6552,-1.913481E-05,9.828,0
0.6561,2.349889E-06,9.8415,0,0.6561,-6.411841E-05,9.8415,0
0.657,-3.256275E-05,9.855,0,0.657,-1.644922E-05,9.855,0
0.6579,1.040665E-05,9.8685,0,0.6579,-8.392462E-06,9.8685,0
0.6588,2.047761E-05,9.882,0,0.6588,-4.733349E-05,9.882,0
0.6597,2.316319E-05,9.8955,0,0.6597,-3.726253E-05,9.8955,0
0.6606,-5.035477E-06,9.909,0,0.6606,8.392462E-06,9.909,0
0.6615,-1.712062E-05,9.9225,0,0.6615,-5.706874E-06,9.9225,0
0.6624,-4.36408E-06,9.936,0,0.6624,7.049668E-06,9.936,0
0.6633,0,9.9495,0,0.6633,-3.726253E-05,9.9495,0
0.6642,1.007095E-06,9.963,0,0.6642,-2.24918E-05,9.963,0
0.6651,-4.36408E-06,9.976501,0,0.6651,-2.450599E-05,9.976501,0
0.666,-3.054856E-05,9.99,0,0.666,-5.404745E-05,9.99,0
0.6669,-1.141375E-05,10.0035,0,0.6669,-5.035477E-05,10.0035,0
0.6678,3.021286E-06,10.017,0,0.6678,9.063859E-06,10.017,0
0.6687,-2.584878E-05,10.0305,0,0.6687,-1.477073E-05,10.0305,0
0.6696,-1.174945E-05,10.044,0,0.6696,-6.042573E-05,10.044,0
0.6705,1.409934E-05,10.0575,0,0.6705,-5.035477E-06,10.0575,0
0.6714,-1.040665E-05,10.071,0,0.6714,1.812772E-05,10.071,0
0.6723,-3.524834E-05,10.0845,0,0.6723,-2.652018E-05,10.0845,0
0.6732,1.309224E-05,10.098,0,0.6732,-3.054856E-05,10.098,0
0.6741,-1.275654E-05,10.1115,0,0.6741,-2.349889E-06,10.1115,0
0.675,-3.491264E-05,10.125,0,0.675,-7.385367E-06,10.125,0
0.6759,-4.196231E-05,10.1385,0,0.6759,-3.021286E-05,10.1385,0
0.6768,-1.812772E-05,10.152,0,0.6768,-3.927672E-05,10.152,0
0.6777,-2.484169E-05,10.1655,0,0.6777,-2.316319E-05,10.1655,0
0.6786,-6.176852E-05,10.179,0,0.6786,-1.107805E-05,10.179,0
0.6795,-3.726253E-05,10.1925,0,0.6795,-2.853437E-05,10.1925,0
0.6804,-2.014191E-06,10.206,0,0.6804,-5.136187E-05,10.206,0
0.6813,-2.014191E-06,10.2195,0,0.6813,8.728161E-06,10.2195,0
0.6822,1.141375E-05,10.233,0,0.6822,1.275654E-05,10.233,0
0.6831,1.510643E-05,10.2465,0,0.6831,-5.639734E-05,10.2465,0
0.684,-1.779202E-05,10.26,0,0.684,-2.349889E-06,10.26,0
0.6849,1.913481E-05,10.2735,0,0.6849,1.443504E-05,10.2735,0
0.6858,1.208515E-05,10.287,0,0.6858,-4.599069E-05,10.287,0
0.6867,-1.443504E-05,10.3005,0,0.6867,-4.733349E-05,10.3005,0
0.6876,2.014191E-06,10.314,0,0.6876,-2.081331E-05,10.314,0
0.6885,-9.735256E-06,10.3275,0,0.6885,-3.256275E-05,10.3275,0
0.6894,6.042573E-06,10.341,0,0.6894,-5.740444E-05,10.341,0
0.6903,2.1149E-05,10.3545,0,0.6903,-8.69459E-05,10.3545,0
0.6912,1.510643E-05,10.368,0,0.6912,-3.927672E-05,10.368,0
0.6921,1.007095E-05,10.3815,0,0.6921,3.491264E-05,10.3815,0
0.693,7.385367E-06,10.395,0,0.693,2.584878E-05,10.395,0
0.6939,2.349889E-06,10.4085,0,0.6939,-2.1149E-05,10.4085,0
0.6948,1.678492E-06,10.422,0,0.6948,1.107805E-05,10.422,0
0.6957,1.678492E-06,10.4355,0,0.6957,1.678492E-06,10.4355,0
0.6966,1.846342E-05,10.449,0,0.6966,-4.599069E-05,10.449,0
0.6975,-1.107805E-05,10.4625,0,0.6975,-1.309224E-05,10.4625,0
0.6984,-4.599069E-05,10.476,0,0.6984,-1.275654E-05,10.476,0
0.6993,-3.289845E-05,10.4895,0,0.6993,-4.46479E-05,10.4895,0
0.7002,-8.056763E-06,10.503,0,0.7002,-2.014191E-05,10.503,0
0.7011,-3.692683E-05,10.5165,0,0.7011,-5.706874E-06,10.5165,0
0.702,-1.812772E-05,10.53,0,0.702,-3.021286E-05,10.53,0
0.7029,-1.174945E-05,10.5435,0,0.7029,-2.047761E-05,10.5435,0
0.7038,-1.678492E-05,10.557,0,0.7038,-4.599069E-05,10.557,0
0.7047,9.735256E-06,10.5705,0,0.7047,-3.021286E-06,10.5705,0
0.7056,1.846342E-05,10.584,0,0.7056,3.256275E-05,10.584,0
0.7065,-3.356985E-07,10.5975,0,0.7065,-8.392462E-06,10.5975,0
0.7074,3.692683E-06,10.611,0,0.7074,-2.786297E-05,10.611,0
0.7083,-1.007095E-06,10.6245,0,0.7083,4.39765E-05,10.6245,0
0.7092,2.349889E-06,10.638,0,0.7092,1.510643E-05,10.638,0
0.7101,-1.107805E-05,10.6515,0,0.7101,-3.021286E-05,10.6515,0
0.711,-1.947051E-05,10.665,0,0.711,2.1149E-05,10.665,0
0.7119,-2.719158E-05,10.6785,0,0.7119,2.1149E-05,10.6785,0
0.7128,-3.759823E-05,10.692,0,0.7128,-4.53193E-05,10.692,0
0.7137,1.040665E-05,10.7055,0,0.7137,-4.632639E-05,10.7055,0
0.7146,2.383459E-05,10.719,0,0.7146,3.356985E-07,10.719,0
0.7155,2.349889E-06,10.7325,0,0.7155,-3.121996E-05,10.7325,0
0.7164,-1.779202E-05,10.746,0,0.7164,-5.102617E-05,10.746,0
0.7173,-1.174945E-05,10.7595,0,0.7173,-6.411841E-05,10.7595,0
0.7182,-1.040665E-05,10.773,0,0.7182,-2.047761E-05,10.773,0
0.7191,-1.141375E-05,10.7865,0,0.7191,-1.174945E-05,10.7865,0
0.72,-3.692683E-06,10.8,0,0.72,-2.719158E-05,10.8,0
0.7209,2.450599E-05,10.8135,0,0.7209,-4.061952E-05,10.8135,0
0.7218,-1.812772E-05,10.827,0,0.7218,-1.074235E-05,10.827,0
0.7227,-1.510643E-05,10.8405,0,0.7227,-2.618448E-05,10.8405,0
0.7236,2.047761E-05,10.854,0,0.7236,-7.620356E-05,10.854,0
0.7245,-2.349889E-06,10.8675,0,0.7245,-1.074235E-05,10.8675,0
0.7254,1.007095E-06,10.881,0,0.7254,4.028382E-06,10.881,0
0.7263,-2.349889E-06,10.8945,0,0.7263,-3.994812E-05,10.8945,0
0.7272,2.047761E-05,10.908,0,0.7272,3.356985E-07,10.908,0
0.7281,1.040665E-05,10.9215,0,0.7281,1.242084E-05,10.9215,0
0.729,-1.678492E-05,10.935,0,0.729,-8.392462E-06,10.935,0
0.7299,-4.867628E-05,10.9485,0,0.7299,2.014191E-06,10.9485,0
0.7308,-1.913481E-05,10.962,0,0.7308,-2.18204E-05,10.962,0
0.7317,-2.484169E-05,10.9755,0,0.7317,-3.021286E-06,10.9755,0
0.7326,-4.733349E-05,10.989,0,0.7326,5.035477E-06,10.989,0
0.7335,-4.867628E-05,11.0025,0,0.7335,-4.095522E-05,11.0025,0
0.7344,-1.174945E-05,11.016,0,0.7344,-5.136187E-05,11.016,0
0.7353,1.342794E-06,11.0295,0,0.7353,1.376364E-05,11.0295,0
0.7362,1.309224E-05,11.043,0,0.7362,8.392462E-06,11.043,0
0.7371,3.323415E-05,11.0565,0,0.7371,-7.217517E-05,11.0565,0
0.738,2.786297E-05,11.07,0,0.738,-3.256275E-05,11.07,0
0.7389,1.342794E-05,11.0835,0,0.7389,-3.356985E-06,11.0835,0
0.7398,6.042573E-06,11.097,0,0.7398,-5.337606E-05,11.097,0
0.7407,4.666209E-05,11.1105,0,0.7407,-3.558404E-05,11.1105,0
0.7416,-3.021286E-06,11.124,0,0.7416,3.189136E-05,11.124,0
0.7425,-5.706874E-06,11.1375,0,0.7425,3.054856E-05,11.1375,0
0.7434,5.706874E-06,11.151,0,0.7434,-2.24918E-05,11.151,0
0.7443,6.042573E-06,11.1645,0,0.7443,-3.659113E-05,11.1645,0
0.7452,-8.392462E-06,11.178,0,0.7452,-3.021286E-05,11.178,0
0.7461,-2.21561E-05,11.1915,0,0.7461,-1.174945E-05,11.1915,0
0.747,-1.678492E-05,11.205,0,0.747,-3.826963E-05,11.205,0
0.7479,-2.24918E-05,11.2185,0,0.7479,-5.203327E-05,11.2185,0
0.7488,-3.289845E-05,11.232,0,0.7488,1.577783E-05,11.232,0
0.7497,-4.46479E-05,11.2455,0,0.7497,2.685588E-06,11.2455,0
0.7506,-4.095522E-05,11.259,0,0.7506,-2.18204E-05,11.259,0
0.7515,-3.256275E-05,11.2725,0,0.7515,3.894102E-05,11.2725,0
0.7524,-2.853437E-05,11.286,0,0.7524,3.088426E-05,11.286,0
0.7533,1.174945E-05,11.2995,0,0.7533,-2.1149E-05,11.2995,0
0.7542,7.049668E-06,11.313,0,0.7542,-1.242084E-05,11.313,0
0.7551,1.577783E-05,11.3265,0,0.7551,1.007095E-06,11.3265,0
0.756,3.591974E-05,11.34,0,0.756,-5.035477E-06,11.34,0
0.7569,-1.174945E-05,11.3535,0,0.7569,-1.544213E-05,11.3535,0
0.7578,-1.208515E-05,11.367,0,0.7578,-4.229801E-05,11.367,0
0.7587,4.028382E-06,11.3805,0,0.7587,1.174945E-05,11.3805,0
0.7596,-5.471885E-05,11.394,0,0.7596,3.289845E-05,11.394,0
0.7605,-3.860533E-05,11.4075,0,0.7605,3.356985E-07,11.4075,0
0.7614,-1.309224E-05,11.421,0,0.7614,-3.256275E-05,11.421,0
0.7623,-4.129091E-05,11.4345,0,0.7623,-5.371176E-06,11.4345,0
0.7632,-3.927672E-05,11.448,0,0.7632,-3.994812E-05,11.448,0
0.7641,-1.040665E-05,11.4615,0,0.7641,-8.157473E-05,11.4615,0
0.765,-2.047761E-05,11.475,0,0.765,-3.121996E-05,11.475,0
0.7659,1.712062E-05,11.4885,0,0.7659,-1.242084E-05,11.4885,0
0.7668,4.46479E-05,11.502,0,0.7668,-5.471885E-05,11.502,0
0.7677,2.383459E-05,11.5155,0,0.7677,-6.814679E-05,11.5155,0
0.7686,-1.007095E-06,11.529,0,0.7686,-2.18204E-05,11.529,0
0.7695,-1.007095E-06,11.5425,0,0.7695,-6.478981E-05,11.5425,0
0.7704,-1.376364E-05,11.556,0,0.7704,-8.023193E-05,11.556,0
0.7713,4.36408E-06,11.5695,0,0.7713,-7.284657E-05,11.5695,0
0.7722,-1.678492E-06,11.583,0,0.7722,-4.162661E-05,11.583,0
0.7731,2.383459E-05,11.5965,0,0.7731,-2.349889E-05,11.5965,0
0.774,2.383459E-05,11.61,0,0.774,-5.102617E-05,11.61,0
0.7749,3.457694E-05,11.6235,0,0.7749,-5.438316E-05,11.6235,0
0.7758,1.040665E-05,11.637,0,0.7758,7.721065E-06,11.637,0
0.7767,-1.174945E-05,11.6505,0,0.7767,-1.242084E-05,11.6505,0
0.7776,-1.644922E-05,11.664,0,0.7776,-4.968337E-05,11.664,0
0.7785,-1.577783E-05,11.6775,0,0.7785,1.577783E-05,11.6775,0
0.7794,-2.047761E-05,11.691,0,0.7794,3.323415E-05,11.691,0
0.7803,-1.007095E-06,11.7045,0,0.7803,1.309224E-05,11.7045,0
0.7812,6.378271E-06,11.718,0,0.7812,1.275654E-05,11.718,0
0.7821,-1.141375E-05,11.7315,0,0.7821,2.853437E-05,11.7315,0
0.783,-2.047761E-05,11.745,0,0.783,-1.678492E-06,11.745,0
0.7839,-1.510643E-05,11.7585,0,0.7839,-8.392462E-06,11.7585,0
0.7848,8.728161E-06,11.772,0,0.7848,-6.378271E-06,11.772,0
0.7857,-5.706874E-06,11.7855,0,0.7857,2.752728E-05,11.7855,0
0.7866,-3.793393E-05,11.799,0,0.7866,1.007095E-06,11.799,0
0.7875,-4.33051E-05,11.8125,0,0.7875,-7.721065E-06,11.8125,0
0.7884,-2.316319E-05,11.826,0,0.7884,2.081331E-05,11.826,0
0.7893,-1.644922E-05,11.8395,0,0.7893,4.733349E-05,11.8395,0
0.7902,-4.699779E-06,11.853,0,0.7902,1.644922E-05,11.853,0
0.7911,8.728161E-06,11.8665,0,0.7911,-6.51255E-05,11.8665,0
0.792,-3.390555E-05,11.88,0,0.792,-4.632639E-05,11.88,0
0.7929,-3.659113E-05,11.8935,0,0.7929,1.007095E-06,11.8935,0
0.7938,-1.812772E-05,11.907,0,0.7938,3.457694E-05,11.907,0
0.7947,-2.316319E-05,11.9205,0,0.7947,2.584878E-05,11.9205,0
0.7956,-3.524834E-05,11.934,0,0.7956,-2.24918E-05,11.934,0
0.7965,-2.652018E-05,11.9475,0,0.7965,-4.766919E-05,11.9475,0
0.7974,-1.376364E-05,11.961,0,0.7974,-8.426032E-05,11.961,0
0.7983,5.706874E-06,11.9745,0,0.7983,-0.0001383078,11.9745,0
0.7992,1.007095E-05,11.988,0,0.7992,-0.0001111162,11.988,0
0.8001,2.853437E-05,12.0015,0,0.8001,-2.987716E-05,12.0015,0
0.801,8.392462E-06,12.015,0,0.801,-2.047761E-05,12.015,0
0.8019,1.678492E-06,12.0285,0,0.8019,-8.493171E-05,12.0285,0
0.8028,7.049668E-06,12.042,0,0.8028,-3.390555E-05,12.042,0
0.8037,-3.692683E-06,12.0555,0,0.8037,-4.33051E-05,12.0555,0
0.8046,1.846342E-05,12.069,0,0.8046,-7.150377E-05,12.069,0
0.8055,-2.18204E-05,12.0825,0,0.8055,-1.577783E-05,12.0825,0
0.8064,-3.659113E-05,12.096,0,0.8064,6.042573E-06,12.096,0
0.8073,-1.947051E-05,12.1095,0,0.8073,-8.89601E-05,12.1095,0
0.8082,-1.712062E-05,12.123,0,0.8082,-7.351797E-05,12.123,0
0.8091,-3.088426E-05,12.1365,0,0.8091,-5.706874E-06,12.1365,0
0.81,-3.021286E-06,12.15,0,0.81,2.014191E-06,12.15,0
0.8109,1.309224E-05,12.1635,0,0.8109,1.309224E-05,12.1635,0
0.8118,2.584878E-05,12.177,0,0.8118,2.047761E-05,12.177,0
0.8127,2.383459E-05,12.1905,0,0.8127,3.793393E-05,12.1905,0
0.8136,1.107805E-05,12.204,0,0.8136,2.584878E-05,12.204,0
0.8145,-2.584878E-05,12.2175,0,0.8145,-3.424125E-05,12.2175,0
0.8154,-1.342794E-06,12.231,0,0.8154,-3.826963E-05,12.231,0
0.8163,9.735256E-06,12.2445,0,0.8163,3.155566E-05,12.2445,0
0.8172,-1.040665E-05,12.258,0,0.8172,-1.644922E-05,12.258,0
0.8181,1.174945E-05,12.2715,0,0.8181,-5.270466E-05,12.2715,0
0.819,-8.392462E-06,12.285,0,0.819,3.860533E-05,12.285,0
0.8199,2.383459E-05,12.2985,0,0.8199,7.956054E-05,12.2985,0
0.8208,1.678492E-05,12.312,0,0.8208,2.24918E-05,12.312,0
0.8217,4.36408E-06,12.3255,0,0.8217,-2.18204E-05,12.3255,0
0.8226,-1.376364E-05,12.339,0,0.8226,2.652018E-05,12.339,0
0.8235,6.713969E-07,12.3525,0,0.8235,1.678492E-06,12.3525,0
0.8244,-6.378271E-06,12.366,0,0.8244,-2.920577E-05,12.366,0
0.8253,-2.24918E-05,12.3795,0,0.8253,-5.270466E-05,12.3795,0
0.8262,-4.33051E-05,12.393,0,0.8262,-1.812772E-05,12.393,0
0.8271,-3.591974E-05,12.4065,0,0.8271,-4.36408E-06,12.4065,0
0.828,-2.24918E-05,12.42,0,0.828,-2.652018E-05,12.42,0
0.8289,-1.947051E-05,12.4335,0,0.8289,-5.404745E-05,12.4335,0
0.8298,-1.242084E-05,12.447,0,0.8298,-2.081331E-05,12.447,0
0.8307,2.517739E-05,12.4605,0,0.8307,-3.256275E-05,12.4605,0
0.8316,2.786297E-05,12.474,0,0.8316,-7.284657E-05,12.474,0
0.8325,1.745632E-05,12.4875,0,0.8325,0,12.4875,0
0.8334,3.826963E-05,12.501,0,0.8334,-7.049668E-06,12.501,0
0.8343,-3.021286E-06,12.5145,0,0.8343,-6.243992E-05,12.5145,0
0.8352,-5.639734E-05,12.528,0,0.8352,-1.712062E-05,12.528,0
0.8361,-5.069047E-05,12.5415,0,0.8361,-3.356985E-06,12.5415,0
0.837,-2.920577E-05,12.555,0,0.837,-2.047761E-05,12.555,0
0.8379,-1.712062E-05,12.5685,0,0.8379,-2.18204E-05,12.5685,0
0.8388,-6.713969E-06,12.582,0,0.8388,-5.337606E-05,12.582,0
0.8397,6.378271E-06,12.5955,0,0.8397,-3.054856E-05,12.5955,0
0.8406,1.980621E-05,12.609,0,0.8406,-2.484169E-05,12.609,0
0.8415,-3.356985E-07,12.6225,0,0.8415,-6.948959E-05,12.6225,0
0.8424,7.721065E-06,12.636,0,0.8424,-8.426032E-05,12.636,0
0.8433,-1.678492E-05,12.6495,0,0.8433,-1.644922E-05,12.6495,0
0.8442,-2.18204E-05,12.663,0,0.8442,-8.392462E-06,12.663,0
0.8451,5.035477E-06,12.6765,0,0.8451,-5.169757E-05,12.6765,0
0.846,-1.409934E-05,12.69,0,0.846,1.107805E-05,12.69,0
0.8469,-2.24918E-05,12.7035,0,0.8469,4.733349E-05,12.7035,0
0.8478,-1.107805E-05,12.717,0,0.8478,-6.713969E-07,12.717,0
0.8487,1.007095E-06,12.7305,0,0.8487,1.779202E-05,12.7305,0
0.8496,-9.399558E-06,12.744,0,0.8496,3.289845E-05,12.744,0
0.8505,-7.385367E-06,12.7575,0,0.8505,-6.378271E-06,12.7575,0
0.8514,1.846342E-05,12.771,0,0.8514,-1.678492E-05,12.771,0
0.8523,1.242084E-05,12.7845,0,0.8523,-2.786297E-05,12.7845,0
0.8532,2.349889E-06,12.798,0,0.8532,-2.316319E-05,12.798,0
0.8541,-4.028382E-06,12.8115,0,0.8541,-1.208515E-05,12.8115,0
0.855,9.735256E-06,12.825,0,0.855,-5.001907E-05,12.825,0
0.8559,-1.242084E-05,12.8385,0,0.8559,-7.083238E-05,12.8385,0
0.8568,-2.685588E-05,12.852,0,0.8568,-3.356985E-07,12.852,0
0.8577,-1.846342E-05,12.8655,0,0.8577,-5.706874E-06,12.8655,0
0.8586,-1.644922E-05,12.879,0,0.8586,-3.961242E-05,12.879,0
0.8595001,-3.793393E-05,12.8925,0,0.8595001,1.309224E-05,12.8925,0
0.8604,-6.51255E-05,12.906,0,0.8604,3.558404E-05,12.906,0
0.8613,-4.934768E-05,12.9195,0,0.8613,4.36408E-06,12.9195,0
0.8622,-4.666209E-05,12.933,0,0.8622,2.920577E-05,12.933,0
0.8631,-2.1149E-05,12.9465,0,0.8631,5.337606E-05,12.9465,0
0.864,-1.141375E-05,12.96,0,0.864,2.652018E-05,12.96,0
0.8649,-7.721065E-06,12.9735,0,0.8649,5.035477E-06,12.9735,0
0.8658,1.846342E-05,12.987,0,0.8658,-3.826963E-05,12.987,0
0.8667,2.954147E-05,13.0005,0,0.8667,-4.095522E-05,13.0005,0
0.8676,1.443504E-05,13.014,0,0.8676,-4.162661E-05,13.014,0
0.8685,-3.356985E-07,13.0275,0,0.8685,-6.076142E-05,13.0275,0
0.8694,1.342794E-06,13.041,0,0.8694,-7.553216E-05,13.041,0
0.8703,3.692683E-06,13.0545,0,0.8703,-9.063859E-06,13.0545,0
0.8712,1.309224E-05,13.068,0,0.8712,-3.054856E-05,13.068,0
0.8721,-1.342794E-06,13.0815,0,0.8721,-9.567407E-05,13.0815,0
0.873,-2.450599E-05,13.095,0,0.873,-5.404745E-05,13.095,0
0.8739,-8.392462E-06,13.1085,0,0.8739,-9.063859E-06,13.1085,0
0.8748,-3.021286E-06,13.122,0,0.8748,-2.819867E-05,13.122,0
0.8757,-3.289845E-05,13.1355,0,0.8757,1.577783E-05,13.1355,0
0.8766,-4.028382E-06,13.149,0,0.8766,6.277562E-05,13.149,0
0.8775,1.242084E-05,13.1625,0,0.8775,1.879912E-05,13.1625,0
0.8784,-7.385367E-06,13.176,0,0.8784,6.713969E-07,13.176,0
0.8793,-1.611353E-05,13.1895,0,0.8793,-3.659113E-05,13.1895,0
0.8802,7.049668E-06,13.203,0,0.8802,-5.706874E-06,13.203,0
0.8811,1.007095E-06,13.2165,0,0.8811,9.063859E-06,13.2165,0
0.882,-3.793393E-05,13.23,0,0.882,-2.719158E-05,13.23,0
0.8829,-1.947051E-05,13.2435,0,0.8829,-3.491264E-05,13.2435,0
0.8838,2.047761E-05,13.257,0,0.8838,1.275654E-05,13.257,0
0.8847,2.719158E-05,13.2705,0,0.8847,-2.18204E-05,13.2705,0
0.8856,6.076142E-05,13.284,0,0.8856,-5.035477E-05,13.284,0
0.8865,7.754635E-05,13.2975,0,0.8865,-6.713969E-07,13.2975,0
0.8874,-1.376364E-05,13.311,0,0.8874,-1.779202E-05,13.311,0
0.8883,-2.24918E-05,13.3245,0,0.8883,-4.901198E-05,13.3245,0
0.8892,1.745632E-05,13.338,0,0.8892,-4.733349E-05,13.338,0
0.8901,-4.565499E-05,13.3515,0,0.8901,-1.074235E-05,13.3515,0
0.891,-4.162661E-05,13.365,0,0.891,-2.21561E-05,13.365,0
0.8919,3.356985E-06,13.3785,0,0.8919,-2.450599E-05,13.3785,0
0.8928,-2.417029E-05,13.392,0,0.8928,-6.176852E-05,13.392,0
0.8937,-2.987716E-05,13.4055,0,0.8937,-4.061952E-05,13.4055,0
0.8946,6.378271E-06,13.419,0,0.8946,-1.779202E-05,13.419,0
0.8955,-4.36408E-06,13.4325,0,0.8955,-3.994812E-05,13.4325,0
0.8964,-1.678492E-06,13.446,0,0.8964,-4.565499E-05,13.446,0
0.8973,-1.644922E-05,13.4595,0,0.8973,3.189136E-05,13.4595,0
0.8982,-1.007095E-06,13.473,0,0.8982,1.208515E-05,13.473,0
0.8991,-1.577783E-05,13.4865,0,0.8991,-4.867628E-05,13.4865,0
0.9,-4.666209E-05,13.5,0,0.9,3.021286E-06,13.5,0
0.9009,-6.478981E-05,13.5135,0,0.9009,1.678492E-06,13.5135,0
0.9018,-4.46479E-05,13.527,0,0.9018,-4.095522E-05,13.527,0
0.9027,-2.719158E-05,13.5405,0,0.9027,-4.129091E-05,13.5405,0
0.9036,-1.510643E-05,13.554,0,0.9036,7.049668E-06,13.554,0
0.9045,8.728161E-06,13.5675,0,0.9045,-4.43122E-05,13.5675,0
0.9054,6.378271E-06,13.581,0,0.9054,-8.627451E-05,13.581,0
0.9063,3.625543E-05,13.5945,0,0.9063,-7.821774E-05,13.5945,0
0.9072,2.551309E-05,13.608,0,0.9072,1.779202E-05,13.608,0
0.9081,-2.21561E-05,13.6215,0,0.9081,6.411841E-05,13.6215,0
0.909,-1.174945E-05,13.635,0,0.909,2.652018E-05,13.635,0
0.9099,1.242084E-05,13.6485,0,0.9099,-2.786297E-05,13.6485,0
0.9108,-1.477073E-05,13.662,0,0.9108,7.721065E-06,13.662,0
0.9117,-1.275654E-05,13.6755,0,0.9117,-4.36408E-06,13.6755,0
0.9126,5.706874E-06,13.689,0,0.9126,-6.478981E-05,13.689,0
0.9135,-4.36408E-06,13.7025,0,0.9135,-3.726253E-05,13.7025,0
0.9144,6.378271E-06,13.716,0,0.9144,-3.256275E-05,13.716,0
0.9153,1.376364E-05,13.7295,0,0.9153,-8.325322E-05,13.7295,0
0.9162,2.786297E-05,13.743,0,0.9162,-4.733349E-05,13.743,0
0.9171,1.040665E-05,13.7565,0,0.9171,-2.853437E-05,13.7565,0
0.918,2.18204E-05,13.77,0,0.918,-4.901198E-05,13.77,0
0.9189,9.063859E-06,13.7835,0,0.9189,-4.766919E-05,13.7835,0
0.9198,2.047761E-05,13.797,0,0.9198,-2.618448E-05,13.797,0
0.9207,7.049668E-06,13.8105,0,0.9207,1.712062E-05,13.8105,0
0.9216,-5.941863E-05,13.824,0,0.9216,2.517739E-05,13.824,0
0.9225,-5.035477E-05,13.8375,0,0.9225,2.517739E-05,13.8375,0
0.9234,-2.047761E-05,13.851,0,0.9234,6.6804E-05,13.851,0
0.9243,-1.678492E-06,13.8645,0,0.9243,0.0001178302,13.8645,0
0.9252,-1.812772E-05,13.878,0,0.9252,5.236896E-05,13.878,0
0.9261,8.056763E-06,13.8915,0,0.9261,-3.256275E-05,13.8915,0
0.927,7.049668E-06,13.905,0,0.927,-7.385367E-06,13.905,0
0.9279,9.735256E-06,13.9185,0,0.9279,-5.505455E-05,13.9185,0
0.9288,1.712062E-05,13.932,0,0.9288,-0.0001560998,13.932,0
0.9297,-3.356985E-07,13.9455,0,0.9297,-0.000136965,13.9455,0
0.9306,-3.659113E-05,13.959,0,0.9306,-9.030289E-05,13.959,0
0.9315,-3.021286E-05,13.9725,0,0.9315,-4.766919E-05,13.9725,0
0.9324,-1.913481E-05,13.986,0,0.9324,8.82887E-05,13.986,0
0.9333,3.692683E-06,13.9995,0,0.9333,4.162661E-05,13.9995,0
0.9342,-1.376364E-05,14.013,0,0.9342,-4.36408E-06,14.013,0
0.9351,-2.987716E-05,14.0265,0,0.9351,1.040665E-05,14.0265,0
0.936,-1.409934E-05,14.04,0,0.936,-1.745632E-05,14.04,0
0.9369,-7.049668E-06,14.0535,0,0.9369,-3.894102E-05,14.0535,0
0.9378,-7.049668E-06,14.067,0,0.9378,1.510643E-05,14.067,0
0.9387,6.042573E-06,14.0805,0,0.9387,-3.021286E-06,14.0805,0
0.9396001,5.035477E-06,14.094,0,0.9396001,-5.404745E-05,14.094,0
0.9405,-3.356985E-07,14.1075,0,0.9405,2.685588E-06,14.1075,0
0.9414001,-1.107805E-05,14.121,0,0.9414001,-6.378271E-06,14.121,0
0.9423,-3.491264E-05,14.1345,0,0.9423,-3.659113E-05,14.1345,0
0.9432001,-4.263371E-05,14.148,0,0.9432001,-3.121996E-05,14.148,0
0.9441,-5.740444E-05,14.1615,0,0.9441,-3.054856E-05,14.1615,0
0.9450001,-9.063859E-06,14.175,0,0.9450001,-3.323415E-05,14.175,0
0.9459,3.356985E-07,14.1885,0,0.9459,-7.989624E-05,14.1885,0
0.9468,-1.007095E-05,14.202,0,0.9468,-9.298848E-05,14.202,0
0.9477,2.584878E-05,14.2155,0,0.9477,-1.107805E-05,14.2155,0
0.9486,3.021286E-05,14.229,0,0.9486,-1.007095E-05,14.229,0
0.9495,1.007095E-06,14.2425,0,0.9495,-1.745632E-05,14.2425,0
0.9504,8.728161E-06,14.256,0,0.9504,-1.107805E-05,14.256,0
0.9513,1.577783E-05,14.2695,0,0.9513,4.196231E-05,14.2695,0
0.9522,1.477073E-05,14.283,0,0.9522,1.913481E-05,14.283,0
0.9531,3.994812E-05,14.2965,0,0.9531,-4.061952E-05,14.2965,0
0.954,-1.577783E-05,14.31,0,0.954,1.007095E-05,14.31,0
0.9549,-2.316319E-05,14.3235,0,0.9549,5.069047E-05,14.3235,0
0.9558,-2.517739E-05,14.337,0,0.9558,-1.141375E-05,14.337,0
0.9567,-3.121996E-05,14.3505,0,0.9567,-3.524834E-05,14.3505,0
0.9576,-5.203327E-05,14.364,0,0.9576,8.056763E-06,14.364,0
0.9585,-8.392462E-06,14.3775,0,0.9585,3.692683E-06,14.3775,0
0.9594,-6.713969E-06,14.391,0,0.9594,-2.584878E-05,14.391,0
0.9603,-3.927672E-05,14.4045,0,0.9603,-4.028382E-05,14.4045,0
0.9612,-1.040665E-05,14.418,0,0.9612,-2.887007E-05,14.418,0
0.9621,2.383459E-05,14.4315,0,0.9621,-7.385367E-06,14.4315,0
0.963,-5.706874E-06,14.445,0,0.963,-3.524834E-05,14.445,0
0.9639,9.735256E-06,14.4585,0,0.9639,-3.726253E-05,14.4585,0
0.9648,-5.706874E-06,14.472,0,0.9648,3.356985E-06,14.472,0
0.9657,-9.399558E-06,14.4855,0,0.9657,-3.088426E-05,14.4855,0
0.9666,3.323415E-05,14.499,0,0.9666,-6.915389E-05,14.499,0
0.9675,-1.007095E-06,14.5125,0,0.9675,-3.256275E-05,14.5125,0
0.9684,-2.987716E-05,14.526,0,0.9684,-9.063859E-06,14.526,0
0.9693,-4.36408E-05,14.5395,0,0.9693,-3.390555E-05,14.5395,0
0.9702,1.913481E-05,14.553,0,0.9702,-1.174945E-05,14.553,0
0.9711,5.035477E-06,14.5665,0,0.9711,1.510643E-05,14.5665,0
0.972,-1.846342E-05,14.58,0,0.972,5.035477E-06,14.58,0
0.9729,1.409934E-05,14.5935,0,0.9729,7.049668E-06,14.5935,0
0.9738,1.342794E-06,14.607,0,0.9738,-3.591974E-05,14.607,0
0.9747,-2.618448E-05,14.6205,0,0.9747,-8.392462E-06,14.6205,0
0.9756,-1.242084E-05,14.634,0,0.9756,1.611353E-05,14.634,0
0.9765,-2.349889E-06,14.6475,0,0.9765,-1.846342E-05,14.6475,0
0.9774,-1.342794E-05,14.661,0,0.9774,-6.210422E-05,14.661,0
0.9783,-9.735256E-06,14.6745,0,0.9783,-3.356985E-07,14.6745,0
0.9792,-1.141375E-05,14.688,0,0.9792,2.349889E-06,14.688,0
0.9801,0,14.7015,0,0.9801,-7.183947E-05,14.7015,0
0.981,-7.385367E-06,14.715,0,0.981,-1.141375E-05,14.715,0
0.9819,-1.242084E-05,14.7285,0,0.9819,-6.378271E-06,14.7285,0
0.9828,-9.399558E-06,14.742,0,0.9828,-6.311131E-05,14.742,0
0.9837,-4.33051E-05,14.7555,0,0.9837,-4.666209E-05,14.7555,0
0.9846,-3.793393E-05,14.769,0,0.9846,-8.392462E-06,14.769,0
0.9855,-2.517739E-05,14.7825,0,0.9855,-2.383459E-05,14.7825,0
0.9864,-2.786297E-05,14.796,0,0.9864,-2.920577E-05,14.796,0
0.9873,-6.713969E-07,14.8095,0,0.9873,-5.471885E-05,14.8095,0
0.9882,3.021286E-06,14.823,0,0.9882,-3.356985E-05,14.823,0
0.9891,-7.721065E-06,14.8365,0,0.9891,-3.793393E-05,14.8365,0
0.99,-6.378271E-06,14.85,0,0.99,-4.867628E-05,14.85,0
0.9909,-2.21561E-05,14.8635,0,0.9909,-4.263371E-05,14.8635,0
0.9918,-2.786297E-05,14.877,0,0.9918,7.721065E-06,14.877,0
0.9927,-3.356985E-07,14.8905,0,0.9927,5.035477E-06,14.8905,0
0.9936,-1.007095E-06,14.904,0,0.9936,-5.975433E-05,14.904,0
0.9945,2.819867E-05,14.9175,0,0.9945,-1.107805E-05,14.9175,0
0.9954,1.174945E-05,14.931,0,0.9954,-3.021286E-06,14.931,0
0.9963,7.721065E-06,14.9445,0,0.9963,-4.196231E-05,14.9445,0
0.9972,1.443504E-05,14.958,0,0.9972,-6.210422E-05,14.958,0
0.9981,-2.685588E-06,14.9715,0,0.9981,-1.644922E-05,14.9715,0
0.999,-1.107805E-05,14.985,0,0.999,-1.846342E-05,14.985,0
0.9999,1.510643E-05,14.9985,0,0.9999,4.867628E-05,14.9985,0
1.0008,5.706874E-06,15.012,0,1.0008,7.821774E-05,15.012,0
1.0017,1.174945E-05,15.0255,0,1.0017,5.236896E-05,15.0255,0
1.0026,-1.007095E-06,15.039,0,1.0026,2.652018E-05,15.039,0
1.0035,-1.510643E-05,15.0525,0,1.0035,-7.721065E-06,15.0525,0
1.0044,3.356985E-07,15.066,0,1.0044,-3.189136E-05,15.066,0
1.0053,-3.021286E-05,15.0795,0,1.0053,5.706874E-06,15.0795,0
1.0062,-1.678492E-06,15.093,0,1.0062,6.713969E-07,15.093,0
1.0071,-5.706874E-06,15.1065,0,1.0071,-4.53193E-05,15.1065,0
1.008,-2.316319E-05,15.12,0,1.008,-7.049668E-06,15.12,0
1.0089,1.577783E-05,15.1335,0,1.0089,0,15.1335,0
1.0098,2.652018E-05,15.147,0,1.0098,-4.699779E-05,15.147,0
1.0107,0,15.1605,0,1.0107,-4.095522E-05,15.1605,0
1.0116,3.021286E-06,15.174,0,1.0116,-1.007095E-05,15.174,0
1.0125,1.443504E-05,15.1875,0,1.0125,-3.491264E-05,15.1875,0
1.0134,2.383459E-05,15.201,0,1.0134,-4.800488E-05,15.201,0
1.0143,2.081331E-05,15.2145,0,1.0143,-6.378271E-05,15.2145,0
1.0152,-1.174945E-05,15.228,0,1.0152,-5.471885E-05,15.228,0
1.0161,-3.054856E-05,15.2415,0,1.0161,-4.666209E-05,15.2415,0
1.017,-1.947051E-05,15.255,0,1.017,-2.719158E-05,15.255,0
1.0179,8.392462E-06,15.2685,0,1.0179,-3.390555E-05,15.2685,0
1.0188,-1.577783E-05,15.282,0,1.0188,-1.678492E-06,15.282,0
1.0197,-1.577783E-05,15.2955,0,1.0197,7.721065E-06,15.2955,0
1.0206,-3.356985E-06,15.309,0,1.0206,-1.107805E-05,15.309,0
1.0215,-2.349889E-05,15.3225,0,1.0215,6.009003E-05,15.3225,0
1.0224,2.349889E-06,15.336,0,1.0224,5.069047E-05,15.336,0
1.0233,5.035477E-06,15.3495,0,1.0233,6.378271E-06,15.3495,0
1.0242,-3.591974E-05,15.363,0,1.0242,-1.376364E-05,15.363,0
1.0251,-4.229801E-05,15.3765,0,1.0251,7.385367E-06,15.3765,0
1.026,-1.443504E-05,15.39,0,1.026,9.735256E-06,15.39,0
1.0269,-3.457694E-05,15.4035,0,1.0269,-5.270466E-05,15.4035,0
1.0278,-1.678492E-06,15.417,0,1.0278,-9.332418E-05,15.417,0
1.0287,3.390555E-05,15.4305,0,1.0287,-5.136187E-05,15.4305,0
1.0296,-3.491264E-05,15.444,0,1.0296,-2.24918E-05,15.444,0
1.0305,-7.083238E-05,15.4575,0,1.0305,-5.673304E-05,15.4575,0
1.0314,-5.807584E-05,15.471,0,1.0314,-8.358892E-05,15.471,0
1.0323,-5.975433E-05,15.4845,0,1.0323,-5.236896E-05,15.4845,0
1.0332,-7.284657E-05,15.498,0,1.0332,-6.54612E-05,15.498,0
1.0341,-5.706874E-06,15.5115,0,1.0341,-8.82887E-05,15.5115,0
1.035,2.24918E-05,15.525,0,1.035,-5.136187E-05,15.525,0
1.0359,3.323415E-05,15.5385,0,1.0359,-9.735256E-06,15.5385,0
1.0368,5.069047E-05,15.552,0,1.0368,-5.136187E-05,15.552,0
1.0377,6.009003E-05,15.5655,0,1.0377,-5.404745E-05,15.5655,0
1.0386,2.853437E-05,15.579,0,1.0386,2.24918E-05,15.579,0
1.0395,1.980621E-05,15.5925,0,1.0395,3.927672E-05,15.5925,0
1.0404,3.021286E-06,15.606,0,1.0404,1.644922E-05,15.606,0
1.0413,1.040665E-05,15.6195,0,1.0413,-3.625543E-05,15.6195,0
1.0422,-1.644922E-05,15.633,0,1.0422,-3.121996E-05,15.633,0
1.0431,-4.733349E-05,15.6465,0,1.0431,1.174945E-05,15.6465,0
1.044,-2.719158E-05,15.66,0,1.044,0.0001319295,15.66,0
1.0449,-1.846342E-05,15.6735,0,1.0449,8.426032E-05,15.6735,0
1.0458,-2.853437E-05,15.687,0,1.0458,4.39765E-05,15.687,0
1.0467,-2.719158E-05,15.7005,0,1.0467,3.826963E-05,15.7005,0
1.0476,-9.399558E-06,15.714,0,1.0476,-1.980621E-05,15.714,0
1.0485,3.356985E-07,15.7275,0,1.0485,1.779202E-05,15.7275,0
1.0494,4.39765E-05,15.741,0,1.0494,1.007095E-06,15.741,0
1.0503,8.056763E-06,15.7545,0,1.0503,-5.505455E-05,15.7545,0
1.0512,-2.618448E-05,15.768,0,1.0512,-8.090334E-05,15.768,0
1.0521,-2.349889E-05,15.7815,0,1.0521,-4.49836E-05,15.7815,0
1.053,-2.081331E-05,15.795,0,1.053,-4.36408E-05,15.795,0
1.0539,-1.678492E-05,15.8085,0,1.0539,-4.39765E-05,15.8085,0
1.0548,2.349889E-06,15.822,0,1.0548,-5.471885E-05,15.822,0
1.0557,-1.678492E-06,15.8355,0,1.0557,-1.040665E-05,15.8355,0
1.0566,1.443504E-05,15.849,0,1.0566,3.021286E-06,15.849,0
1.0575,5.069047E-05,15.8625,0,1.0575,-1.242084E-05,15.8625,0
1.0584,2.584878E-05,15.876,0,1.0584,-4.632639E-05,15.876,0
1.0593,-1.644922E-05,15.8895,0,1.0593,-1.275654E-05,15.8895,0
1.0602,-1.376364E-05,15.903,0,1.0602,-1.074235E-05,15.903,0
1.0611,2.316319E-05,15.9165,0,1.0611,-6.814679E-05,15.9165,0
1.062,-3.692683E-05,15.93,0,1.062,-5.706874E-06,15.93,0
1.0629,-4.33051E-05,15.9435,0,1.0629,1.980621E-05,15.9435,0
1.0638,-3.692683E-06,15.957,0,1.0638,-4.36408E-05,15.957,0
1.0647,-8.392462E-06,15.9705,0,1.0647,-4.599069E-05,15.9705,0
1.0656,-5.304036E-05,15.984,0,1.0656,-2.920577E-05,15.984,0
1.0665,-1.040665E-05,15.9975,0,1.0665,-3.323415E-05,15.9975,0
1.0674,-3.021286E-06,16.011,0,1.0674,-3.524834E-05,16.011,0
1.0683,-3.692683E-05,16.0245,0,1.0683,-7.049668E-06,16.0245,0
1.0692,-2.316319E-05,16.038,0,1.0692,3.692683E-06,16.038,0
1.0701,-1.309224E-05,16.0515,0,1.0701,-7.385367E-06,16.0515,0
1.071,-4.028382E-06,16.065,0,1.071,-2.517739E-05,16.065,0
1.0719,7.385367E-06,16.0785,0,1.0719,-5.606165E-05,16.0785,0
1.0728,-1.510643E-05,16.092,0,1.0728,-2.24918E-05,16.092,0
1.0737,-3.021286E-06,16.1055,0,1.0737,-4.229801E-05,16.1055,0
1.0746,2.24918E-05,16.119,0,1.0746,-8.023193E-05,16.119,0
1.0755,1.745632E-05,16.1325,0,1.0755,-2.652018E-05,16.1325,0
1.0764,1.409934E-05,16.146,0,1.0764,-1.342794E-05,16.146,0
1.0773,-5.706874E-06,16.1595,0,1.0773,-6.210422E-05,16.1595,0
1.0782,3.054856E-05,16.173,0,1.0782,-5.203327E-05,16.173,0
1.0791,-3.692683E-06,16.1865,0,1.0791,1.007095E-06,16.1865,0
1.08,-2.316319E-05,16.2,0,1.08,1.846342E-05,16.2,0
1.0809,1.242084E-05,16.2135,0,1.0809,7.721065E-06,16.2135,0
1.0818,8.392462E-06,16.227,0,1.0818,3.356985E-06,16.227,0
1.0827,-2.920577E-05,16.2405,0,1.0827,2.21561E-05,16.2405,0
1.0836,-4.867628E-05,16.254,0,1.0836,5.706874E-06,16.254,0
1.0845,-3.994812E-05,16.2675,0,1.0845,-3.860533E-05,16.2675,0
1.0854,-3.659113E-05,16.281,0,1.0854,-5.606165E-05,16.281,0
1.0863,-1.812772E-05,16.2945,0,1.0863,-8.728161E-06,16.2945,0
1.0872,-1.242084E-05,16.308,0,1.0872,-1.074235E-05,16.308,0
1.0881,2.24918E-05,16.3215,0,1.0881,-5.471885E-05,16.3215,0
1.089,-5.706874E-06,16.335,0,1.089,-2.081331E-05,16.335,0
1.0899,2.719158E-05,16.3485,0,1.0899,8.728161E-06,16.3485,0
1.0908,4.33051E-05,16.362,0,1.0908,-1.007095E-05,16.362,0
1.0917,1.712062E-05,16.3755,0,1.0917,3.189136E-05,16.3755,0
1.0926,2.349889E-06,16.389,0,1.0926,2.920577E-05,16.389,0
1.0935,-8.392462E-06,16.4025,0,1.0935,3.356985E-07,16.4025,0
1.0944,1.577783E-05,16.416,0,1.0944,1.275654E-05,16.416,0
1.0953,2.316319E-05,16.4295,0,1.0953,3.021286E-06,16.4295,0
1.0962,7.721065E-06,16.443,0,1.0962,-7.049668E-06,16.443,0
1.0971,-5.539025E-05,16.4565,0,1.0971,-1.980621E-05,16.4565,0
1.098,-5.606165E-05,16.47,0,1.098,-7.049668E-05,16.47,0
1.0989,-9.735256E-06,16.4835,0,1.0989,-9.164568E-05,16.4835,0
1.0998,-3.659113E-05,16.497,0,1.0998,-1.947051E-05,16.497,0
1.1007,-4.061952E-05,16.5105,0,1.1007,1.678492E-06,16.5105,0
1.1016,-2.349889E-06,16.524,0,1.1016,-5.001907E-05,16.524,0
1.1025,-2.28275E-05,16.5375,0,1.1025,1.947051E-05,16.5375,0
1.1034,3.692683E-06,16.551,0,1.1034,6.6804E-05,16.551,0
1.1043,-3.356985E-07,16.5645,0,1.1043,3.692683E-06,16.5645,0
1.1052,3.189136E-05,16.578,0,1.1052,-2.18204E-05,16.578,0
1.1061,3.021286E-06,16.5915,0,1.1061,3.692683E-06,16.5915,0
1.107,1.477073E-05,16.605,0,1.107,-1.107805E-05,16.605,0
1.1079,-4.36408E-06,16.6185,0,1.1079,-1.745632E-05,16.6185,0
1.1088,5.035477E-06,16.632,0,1.1088,-6.71397E-05,16.632,0
1.1097,1.846342E-05,16.6455,0,1.1097,-3.759823E-05,16.6455,0
1.1106,6.713969E-06,16.659,0,1.1106,-1.040665E-05,16.659,0
1.1115,-2.853437E-05,16.6725,0,1.1115,-6.814679E-05,16.6725,0
1.1124,-4.632639E-05,16.686,0,1.1124,-7.888914E-05,16.686,0
1.1133,-3.524834E-05,16.6995,0,1.1133,-1.913481E-05,16.6995,0
1.1142,-6.143282E-05,16.713,0,1.1142,-4.49836E-05,16.713,0
1.1151,-3.894102E-05,16.7265,0,1.1151,-7.217517E-05,16.7265,0
1.116,0,16.74,0,1.116,-1.174945E-05,16.74,0
1.1169,-1.846342E-05,16.7535,0,1.1169,2.1149E-05,16.7535,0
1.1178,-2.047761E-05,16.767,0,1.1178,-7.721065E-06,16.767,0
1.1187,2.719158E-05,16.7805,0,1.1187,4.800488E-05,16.7805,0
1.1196,1.913481E-05,16.794,0,1.1196,0.0001080949,16.794,0
1.1205,1.007095E-06,16.8075,0,1.1205,4.934768E-05,16.8075,0
1.1214,3.021286E-06,16.821,0,1.1214,2.719158E-05,16.821,0
1.1223,2.652018E-05,16.8345,0,1.1223,2.1149E-05,16.8345,0
1.1232,1.913481E-05,16.848,0,1.1232,4.028382E-05,16.848,0
1.1241,-4.766919E-05,16.8615,0,1.1241,1.376364E-05,16.8615,0
1.125,-1.913481E-05,16.875,0,1.125,-2.786297E-05,16.875,0
1.1259,-5.706874E-06,16.8885,0,1.1259,-6.009003E-05,16.8885,0
1.1268,-4.599069E-05,16.902,0,1.1268,-5.706874E-05,16.902,0
1.1277,-3.356985E-05,16.9155,0,1.1277,-4.934768E-05,16.9155,0
1.1286,-1.678492E-05,16.929,0,1.1286,-8.89601E-05,16.929,0
1.1295,-2.954147E-05,16.9425,0,1.1295,1.980621E-05,16.9425,0
1.1304,4.800488E-05,16.956,0,1.1304,1.577783E-05,16.956,0
1.1313,2.652018E-05,16.9695,0,1.1313,-5.673304E-05,16.9695,0
1.1322,-1.678492E-05,16.983,0,1.1322,-9.970245E-05,16.983,0
1.1331,-1.644922E-05,16.9965,0,1.1331,-7.989624E-05,16.9965,0
1.134,1.107805E-05,17.01,0,1.134,-8.92958E-05,17.01,0
1.1349,8.392462E-06,17.0235,0,1.1349,-8.627451E-05,17.0235,0
1.1358,9.063859E-06,17.037,0,1.1358,-9.466698E-05,17.037,0
1.1367,2.24918E-05,17.0505,0,1.1367,-4.229801E-05,17.0505,0
1.1376,-3.424125E-05,17.064,0,1.1376,3.021286E-06,17.064,0
1.1385,-2.853437E-05,17.0775,0,1.1385,-1.275654E-05,17.0775,0
1.1394,-3.692683E-06,17.091,0,1.1394,-3.121996E-05,17.091,0
1.1403,-4.39765E-05,17.1045,0,1.1403,6.713969E-07,17.1045,0
1.1412,-6.042573E-05,17.118,0,1.1412,-1.644922E-05,17.118,0
1.1421,-3.256275E-05,17.1315,0,1.1421,-8.123904E-05,17.1315,0
1.143,-2.517739E-05,17.145,0,1.143,-1.208515E-05,17.145,0
1.1439,-3.356985E-07,17.1585,0,1.1439,-6.042573E-06,17.1585,0
1.1448,4.53193E-05,17.172,0,1.1448,-3.994812E-05,17.172,0
1.1457,-3.021286E-06,17.1855,0,1.1457,2.24918E-05,17.1855,0
1.1466,-9.399558E-06,17.199,0,1.1466,0.0001097734,17.199,0
1.1475,1.007095E-06,17.2125,0,1.1475,7.351797E-05,17.2125,0
1.1484,3.121996E-05,17.226,0,1.1484,2.853437E-05,17.226,0
1.1493,4.129091E-05,17.2395,0,1.1493,-1.443504E-05,17.2395,0
1.1502,2.517739E-05,17.253,0,1.1502,-3.088426E-05,17.253,0
1.1511,2.24918E-05,17.2665,0,1.1511,-5.841154E-05,17.2665,0
1.152,1.577783E-05,17.28,0,1.152,-4.599069E-05,17.28,0
1.1529,8.392462E-06,17.2935,0,1.1529,-4.33051E-05,17.2935,0
1.1538,7.385367E-06,17.307,0,1.1538,4.699779E-06,17.307,0
1.1547,6.378271E-06,17.3205,0,1.1547,-1.712062E-05,17.3205,0
1.1556,1.913481E-05,17.334,0,1.1556,-6.378271E-05,17.334,0
1.1565,3.054856E-05,17.3475,0,1.1565,2.1149E-05,17.3475,0
1.1574,5.035477E-06,17.361,0,1.1574,4.39765E-05,17.361,0
1.1583,-3.289845E-05,17.3745,0,1.1583,-2.618448E-05,17.3745,0
1.1592,-5.304036E-05,17.388,0,1.1592,-1.309224E-05,17.388,0
1.1601,-6.915389E-05,17.4015,0,1.1601,-1.577783E-05,17.4015,0
1.161,-3.491264E-05,17.415,0,1.161,-6.143282E-05,17.415,0
1.1619,-3.524834E-05,17.4285,0,1.1619,-8.526741E-05,17.4285,0
1.1628,-1.510643E-05,17.442,0,1.1628,-0.0001376364,17.442,0
1.1637,-2.719158E-05,17.4555,0,1.1637,-0.0001218585,17.4555,0
1.1646,-3.356985E-07,17.469,0,1.1646,-0.0001047379,17.469,0
1.1655,2.081331E-05,17.4825,0,1.1655,-9.298848E-05,17.4825,0
1.1664,6.378271E-06,17.496,0,1.1664,-6.881819E-05,17.496,0
1.1673,-2.719158E-05,17.5095,0,1.1673,5.035477E-06,17.5095,0
1.1682,1.577783E-05,17.523,0,1.1682,6.915389E-05,17.523,0
1.1691,4.599069E-05,17.5365,0,1.1691,7.486076E-05,17.5365,0
1.17,-5.706874E-06,17.55,0,1.17,0.0001174945,17.55,0
1.1709,1.007095E-06,17.5635,0,1.1709,9.600977E-05,17.5635,0
1.1718,-1.141375E-05,17.577,0,1.1718,3.121996E-05,17.577,0
1.1727,-3.591974E-05,17.5905,0,1.1727,2.551309E-05,17.5905,0
1.1736,-1.678492E-05,17.604,0,1.1736,4.53193E-05,17.604,0
1.1745,-3.021286E-06,17.6175,0,1.1745,4.699779E-06,17.6175,0
1.1754,-1.913481E-05,17.631,0,1.1754,4.028382E-06,17.631,0
1.1763,-1.779202E-05,17.6445,0,1.1763,-1.644922E-05,17.6445,0
1.1772,-1.242084E-05,17.658,0,1.1772,-1.477073E-05,17.658,0
1.1781,-4.129091E-05,17.6715,0,1.1781,-1.007095E-05,17.6715,0
1.179,-3.256275E-05,17.685,0,1.179,-4.766919E-05,17.685,0
1.1799,-1.242084E-05,17.6985,0,1.1799,-4.229801E-05,17.6985,0
1.1808,-1.409934E-05,17.712,0,1.1808,3.054856E-05,17.712,0
1.1817,-3.659113E-05,17.7255,0,1.1817,-1.779202E-05,17.7255,0
1.1826,-1.007095E-05,17.739,0,1.1826,-7.586786E-05,17.739,0
1.1835,4.800488E-05,17.7525,0,1.1835,-1.544213E-05,17.7525,0
1.1844,2.887007E-05,17.766,0,1.1844,-3.088426E-05,17.766,0
1.1853,-6.378271E-06,17.7795,0,1.1853,-8.392462E-05,17.7795,0
1.1862,2.349889E-06,17.793,0,1.1862,-7.553216E-05,17.793,0
1.1871,3.356985E-07,17.8065,0,1.1871,-7.016098E-05,17.8065,0
1.188,-3.021286E-05,17.82,0,1.188,-8.627451E-05,17.82,0
1.1889,-6.814679E-05,17.8335,0,1.1889,-0.0001037308,17.8335,0
1.1898,-6.210422E-05,17.847,0,1.1898,-0.0001168231,17.847,0
1.1907,-4.49836E-05,17.8605,0,1.1907,-6.71397E-05,17.8605,0
1.1916,-2.987716E-05,17.874,0,1.1916,3.021286E-06,17.874,0
1.1925,-8.728161E-06,17.8875,0,1.1925,-2.853437E-05,17.8875,0
1.1934,3.457694E-05,17.901,0,1.1934,-1.309224E-05,17.901,0
1.1943,6.61326E-05,17.9145,0,1.1943,0.0001067521,17.9145,0
1.1952,1.577783E-05,17.928,0,1.1952,0.0001151446,17.928,0
1.1961,-1.242084E-05,17.9415,0,1.1961,2.316319E-05,17.9415,0
1.197,-4.095522E-05,17.955,0,1.197,4.263371E-05,17.955,0
1.1979,-1.779202E-05,17.9685,0,1.1979,2.920577E-05,17.9685,0
1.1988,-4.699779E-06,17.982,0,1.1988,-3.088426E-05,17.982,0
1.1997,-1.846342E-05,17.9955,0,1.1997,1.174945E-05,17.9955,0
1.2006,-3.356985E-06,18.009,0,1.2006,2.1149E-05,18.009,0
1.2015,-8.392462E-06,18.0225,0,1.2015,3.356985E-07,18.0225,0
1.2024,-6.713969E-07,18.036,0,1.2024,-9.063859E-06,18.036,0
1.2033,3.860533E-05,18.0495,0,1.2033,-3.121996E-05,18.0495,0
1.2042,4.632639E-05,18.063,0,1.2042,-1.376364E-05,18.063,0
1.2051,-4.061952E-05,18.0765,0,1.2051,9.063859E-06,18.0765,0
1.206,9.063859E-06,18.09,0,1.206,-4.46479E-05,18.09,0
1.2069,3.323415E-05,18.1035,0,1.2069,-9.600977E-05,18.1035,0
1.2078,-3.356985E-05,18.117,0,1.2078,-8.291753E-05,18.117,0
1.2087,-3.356985E-06,18.1305,0,1.2087,-6.311131E-05,18.1305,0
1.2096,3.994812E-05,18.144,0,1.2096,-8.358892E-05,18.144,0
1.2105,-8.392462E-06,18.1575,0,1.2105,-2.752728E-05,18.1575,0
1.2114,1.812772E-05,18.171,0,1.2114,5.035477E-06,18.171,0
1.2123,2.349889E-06,18.1845,0,1.2123,-5.639734E-05,18.1845,0
1.2132,-3.894102E-05,18.198,0,1.2132,-3.524834E-05,18.198,0
1.2141,-3.558404E-05,18.2115,0,1.2141,3.021286E-05,18.2115,0
1.215,2.014191E-06,18.225,0,1.215,1.242084E-05,18.225,0
1.2159,-9.735256E-06,18.2385,0,1.2159,-1.779202E-05,18.2385,0
1.2168,-1.779202E-05,18.252,0,1.2168,-6.076142E-05,18.252,0
1.2177,-1.913481E-05,18.2655,0,1.2177,-1.107805E-05,18.2655,0
1.2186,-4.699779E-06,18.279,0,1.2186,1.846342E-05,18.279,0
1.2195,-2.047761E-05,18.2925,0,1.2195,-2.584878E-05,18.2925,0
1.2204,-2.450599E-05,18.306,0,1.2204,-1.544213E-05,18.306,0
1.2213,-8.392462E-06,18.3195,0,1.2213,6.54612E-05,18.3195,0
1.2222,-2.652018E-05,18.333,0,1.2222,2.719158E-05,18.333,0
1.2231,-1.779202E-05,18.3465,0,1.2231,-3.390555E-05,18.3465,0
1.224,-1.040665E-05,18.36,0,1.224,2.1149E-05,18.36,0
1.2249,6.713969E-06,18.3735,0,1.2249,1.510643E-05,18.3735,0
1.2258,-5.035477E-06,18.387,0,1.2258,-4.800488E-05,18.387,0
1.2267,1.242084E-05,18.4005,0,1.2267,-5.136187E-05,18.4005,0
1.2276,-1.342794E-06,18.414,0,1.2276,-8.728161E-06,18.414,0
1.2285,-1.678492E-06,18.4275,0,1.2285,-8.392462E-06,18.4275,0
1.2294,-4.699779E-06,18.441,0,1.2294,-2.349889E-05,18.441,0
1.2303,-4.36408E-06,18.4545,0,1.2303,-6.378271E-05,18.4545,0
1.2312,-2.719158E-05,18.468,0,1.2312,-3.759823E-05,18.468,0
1.2321,4.36408E-06,18.4815,0,1.2321,-5.505455E-05,18.4815,0
1.233,3.356985E-07,18.495,0,1.233,-8.92958E-05,18.495,0
1.2339,-8.392462E-05,18.5085,0,1.2339,-0.0001054093,18.5085,0
1.2348,-9.567407E-05,18.522,0,1.2348,-3.323415E-05,18.522,0
1.2357,-3.457694E-05,18.5355,0,1.2357,2.383459E-05,18.5355,0
1.2366,5.035477E-06,18.549,0,1.2366,-7.049668E-06,18.549,0
1.2375,4.53193E-05,18.5625,0,1.2375,6.009003E-05,18.5625,0
1.2384,3.054856E-05,18.576,0,1.2384,2.987716E-05,18.576,0
1.2393,-1.812772E-05,18.5895,0,1.2393,-6.143282E-05,18.5895,0
1.2402,5.673304E-05,18.603,0,1.2402,-6.6804E-05,18.603,0
1.2411,2.21561E-05,18.6165,0,1.2411,-3.726253E-05,18.6165,0
1.242,1.007095E-06,18.63,0,1.242,-2.450599E-05,18.63,0
1.2429,1.980621E-05,18.6435,0,1.2429,-1.678492E-06,18.6435,0
1.2438,5.136187E-05,18.657,0,1.2438,6.378271E-06,18.657,0
1.2447,5.841154E-05,18.6705,0,1.2447,5.975433E-05,18.6705,0
1.2456,-2.987716E-05,18.684,0,1.2456,3.591974E-05,18.684,0
1.2465,-6.478981E-05,18.6975,0,1.2465,-2.517739E-05,18.6975,0
1.2474,-3.793393E-05,18.711,0,1.2474,-4.599069E-05,18.711,0
1.2483,-2.450599E-05,18.7245,0,1.2483,1.846342E-05,18.7245,0
1.2492,2.954147E-05,18.738,0,1.2492,5.035477E-06,18.738,0
1.2501,8.191043E-05,18.7515,0,1.2501,-5.908293E-05,18.7515,0
1.251,5.606165E-05,18.765,0,1.251,-1.309224E-05,18.765,0
1.2519,2.1149E-05,18.7785,0,1.2519,-1.174945E-05,18.7785,0
1.2528,-3.692683E-06,18.792,0,1.2528,-4.061952E-05,18.792,0
1.2537,-3.692683E-06,18.8055,0,1.2537,-1.443504E-05,18.8055,0
1.2546,-6.478981E-05,18.819,0,1.2546,2.584878E-05,18.819,0
1.2555,-5.740444E-05,18.8325,0,1.2555,6.713969E-07,18.8325,0
1.2564,-6.378271E-06,18.846,0,1.2564,-4.29694E-05,18.846,0
1.2573,7.217517E-05,18.8595,0,1.2573,-8.82887E-05,18.8595,0
1.2582,0.0001359579,18.873,0,1.2582,-4.699779E-05,18.873,0
1.2591,0.0001433432,18.8865,0,1.2591,4.36408E-06,18.8865,0
1.26,4.263371E-05,18.9,0,1.26,-7.217517E-05,18.9,0
1.2609,-1.678492E-06,18.9135,0,1.2609,-8.426032E-05,18.9135,0
1.2618,-2.1149E-05,18.927,0,1.2618,1.040665E-05,18.927,0
1.2627,-0.0001151446,18.9405,0,1.2627,3.692683E-06,18.9405,0
1.2636,-0.000172549,18.954,0,1.2636,-2.450599E-05,18.954,0
1.2645,-0.0001433432,18.9675,0,1.2645,4.39765E-05,18.9675,0
1.2654,-0.0001487144,18.981,0,1.2654,5.874724E-05,18.981,0
1.2663,-0.0001503929,18.9945,0,1.2663,-3.323415E-05,18.9945,0
1.2672,-5.639734E-05,19.008,0,1.2672,-5.673304E-05,19.008,0
1.2681,-8.392462E-06,19.0215,0,1.2681,-8.392462E-06,19.0215,0
1.269,4.028382E-06,19.035,0,1.269,2.618448E-05,19.035,0
1.2699,-4.733349E-05,19.0485,0,1.2699,-3.021286E-05,19.0485,0
1.2708,-4.33051E-05,19.062,0,1.2708,-8.090334E-05,19.062,0
1.2717,-1.409934E-05,19.0755,0,1.2717,-6.378271E-06,19.0755,0
1.2726,-1.980621E-05,19.089,0,1.2726,-3.860533E-05,19.089,0
1.2735,-2.786297E-05,19.1025,0,1.2735,-9.298848E-05,19.1025,0
1.2744,-4.33051E-05,19.116,0,1.2744,-0.0001181659,19.116,0
1.2753,-2.21561E-05,19.1295,0,1.2753,-3.826963E-05,19.1295,0
1.2762,4.49836E-05,19.143,0,1.2762,-2.584878E-05,19.143,0
1.2771,6.61326E-05,19.1565,0,1.2771,-6.915389E-05,19.1565,0
1.278,5.606165E-05,19.17,0,1.278,4.800488E-05,19.17,0
1.2789,3.692683E-05,19.1835,0,1.2789,6.6804E-05,19.1835,0
1.2798,2.24918E-05,19.197,0,1.2798,-1.107805E-05,19.197,0
1.2807,-1.007095E-06,19.2105,0,1.2807,3.021286E-06,19.2105,0
1.2816,1.510643E-05,19.224,0,1.2816,2.853437E-05,19.224,0
1.2825,-3.524834E-05,19.2375,0,1.2825,-2.719158E-05,19.2375,0
1.2834,-0.0001044022,19.251,0,1.2834,-4.49836E-05,19.251,0
1.2843,-5.035477E-06,19.2645,0,1.2843,-7.016098E-05,19.2645,0
1.2852,0.0001138018,19.278,0,1.2852,-3.793393E-05,19.278,0
1.2861,4.36408E-05,19.2915,0,1.2861,-4.733349E-05,19.2915,0
1.287,1.980621E-05,19.305,0,1.287,-6.344701E-05,19.305,0
1.2879,8.996719E-05,19.3185,0,1.2879,-1.376364E-05,19.3185,0
1.2888,-3.323415E-05,19.332,0,1.2888,7.418937E-05,19.332,0
1.2897,-5.673304E-05,19.3455,0,1.2897,6.042573E-05,19.3455,0
1.2906,-1.409934E-05,19.359,0,1.2906,-2.349889E-06,19.359,0
1.2915,-4.028382E-06,19.3725,0,1.2915,2.450599E-05,19.3725,0
1.2924,-1.107805E-05,19.386,0,1.2924,3.189136E-05,19.386,0
1.2933,-2.853437E-05,19.3995,0,1.2933,-3.289845E-05,19.3995,0
1.2942,9.735256E-06,19.413,0,1.2942,-1.678492E-06,19.413,0
1.2951,3.323415E-05,19.4265,0,1.2951,3.054856E-05,19.4265,0
1.296,3.054856E-05,19.44,0,1.296,-4.49836E-05,19.44,0
1.2969,1.577783E-05,19.4535,0,1.2969,-0.0001017166,19.4535,0
1.2978,-4.599069E-05,19.467,0,1.2978,-0.0001272297,19.467,0
1.2987,-7.183947E-05,19.4805,0,1.2987,-0.0001131304,19.4805,0
1.2996,-5.941863E-05,19.494,0,1.2996,-0.0001060807,19.494,0
1.3005,-3.121996E-05,19.5075,0,1.3005,-0.0001735561,19.5075,0
1.3014,2.450599E-05,19.521,0,1.3014,-0.0001836271,19.521,0
1.3023,7.486076E-05,19.5345,0,1.3023,-3.961242E-05,19.5345,0
1.3032,0.0001265583,19.548,0,1.3032,3.994812E-05,19.548,0
1.3041,0.0001138018,19.5615,0,1.3041,-2.014191E-06,19.5615,0
1.305,-6.378271E-06,19.575,0,1.305,1.611353E-05,19.575,0
1.3059,4.666209E-05,19.5885,0,1.3059,0.000119173,19.5885,0
1.3068,8.69459E-05,19.602,0,1.3068,0.0001299153,19.602,0
1.3077,1.141375E-05,19.6155,0,1.3077,0.0001628138,19.6155,0
1.3086,-0.000164828,19.629,0,1.3086,0.0001309224,19.629,0
1.3095,-0.0001396506,19.6425,0,1.3095,5.774014E-05,19.6425,0
1.3104,-5.236896E-05,19.656,0,1.3104,3.356985E-07,19.656,0
1.3113,-7.385367E-05,19.6695,0,1.3113,-6.61326E-05,19.6695,0
1.3122,-6.814679E-05,19.683,0,1.3122,-3.021286E-05,19.683,0
1.3131,-0.0001131304,19.6965,0,1.3131,-1.678492E-06,19.6965,0
1.314,-5.270466E-05,19.71,0,1.314,1.812772E-05,19.71,0
1.3149,-3.222705E-05,19.7235,0,1.3149,1.644922E-05,19.7235,0
1.3158,-3.927672E-05,19.737,0,1.3158,0.0001080949,19.737,0
1.3167,-1.980621E-05,19.7505,0,1.3167,7.754635E-05,19.7505,0
1.3176,6.378271E-06,19.764,0,1.3176,-4.061952E-05,19.764,0
1.3185,-1.644922E-05,19.7775,0,1.3185,-3.524834E-05,19.7775,0
1.3194,-5.035477E-06,19.791,0,1.3194,-2.047761E-05,19.791,0
1.3203,-2.014191E-06,19.8045,0,1.3203,-8.795301E-05,19.8045,0
1.3212,6.713969E-07,19.818,0,1.3212,-5.471885E-05,19.818,0
1.3221,2.383459E-05,19.8315,0,1.3221,6.378271E-06,19.8315,0
1.323,1.947051E-05,19.845,0,1.323,-3.021286E-05,19.845,0
1.3239,-3.356985E-07,19.8585,0,1.3239,-8.560311E-05,19.8585,0
1.3248,5.337606E-05,19.872,0,1.3248,-0.0001054093,19.872,0
1.3257,7.754635E-05,19.8855,0,1.3257,-7.116808E-05,19.8855,0
1.3266,3.424125E-05,19.899,0,1.3266,-4.229801E-05,19.899,0
1.3275,-6.6804E-05,19.9125,0,1.3275,-7.586786E-05,19.9125,0
1.3284,-2.584878E-05,19.926,0,1.3284,-9.164568E-05,19.926,0
1.3293,1.745632E-05,19.9395,0,1.3293,2.21561E-05,19.9395,0
1.3302,-1.644922E-05,19.953,0,1.3302,5.471885E-05,19.953,0
1.3311,-1.007095E-06,19.9665,0,1.3311,-7.049668E-06,19.9665,0
1.332,3.860533E-05,19.98,0,1.332,-7.049668E-06,19.98,0
1.3329,4.934768E-05,19.9935,0,1.3329,-2.719158E-05,19.9935,0
1.3338,4.800488E-05,20.007,0,1.3338,-5.639734E-05,20.007,0
1.3347,1.309224E-05,20.0205,0,1.3347,-2.24918E-05,20.0205,0
1.3356,-2.517739E-05,20.034,0,1.3356,0.0001067521,20.034,0
1.3365,3.692683E-05,20.0475,0,1.3365,8.627451E-05,20.0475,0
1.3374,0.0001393149,20.061,0,1.3374,-7.049668E-06,20.061,0
1.3383,0.0001527428,20.0745,0,1.3383,-6.74754E-05,20.0745,0
1.3392,6.411841E-05,20.088,0,1.3392,-4.095522E-05,20.088,0
1.3401,4.129091E-05,20.1015,0,1.3401,6.042573E-06,20.1015,0
1.341,3.256275E-05,20.115,0,1.341,-2.920577E-05,20.115,0
1.3419,-3.121996E-05,20.1285,0,1.3419,-5.673304E-05,20.1285,0
1.3428,-0.0001560998,20.142,0,1.3428,3.121996E-05,20.142,0
1.3437,-0.0001990692,20.1555,0,1.3437,3.826963E-05,20.1555,0
1.3446,-0.0001292439,20.169,0,1.3446,-7.150377E-05,20.169,0
1.3455,-5.404745E-05,20.1825,0,1.3455,-6.076142E-05,20.1825,0
1.3464,-2.24918E-05,20.196,0,1.3464,-6.54612E-05,20.196,0
1.3473,-7.251087E-05,20.2095,0,1.3473,-0.0001154803,20.2095,0
1.3482,-2.786297E-05,20.223,0,1.3482,-7.888914E-05,20.223,0
1.3491,3.054856E-05,20.2365,0,1.3491,-7.888914E-05,20.2365,0
1.35,-1.544213E-05,20.25,0,1.35,-7.989624E-05,20.25,0
1.3509,-4.666209E-05,20.2635,0,1.3509,-7.788205E-05,20.2635,0
1.3518,1.678492E-06,20.277,0,1.3518,-7.318227E-05,20.277,0
1.3527,3.591974E-05,20.2905,0,1.3527,2.517739E-05,20.2905,0
1.3536,-1.510643E-05,20.304,0,1.3536,7.855344E-05,20.304,0
1.3545,1.007095E-05,20.3175,0,1.3545,1.510643E-05,20.3175,0
1.3554,2.450599E-05,20.331,0,1.3554,3.021286E-06,20.331,0
1.3563,-1.376364E-05,20.3445,0,1.3563,-2.551309E-05,20.3445,0
1.3572,-5.304036E-05,20.358,0,1.3572,-1.913481E-05,20.358,0
1.3581,-8.89601E-05,20.3715,0,1.3581,-8.023193E-05,20.3715,0
1.359,-2.752728E-05,20.385,0,1.359,-4.666209E-05,20.385,0
1.3599,0.0001094377,20.3985,0,1.3599,-4.33051E-05,20.3985,0
1.3608,0.0001138018,20.412,0,1.3608,-0.0001017166,20.412,0
1.3617,4.196231E-05,20.4255,0,1.3617,-7.217517E-05,20.4255,0
1.3626,-2.047761E-05,20.439,0,1.3626,-3.927672E-05,20.439,0
1.3635,6.378271E-05,20.4525,0,1.3635,-4.699779E-06,20.4525,0
1.3644,8.761731E-05,20.466,0,1.3644,4.632639E-05,20.466,0
1.3653,4.263371E-05,20.4795,0,1.3653,3.189136E-05,20.4795,0
1.3662,6.848249E-05,20.493,0,1.3662,1.342794E-05,20.493,0
1.3671,-3.256275E-05,20.5065,0,1.3671,-8.728161E-06,20.5065,0
1.368,-0.0001326009,20.52,0,1.368,-3.961242E-05,20.52,0
1.3689,-0.0001373007,20.5335,0,1.3689,-2.450599E-05,20.5335,0
1.3698,-0.0001957122,20.547,0,1.3698,7.083238E-05,20.547,0
1.3707,-0.0001722133,20.5605,0,1.3707,6.54612E-05,20.5605,0
1.3716,-8.023193E-05,20.574,0,1.3716,3.558404E-05,20.574,0
1.3725,2.484169E-05,20.5875,0,1.3725,5.874724E-05,20.5875,0
1.3734,0.0001631495,20.601,0,1.3734,2.853437E-05,20.601,0
1.3743,0.0001822843,20.6145,0,1.3743,-3.021286E-05,20.6145,0
1.3752,0.0001171588,20.628,0,1.3752,-4.33051E-05,20.628,0
1.3761,9.768826E-05,20.6415,0,1.3761,-5.169757E-05,20.6415,0
1.377,0.0001846342,20.655,0,1.377,-7.989624E-05,20.655,0
1.3779,3.726253E-05,20.6685,0,1.3779,-8.426032E-05,20.6685,0
1.3788,-0.0001399863,20.682,0,1.3788,-9.970245E-05,20.682,0
1.3797,-0.0001849699,20.6955,0,1.3797,-5.404745E-05,20.6955,0
1.3806,-0.0001080949,20.709,0,1.3806,-1.376364E-05,20.709,0
1.3815,-8.157473E-05,20.7225,0,1.3815,-1.678492E-06,20.7225,0
1.3824,-0.0001463645,20.736,0,1.3824,1.242084E-05,20.736,0
1.3833,-0.0001567712,20.7495,0,1.3833,8.89601E-05,20.7495,0
1.3842,-8.82887E-05,20.763,0,1.3842,6.814679E-05,20.763,0
1.3851,-5.706874E-05,20.7765,0,1.3851,0,20.7765,0
1.386,-6.210422E-05,20.79,0,1.386,5.471885E-05,20.79,0
1.3869,-7.586786E-05,20.8035,0,1.3869,1.947051E-05,20.8035,0
1.3878,-4.46479E-05,20.817,0,1.3878,-5.841154E-05,20.817,0
1.3887,8.761731E-05,20.8305,0,1.3887,-3.558404E-05,20.8305,0
1.3896,0.000203769,20.844,0,1.3896,-3.289845E-05,20.844,0
1.3905,0.0002265965,20.8575,0,1.3905,-2.383459E-05,20.8575,0
1.3914,0.000144686,20.871,0,1.3914,-4.196231E-05,20.871,0
1.3923,6.881819E-05,20.8845,0,1.3923,-9.500267E-05,20.8845,0
1.3932,4.599069E-05,20.898,0,1.3932,-9.030289E-05,20.898,0
1.3941,-0.0001198444,20.9115,0,1.3941,-7.318227E-05,20.9115,0
1.395,-0.0001688563,20.925,0,1.395,-2.349889E-05,20.925,0
1.3959,-0.0001735561,20.9385,0,1.3959,-0.000112459,20.9385,0
1.3968,-0.0001604639,20.952,0,1.3968,-7.888914E-05,20.952,0
1.3977,-2.987716E-05,20.9655,0,1.3977,1.913481E-05,20.9655,0
1.3986,-2.853437E-05,20.979,0,1.3986,3.659113E-05,20.979,0
1.3995,-9.231708E-05,20.9925,0,1.3995,0.0001242084,20.9925,0
1.4004,-6.478981E-05,21.006,0,1.4004,7.385367E-05,21.006,0
1.4013,1.712062E-05,21.0195,0,1.4013,-7.721065E-06,21.0195,0
1.4022,1.611353E-05,21.033,0,1.4022,1.477073E-05,21.033,0
1.4031,4.196231E-05,21.0465,0,1.4031,1.376364E-05,21.0465,0
1.404,6.143282E-05,21.06,0,1.404,-6.54612E-05,21.06,0
1.4049,1.040665E-05,21.0735,0,1.4049,-7.754635E-05,21.0735,0
1.4058,-8.392462E-06,21.087,0,1.4058,-8.426032E-05,21.087,0
1.4067,3.289845E-05,21.1005,0,1.4067,-2.18204E-05,21.1005,0
1.4076,3.793393E-05,21.114,0,1.4076,-6.478981E-05,21.114,0
1.4085,-7.721065E-06,21.1275,0,1.4085,-0.0002091402,21.1275,0
1.4094,-3.457694E-05,21.141,0,1.4094,-0.0001947051,21.141,0
1.4103,-2.349889E-06,21.1545,0,1.4103,-7.653925E-05,21.1545,0
1.4112,4.766919E-05,21.168,0,1.4112,-7.956054E-05,21.168,0
1.4121,6.277562E-05,21.1815,0,1.4121,-9.365987E-05,21.1815,0
1.413,2.18204E-05,21.195,0,1.413,5.740444E-05,21.195,0
1.4139,-3.524834E-05,21.2085,0,1.4139,0.0002171969,21.2085,0
1.4148,6.378271E-06,21.222,0,1.4148,0.0002323034,21.222,0
1.4157,5.270466E-05,21.2355,0,1.4157,0.0001319295,21.2355,0
1.4166,1.577783E-05,21.249,0,1.4166,4.129091E-05,21.249,0
1.4175,1.342794E-05,21.2625,0,1.4175,3.189136E-05,21.2625,0
1.4184,2.652018E-05,21.276,0,1.4184,1.040665E-05,21.276,0
1.4193,-3.054856E-05,21.2895,0,1.4193,1.644922E-05,21.2895,0
1.4202,-4.666209E-05,21.303,0,1.4202,3.424125E-05,21.303,0
1.4211,-1.443504E-05,21.3165,0,1.4211,-4.49836E-05,21.3165,0
1.422,9.063859E-06,21.33,0,1.422,-0.0001111162,21.33,0
1.4229,-3.759823E-05,21.3435,0,1.4229,-0.0001426719,21.3435,0
1.4238,-8.426032E-05,21.357,0,1.4238,-0.000112459,21.357,0
1.4247,-2.24918E-05,21.3705,0,1.4247,-7.721065E-05,21.3705,0
1.4256,7.284657E-05,21.384,0,1.4256,-2.584878E-05,21.384,0
1.4265,5.001907E-05,21.3975,0,1.4265,9.097429E-05,21.3975,0
1.4274,8.72816E-05,21.411,0,1.4274,0.0001708705,21.411,0
1.4283,0.0001470359,21.4245,0,1.4283,8.291753E-05,21.4245,0
1.4292,0.0002353246,21.438,0,1.4292,1.846342E-05,21.438,0
1.4301,8.526741E-05,21.4515,0,1.4301,5.404745E-05,21.4515,0
1.431,-8.661021E-05,21.465,0,1.431,1.947051E-05,21.465,0
1.4319,1.208515E-05,21.4785,0,1.4319,-4.129091E-05,21.4785,0
1.4328,7.284657E-05,21.492,0,1.4328,-8.426032E-05,21.492,0
1.4337,-2.28275E-05,21.5055,0,1.4337,-7.284657E-05,21.5055,0
1.4346,-0.000158114,21.519,0,1.4346,-5.774014E-05,21.519,0
1.4355,-7.318227E-05,21.5325,0,1.4355,-0.0001007095,21.5325,0
1.4364,-0.0001621424,21.546,0,1.4364,-0.0001141375,21.546,0
1.4373,-0.0001507286,21.5595,0,1.4373,-1.510643E-05,21.5595,0
1.4382,2.517739E-05,21.573,0,1.4382,-2.1149E-05,21.573,0
1.4391,3.021286E-06,21.5865,0,1.4391,-5.539025E-05,21.5865,0
1.44,9.735256E-06,21.6,0,1.44,-5.371176E-06,21.6,0
1.4409,0.0001661708,21.6135,0,1.4409,-1.007095E-06,21.6135,0
1.4418,0.0001225299,21.627,0,1.4418,-4.129091E-05,21.627,0
1.4427,-5.035477E-06,21.6405,0,1.4427,-4.800488E-05,21.6405,0
1.4436,-0.0001487144,21.654,0,1.4436,-5.035477E-06,21.654,0
1.4445,-0.0001232013,21.6675,0,1.4445,-2.18204E-05,21.6675,0
1.4454,-0.0002198825,21.681,0,1.4454,-5.270466E-05,21.681,0
1.4463,-0.0003256275,21.6945,0,1.4463,-6.51255E-05,21.6945,0
1.4472,-0.0001587854,21.708,0,1.4472,-4.46479E-05,21.708,0
1.4481,-4.968337E-05,21.7215,0,1.4481,-9.869535E-05,21.7215,0
1.449,-3.726253E-05,21.735,0,1.449,-0.000161471,21.735,0
1.4499,-1.678492E-06,21.7485,0,1.4499,-0.0002098116,21.7485,0
1.4508,5.337606E-05,21.762,0,1.4508,-7.653925E-05,21.762,0
1.4517,0.0001215228,21.7755,0,1.4517,6.713969E-07,21.7755,0
1.4526,5.438316E-05,21.789,0,1.4526,-4.36408E-05,21.789,0
1.4535,-6.378271E-06,21.8025,0,1.4535,5.069047E-05,21.8025,0
1.4544,8.493171E-05,21.816,0,1.4544,0.0001977264,21.816,0
1.4553,6.243992E-05,21.8295,0,1.4553,0.0001607996,21.8295,0
1.4562,-3.356985E-07,21.843,0,1.4562,7.486076E-05,21.843,0
1.4571,-1.779202E-05,21.8565,0,1.4571,6.915389E-05,21.8565,0
1.458,-2.18204E-05,21.87,0,1.458,6.378271E-05,21.87,0
1.4589,0.0001064164,21.8835,0,1.4589,1.577783E-05,21.8835,0
1.4598,0.000112459,21.897,0,1.4598,-5.841154E-05,21.897,0
1.4607,4.196231E-05,21.9105,0,1.4607,-1.174945E-05,21.9105,0
1.4616,-1.477073E-05,21.924,0,1.4616,-6.713969E-07,21.924,0
1.4625,-5.270466E-05,21.9375,0,1.4625,-4.867628E-05,21.9375,0
1.4634,-6.042573E-05,21.951,0,1.4634,-5.606165E-05,21.951,0
1.4643,-4.33051E-05,21.9645,0,1.4643,-4.53193E-05,21.9645,0
1.4652,0.0001151446,21.978,0,1.4652,-0.0001033951,21.978,0
1.4661,0.0002131685,21.9915,0,1.4661,-0.0001265583,21.9915,0
1.467,0.0001242084,22.005,0,1.467,-9.164568E-05,22.005,0
1.4679,0.0001084306,22.0185,0,1.4679,-6.478981E-05,22.0185,0
1.4688,3.726253E-05,22.032,0,1.4688,-5.337606E-05,22.032,0
1.4697,-0.0001174945,22.0455,0,1.4697,1.913481E-05,22.0455,0
1.4706,-0.0002205539,22.059,0,1.4706,4.800488E-05,22.059,0
1.4715,-8.224613E-05,22.0725,0,1.4715,2.383459E-05,22.0725,0
1.4724,4.39765E-05,22.086,0,1.4724,3.256275E-05,22.086,0
1.4733,2.987716E-05,22.0995,0,1.4733,-9.735256E-06,22.0995,0
1.4742,-1.644922E-05,22.113,0,1.4742,1.879912E-05,22.113,0
1.4751,-3.054856E-05,22.1265,0,1.4751,6.210422E-05,22.1265,0
1.476,-2.719158E-05,22.14,0,1.476,-2.719158E-05,22.14,0
1.4769,-0.0002024262,22.1535,0,1.4769,-5.941863E-05,22.1535,0
1.4778,-0.0002061189,22.167,0,1.4778,1.577783E-05,22.167,0
1.4787,-3.793393E-05,22.1805,0,1.4787,7.351797E-05,22.1805,0
1.4796,4.028382E-06,22.194,0,1.4796,9.063859E-05,22.194,0
1.4805,1.577783E-05,22.2075,0,1.4805,7.016098E-05,22.2075,0
1.4814,0.0001030594,22.221,0,1.4814,3.524834E-05,22.221,0
1.4823,4.666209E-05,22.2345,0,1.4823,-3.726253E-05,22.2345,0
1.4832,-0.000112459,22.248,0,1.4832,-4.867628E-05,22.248,0
1.4841,-0.0001453574,22.2615,0,1.4841,-2.24918E-05,22.2615,0
1.485,-0.0001185016,22.275,0,1.485,-4.263371E-05,22.275,0
1.4859,-0.0001074235,22.2885,0,1.4859,-6.243992E-05,22.2885,0
1.4868,-3.860533E-05,22.302,0,1.4868,-7.519646E-05,22.302,0
1.4877,7.418937E-05,22.3155,0,1.4877,-6.210422E-05,22.3155,0
1.4886,3.994812E-05,22.329,0,1.4886,-3.793393E-05,22.329,0
1.4895,5.035477E-05,22.3425,0,1.4895,-1.712062E-05,22.3425,0
1.4904,5.069047E-05,22.356,0,1.4904,-5.404745E-05,22.356,0
1.4913,7.217517E-05,22.3695,0,1.4913,-4.129091E-05,22.3695,0
1.4922,0.0001554284,22.383,0,1.4922,-6.478981E-05,22.383,0
1.4931,0.0002131685,22.3965,0,1.4931,-7.553216E-05,22.3965,0
1.494,0.0001983978,22.41,0,1.494,-2.719158E-05,22.41,0
1.4949,0.000102388,22.4235,0,1.4949,-8.157473E-05,22.4235,0
1.4958,2.1149E-05,22.437,0,1.4958,-0.0001339437,22.437,0
1.4967,-6.478981E-05,22.4505,0,1.4967,-6.982528E-05,22.4505,0
1.4976,-0.000246067,22.464,0,1.4976,-6.881819E-05,22.464,0
1.4985,-0.0002709087,22.4775,0,1.4985,-0.0001077592,22.4775,0
1.4994,-0.0001554284,22.491,0,1.4994,-7.956054E-05,22.491,0
1.5003,-8.96315E-05,22.5045,0,1.5003,-5.404745E-05,22.5045,0
1.5012,-7.855344E-05,22.518,0,1.5012,5.069047E-05,22.518,0
1.5021,4.33051E-05,22.5315,0,1.5021,3.793393E-05,22.5315,0
1.503,8.023193E-05,22.545,0,1.503,6.411841E-05,22.545,0
1.5039,5.673304E-05,22.5585,0,1.5039,0.000133608,22.5585,0
1.5048,2.551309E-05,22.572,0,1.5048,0.0001487144,22.572,0
1.5057,3.189136E-05,22.5855,0,1.5057,7.284657E-05,22.5855,0
1.5066,0.0001154803,22.599,0,1.5066,0,22.599,0
1.5075,0.0001282368,22.6125,0,1.5075,5.371176E-06,22.6125,0
1.5084,-1.107805E-05,22.626,0,1.5084,-2.316319E-05,22.626,0
1.5093,-9.600977E-05,22.6395,0,1.5093,-7.418937E-05,22.6395,0
1.5102,-5.673304E-05,22.653,0,1.5102,-0.0001174945,22.653,0
1.5111,-0.0001138018,22.6665,0,1.5111,-0.000115816,22.6665,0
1.512,-5.908293E-05,22.68,0,1.512,-0.0001332723,22.68,0
1.5129,1.544213E-05,22.6935,0,1.5129,-5.438316E-05,22.6935,0
1.5138,7.956054E-05,22.707,0,1.5138,1.644922E-05,22.707,0
1.5147,-4.699779E-06,22.7205,0,1.5147,2.047761E-05,22.7205,0
1.5156,-3.591974E-05,22.734,0,1.5156,5.438316E-05,22.734,0
1.5165,5.069047E-05,22.7475,0,1.5165,0.0001003738,22.7475,0
1.5174,-8.023193E-05,22.761,0,1.5174,9.030289E-05,22.761,0
1.5183,-0.0001440146,22.7745,0,1.5183,8.090334E-05,22.7745,0
1.5192,-0.0001054093,22.788,0,1.5192,1.745632E-05,22.788,0
1.5201,-6.042573E-05,22.8015,0,1.5201,-7.418937E-05,22.8015,0
1.521,-1.242084E-05,22.815,0,1.521,-7.049668E-05,22.815,0
1.5219,0.0001661708,22.8285,0,1.5219,-4.49836E-05,22.8285,0
1.5228,0.0001886625,22.842,0,1.5228,-2.18204E-05,22.842,0
1.5237,6.948959E-05,22.8555,0,1.5237,-8.056763E-06,22.8555,0
1.5246,-1.309224E-05,22.869,0,1.5246,-2.853437E-05,22.869,0
1.5255,-2.18204E-05,22.8825,0,1.5255,-0.0001493858,22.8825,0
1.5264,2.24918E-05,22.896,0,1.5264,-0.0002195468,22.896,0
1.5273,-4.766919E-05,22.9095,0,1.5273,-0.0002299535,22.9095,0
1.5282,-7.116808E-05,22.923,0,1.5282,-0.000112459,22.923,0
1.5291,-1.040665E-05,22.9365,0,1.5291,2.349889E-06,22.9365,0
1.53,4.800488E-05,22.95,0,1.53,3.256275E-05,22.95,0
1.5309,-3.625543E-05,22.9635,0,1.5309,0.0001514,22.9635,0
1.5318,-0.0001560998,22.977,0,1.5318,0.0003031357,22.977,0
1.5327,-7.888914E-05,22.9905,0,1.5327,0.0001430075,22.9905,0
1.5336,-4.33051E-05,23.004,0,1.5336,-3.356985E-05,23.004,0
1.5345,-7.016098E-05,23.0175,0,1.5345,-1.947051E-05,23.0175,0
1.5354,6.6804E-05,23.031,0,1.5354,-5.774014E-05,23.031,0
1.5363,0.0001507286,23.0445,0,1.5363,-0.0001265583,23.0445,0
1.5372,0.0002088045,23.058,0,1.5372,-2.719158E-05,23.058,0
1.5381,0.0001356222,23.0715,0,1.5381,6.378271E-05,23.0715,0
1.539,3.189136E-05,23.085,0,1.539,7.888914E-05,23.085,0
1.5399,-9.500267E-05,23.0985,0,1.5399,4.196231E-05,23.0985,0
1.5408,-0.0001688563,23.112,0,1.5408,-3.054856E-05,23.112,0
1.5417,-0.0001668421,23.1255,0,1.5417,-3.256275E-05,23.1255,0
1.5426,-7.788205E-05,23.139,0,1.5426,-1.007095E-06,23.139,0
1.5435,0.0001295796,23.1525,0,1.5435,-3.356985E-06,23.1525,0
1.5444,9.500267E-05,23.166,0,1.5444,-2.24918E-05,23.166,0
1.5453,-4.39765E-05,23.1795,0,1.5453,2.450599E-05,23.1795,0
1.5462,-1.040665E-05,23.193,0,1.5462,-2.21561E-05,23.193,0
1.5471,6.277562E-05,23.2065,0,1.5471,-8.023193E-05,23.2065,0
1.548,5.941863E-05,23.22,0,1.548,-8.627451E-05,23.22,0
1.5489,0.0001416648,23.2335,0,1.5489,-9.903105E-05,23.2335,0
1.5498,7.687495E-05,23.247,0,1.5498,-9.063859E-05,23.247,0
1.5507,6.042573E-06,23.2605,0,1.5507,-2.618448E-05,23.2605,0
1.5516,-1.644922E-05,23.274,0,1.5516,8.023193E-05,23.274,0
1.5525,-0.0001557641,23.2875,0,1.5525,7.318227E-05,23.2875,0
1.5534,-1.678492E-06,23.301,0,1.5534,-0.000115816,23.301,0
1.5543,0.0001681849,23.3145,0,1.5543,-0.0003377127,23.3145,0
1.5552,-5.874724E-05,23.328,0,1.5552,-0.0003400626,23.328,0
1.5561,-0.0001910124,23.3415,0,1.5561,-0.0002887007,23.3415,0
1.557,-9.701686E-05,23.355,0,1.557,-0.0002088045,23.355,0
1.5579,-8.96315E-05,23.3685,0,1.5579,-6.344701E-05,23.3685,0
1.5588,-0.0001399863,23.382,0,1.5588,0.0002722515,23.382,0
1.5597,-0.0001782559,23.3955,0,1.5597,0.000470985,23.3955,0
1.5606,-0.0001493858,23.409,0,1.5606,0.0002437171,23.409,0
1.5615,-8.627451E-05,23.4225,0,1.5615,0.0001675135,23.4225,0
1.5624,1.443504E-05,23.436,0,1.5624,0.000115816,23.436,0
1.5633,4.934768E-05,23.4495,0,1.5633,-1.141375E-05,23.4495,0
1.5642,4.39765E-05,23.463,0,1.5642,-3.189136E-05,23.463,0
1.5651,3.155566E-05,23.4765,0,1.5651,3.591974E-05,23.4765,0
1.566,-6.71397E-05,23.49,0,1.566,4.263371E-05,23.49,0
1.5669,-0.0001510643,23.5035,0,1.5669,-1.342794E-06,23.5035,0
1.5678,6.378271E-06,23.517,0,1.5678,-6.881819E-05,23.517,0
1.5687,0.0001131304,23.5305,0,1.5687,-9.567407E-05,23.5305,0
1.5696,0.0001849699,23.544,0,1.5696,-8.96315E-05,23.544,0
1.5705,0.000197055,23.5575,0,1.5705,-7.653925E-05,23.5575,0
1.5714,1.846342E-05,23.571,0,1.5714,-0.0001164874,23.571,0
1.5723,-9.298848E-05,23.5845,0,1.5723,-6.076142E-05,23.5845,0
1.5732,-8.123904E-05,23.598,0,1.5732,3.659113E-05,23.598,0
1.5741,3.927672E-05,23.6115,0,1.5741,-2.719158E-05,23.6115,0
1.575,0.0001497215,23.625,0,1.575,-1.913481E-05,23.625,0
1.5759,2.316319E-05,23.6385,0,1.5759,-2.853437E-05,23.6385,0
1.5768,-0.0001295796,23.652,0,1.5768,-6.243992E-05,23.652,0
1.5777,-3.927672E-05,23.6655,0,1.5777,-3.054856E-05,23.6655,0
1.5786,-5.639734E-05,23.679,0,1.5786,-3.524834E-05,23.679,0
1.5795,-5.001907E-05,23.6925,0,1.5795,-2.954147E-05,23.6925,0
1.5804,-9.768826E-05,23.706,0,1.5804,2.1149E-05,23.706,0
1.5813,-2.450599E-05,23.7195,0,1.5813,-2.349889E-05,23.7195,0
1.5822,0.0001285725,23.733,0,1.5822,-3.692683E-05,23.733,0
1.5831,3.994812E-05,23.7465,0,1.5831,-3.793393E-05,23.7465,0
1.584,-6.042573E-05,23.76,0,1.584,-7.888914E-05,23.76,0
1.5849,-9.701686E-05,23.7735,0,1.5849,-0.0001329366,23.7735,0
1.5858,-9.970245E-05,23.787,0,1.5858,-0.0001084306,23.787,0
1.5867,-2.1149E-05,23.8005,0,1.5867,-7.821774E-05,23.8005,0
1.5876,4.263371E-05,23.814,0,1.5876,-9.130999E-05,23.814,0
1.5885,5.203327E-05,23.8275,0,1.5885,-9.735256E-06,23.8275,0
1.5894,9.634547E-05,23.841,0,1.5894,4.36408E-06,23.841,0
1.5903,-9.735256E-06,23.8545,0,1.5903,1.007095E-05,23.8545,0
1.5912,-6.143282E-05,23.868,0,1.5912,0.0001101091,23.868,0
1.5921,1.980621E-05,23.8815,0,1.5921,4.934768E-05,23.8815,0
1.593,0.0001017166,23.895,0,1.593,2.987716E-05,23.895,0
1.5939,0.0001493858,23.9085,0,1.5939,3.659113E-05,23.9085,0
1.5948,0.0001527428,23.922,0,1.5948,9.063859E-06,23.922,0
1.5957,6.411841E-05,23.9355,0,1.5957,-4.29694E-05,23.9355,0
1.5966,-3.692683E-06,23.949,0,1.5966,-4.229801E-05,23.949,0
1.5975,1.779202E-05,23.9625,0,1.5975,-5.941863E-05,23.9625,0
1.5984,-6.378271E-05,23.976,0,1.5984,-7.418937E-05,23.976,0
1.5993,-0.0001406577,23.9895,0,1.5993,-7.620356E-05,23.9895,0
1.6002,-7.284657E-05,24.003,0,1.6002,-0.0001678492,24.003,0
1.6011,-8.056763E-06,24.0165,0,1.6011,-0.0001708705,24.0165,0
1.602,0.0001218585,24.03,0,1.602,2.349889E-06,24.03,0
1.6029,0.0001473716,24.0435,0,1.6029,4.599069E-05,24.0435,0
1.6038,1.275654E-05,24.057,0,1.6038,3.692683E-06,24.057,0
1.6047,-0.0001822843,24.0705,0,1.6047,5.069047E-05,24.0705,0
1.6056,-1.040665E-05,24.084,0,1.6056,0.0001362936,24.084,0
1.6065,1.712062E-05,24.0975,0,1.6065,0.0001735561,24.0975,0
1.6074,-4.800488E-05,24.111,0,1.6074,9.198138E-05,24.111,0
1.6083,-0.000148043,24.1245,0,1.6083,-0.0001010452,24.1245,0
1.6092,-0.0001030594,24.138,0,1.6092,-0.000144686,24.138,0
1.6101,-1.678492E-06,24.1515,0,1.6101,-0.0001252155,24.1515,0
1.611,0.0001349508,24.165,0,1.611,-0.0001389792,24.165,0
1.6119,0.0001943694,24.1785,0,1.6119,-0.0001876554,24.1785,0
1.6128,0.0001433432,24.192,0,1.6128,-0.0001577783,24.192,0
1.6137,0.0001765774,24.2055,0,1.6137,-0.0001349508,24.2055,0
1.6146,0.0001819486,24.219,0,1.6146,-6.210422E-05,24.219,0
1.6155,0.0001221943,24.2325,0,1.6155,9.298848E-05,24.2325,0
1.6164,0.0001033951,24.246,0,1.6164,3.424125E-05,24.246,0
1.6173,-0.0001080949,24.2595,0,1.6173,-8.392462E-06,24.2595,0
1.6182,-0.0002944076,24.273,0,1.6182,0.0001876554,24.273,0
1.6191,-0.000340734,24.2865,0,1.6191,0.0004427863,24.2865,0
1.62,-0.0003336843,24.3,0,1.62,0.0004495003,24.3,0
1.6209,-0.0002366674,24.3135,0,1.6209,0.0002769512,24.3135,0
1.6218,-0.0001319295,24.327,0,1.6218,0.000115816,24.327,0
1.6227,-0.0001440146,24.3405,0,1.6227,-3.021286E-05,24.3405,0
1.6236,-5.270466E-05,24.354,0,1.6236,-0.000148043,24.354,0
1.6245,-4.095522E-05,24.3675,0,1.6245,-0.0001953765,24.3675,0
1.6254,-0.0001104448,24.381,0,1.6254,-0.0001752346,24.381,0
1.6263,-8.157473E-05,24.3945,0,1.6263,-9.030289E-05,24.3945,0
1.6272,-0.0001712062,24.408,0,1.6272,-7.284657E-05,24.408,0
1.6281,-0.0001188373,24.4215,0,1.6281,-1.644922E-05,24.4215,0
1.629,-2.349889E-06,24.435,0,1.629,3.390555E-05,24.435,0
1.6299,7.754635E-05,24.4485,0,1.6299,-1.812772E-05,24.4485,0
1.6308,0.0001601282,24.462,0,1.6308,-4.061952E-05,24.462,0
1.6317,0.0001440146,24.4755,0,1.6317,-3.793393E-05,24.4755,0
1.6326,1.007095E-06,24.489,0,1.6326,6.713969E-07,24.489,0
1.6335,-0.0001473716,24.5025,0,1.6335,4.028382E-06,24.5025,0
1.6344,-9.365987E-05,24.516,0,1.6344,1.678492E-06,24.516,0
1.6353,2.349889E-06,24.5295,0,1.6353,-5.102617E-05,24.5295,0
1.6362,0.0001329366,24.543,0,1.6362,3.021286E-06,24.543,0
1.6371,0.0001030594,24.5565,0,1.6371,1.376364E-05,24.5565,0
1.638,-3.558404E-05,24.57,0,1.638,-4.934768E-05,24.57,0
1.6389,5.337606E-05,24.5835,0,1.6389,-9.701686E-05,24.5835,0
1.6398,0.0001070878,24.597,0,1.6398,-0.0001701991,24.597,0
1.6407,0.0002218967,24.6105,0,1.6407,-0.0001618067,24.6105,0
1.6416,0.0001201801,24.624,0,1.6416,-0.0001668421,24.624,0
1.6425,6.411841E-05,24.6375,0,1.6425,-0.0001272297,24.6375,0
1.6434,0.0001520714,24.651,0,1.6434,-6.378271E-05,24.651,0
1.6443,0.0002299535,24.6645,0,1.6443,2.1149E-05,24.6645,0
1.6452,0.0002272679,24.678,0,1.6452,8.82887E-05,24.678,0
1.6461,0.0001947051,24.6915,0,1.6461,6.311131E-05,24.6915,0
1.647,0.0001527428,24.705,0,1.647,6.143282E-05,24.705,0
1.6479,-9.634547E-05,24.7185,0,1.6479,5.673304E-05,24.7185,0
1.6488,-0.0001493858,24.732,0,1.6488,-1.779202E-05,24.732,0
1.6497,-2.316319E-05,24.7455,0,1.6497,-5.404745E-05,24.7455,0
1.6506,7.452507E-05,24.759,0,1.6506,-8.661021E-05,24.759,0
1.6515,0.0001117876,24.7725,0,1.6515,-0.000133608,24.7725,0
1.6524,-0.0001467002,24.786,0,1.6524,-0.0001453574,24.786,0
1.6533,-0.0002252537,24.7995,0,1.6533,-9.097429E-05,24.7995,0
1.6542,-0.0002366674,24.813,0,1.6542,-0.0001359579,24.813,0
1.6551,-0.0002554666,24.8265,0,1.6551,-6.076142E-05,24.8265,0
1.656,-0.0002198825,24.84,0,1.656,1.980621E-05,24.84,0
1.6569,-0.0001685206,24.8535,0,1.6569,5.035477E-06,24.8535,0
1.6578,-0.000164828,24.867,0,1.6578,-1.577783E-05,24.867,0
1.6587,-8.89601E-05,24.8805,0,1.6587,3.323415E-05,24.8805,0
1.6596,-8.191043E-05,24.894,0,1.6596,7.653925E-05,24.894,0
1.6605,-7.049668E-06,24.9075,0,1.6605,-1.376364E-05,24.9075,0
1.6614,-2.18204E-05,24.921,0,1.6614,-0.0001238727,24.921,0
1.6623,-4.901198E-05,24.9345,0,1.6623,-0.0001624781,24.9345,0
1.6632,-2.383459E-05,24.948,0,1.6632,-8.392462E-05,24.948,0
1.6641,-3.256275E-05,24.9615,0,1.6641,9.130999E-05,24.9615,0
1.665,-2.584878E-05,24.975,0,1.665,0.0001846342,24.975,0
1.6659,5.035477E-06,24.9885,0,1.6659,0.0001389792,24.9885,0
1.6668,2.014191E-05,25.002,0,1.6668,0.0001248798,25.002,0
1.6677,2.349889E-06,25.0155,0,1.6677,9.634547E-05,25.0155,0
1.6686,0,25.029,0,1.6686,1.309224E-05,25.029,0
1.6695,3.625543E-05,25.0425,0,1.6695,2.081331E-05,25.0425,0
1.6704,0.0001037308,25.056,0,1.6704,-1.812772E-05,25.056,0
1.6713,5.539025E-05,25.0695,0,1.6713,-0.0001762417,25.0695,0
1.6722,1.477073E-05,25.083,0,1.6722,-0.000291722,25.083,0
1.6731,1.007095E-06,25.0965,0,1.6731,-0.0002608377,25.0965,0
1.674,2.484169E-05,25.11,0,1.674,-0.0002259251,25.11,0
1.6749,0.0002306248,25.1235,0,1.6749,-0.0001668421,25.1235,0
1.6758,0.0003561761,25.137,0,1.6758,-3.356985E-07,25.137,0
1.6767,0.000263859,25.1505,0,1.6767,0.000235996,25.1505,0
1.6776,9.869535E-05,25.164,0,1.6776,0.0002866865,25.164,0
1.6785,7.083238E-05,25.1775,0,1.6785,0.0002954147,25.1775,0
1.6794,-0.0001168231,25.191,0,1.6794,0.0001148089,25.191,0
1.6803,-0.0004112306,25.2045,0,1.6803,9.466698E-05,25.2045,0
1.6812,-0.0001967193,25.218,0,1.6812,6.915389E-05,25.218,0
1.6821,6.948959E-05,25.2315,0,1.6821,7.385367E-06,25.2315,0
1.683,4.934768E-05,25.245,0,1.683,4.49836E-05,25.245,0
1.6839,-7.620356E-05,25.2585,0,1.6839,1.812772E-05,25.2585,0
1.6848,-0.0001151446,25.272,0,1.6848,-0.0001322652,25.272,0
1.6857,6.74754E-05,25.2855,0,1.6857,-0.0001876554,25.2855,0
1.6866,2.920577E-05,25.299,0,1.6866,-0.0002289464,25.299,0
1.6875,-1.644922E-05,25.3125,0,1.6875,-0.0002158541,25.3125,0
1.6884,-2.853437E-05,25.326,0,1.6884,-0.0001003738,25.326,0
1.6893,0.0001121233,25.3395,0,1.6893,1.309224E-05,25.3395,0
1.6902,0.0002762798,25.353,0,1.6902,0.000164828,25.353,0
1.6911,0.0002312963,25.3665,0,1.6911,0.0002467384,25.3665,0
1.692,9.164568E-05,25.38,0,1.692,-9.634547E-05,25.38,0
1.6929,-6.74754E-05,25.3935,0,1.6929,-0.000288365,25.3935,0
1.6938,-0.0002141756,25.407,0,1.6938,-0.0001577783,25.407,0
1.6947,-0.0002124971,25.4205,0,1.6947,3.457694E-05,25.4205,0
1.6956,-0.0003118639,25.434,0,1.6956,8.627451E-05,25.434,0
1.6965,-0.0001453574,25.4475,0,1.6965,5.673304E-05,25.4475,0
1.6974,7.183947E-05,25.461,0,1.6974,8.72816E-05,25.461,0
1.6983,-4.196231E-05,25.4745,0,1.6983,8.661021E-05,25.4745,0
1.6992,-5.539025E-05,25.488,0,1.6992,0.0001198444,25.488,0
1.7001,-3.256275E-05,25.5015,0,1.7001,8.96315E-05,25.5015,0
1.701,7.989624E-05,25.515,0,1.701,7.553216E-05,25.515,0
1.7019,0.0002984359,25.5285,0,1.7019,0.000115816,25.5285,0
1.7028,0.0002836652,25.542,0,1.7028,-7.989624E-05,25.542,0
1.7037,9.097429E-05,25.5555,0,1.7037,-0.000231632,25.5555,0
1.7046,-2.316319E-05,25.569,0,1.7046,-0.0002141756,25.569,0
1.7055,-0.0001366293,25.5825,0,1.7055,-0.0001305867,25.5825,0
1.7064,-0.0002598306,25.596,0,1.7064,-0.0001413291,25.596,0
1.7073,-0.0002312963,25.6095,0,1.7073,-5.203327E-05,25.6095,0
1.7082,-0.0002913863,25.623,0,1.7082,1.007095E-05,25.623,0
1.7091,-0.0001510643,25.6365,0,1.7091,6.411841E-05,25.6365,0
1.71,-3.054856E-05,25.65,0,1.71,0.000164828,25.65,0
1.7109,-2.484169E-05,25.6635,0,1.7109,8.86244E-05,25.6635,0
1.7118,1.678492E-05,25.677,0,1.7118,-5.572595E-05,25.677,0
1.7127,0.0001117876,25.6905,0,1.7127,-0.000109102,25.6905,0
1.7136,0.0001930266,25.704,0,1.7136,-0.0001017166,25.704,0
1.7145,0.000295079,25.7175,0,1.7145,-6.51255E-05,25.7175,0
1.7154,0.0003219348,25.731,0,1.7154,-3.659113E-05,25.731,0
1.7163,0.0002339818,25.7445,0,1.7163,-8.056764E-05,25.7445,0
1.7172,-7.284657E-05,25.758,0,1.7172,-9.164568E-05,25.758,0
1.7181,-9.466698E-05,25.7715,0,1.7181,-0.0001164874,25.7715,0
1.719,4.229801E-05,25.785,0,1.719,-7.284657E-05,25.785,0
1.7199,-3.323415E-05,25.7985,0,1.7199,-7.351797E-05,25.7985,0
1.7208,-0.0001013809,25.812,0,1.7208,-1.980621E-05,25.812,0
1.7217,-8.392462E-06,25.8255,0,1.7217,5.539025E-05,25.8255,0
1.7226,8.258183E-05,25.839,0,1.7226,9.802396E-05,25.839,0
1.7235,-0.0001950408,25.8525,0,1.7235,5.337606E-05,25.8525,0
1.7244,-0.0001342794,25.866,0,1.7244,-0.0001292439,25.866,0
1.7253,1.141375E-05,25.8795,0,1.7253,-0.0003158923,25.8795,0
1.7262,-0.0001863127,25.893,0,1.7262,-0.0003414054,25.893,0
1.7271,-0.0003209277,25.9065,0,1.7271,-0.0002135042,25.9065,0
1.728,-0.000257145,25.92,0,1.728,-3.323415E-05,25.92,0
1.7289,-0.0001809415,25.9335,0,1.7289,0.0002507668,25.9335,0
1.7298,-4.196231E-05,25.947,0,1.7298,0.0003367056,25.947,0
1.7307,0.0002104829,25.9605,0,1.7307,0.0003132067,25.9605,0
1.7316,0.0001003738,25.974,0,1.7316,0.0001701991,25.974,0
1.7325,0.000140322,25.9875,0,1.7325,1.879912E-05,25.9875,0
1.7334,0.0001836271,26.001,0,1.7334,-7.553216E-05,26.001,0
1.7343,-0.000193698,26.0145,0,1.7343,-0.0001467002,26.0145,0
1.7352,-0.0003682612,26.028,0,1.7352,-0.0001957122,26.028,0
1.7361,-0.0001910124,26.0415,0,1.7361,-0.000140322,26.0415,0
1.737,-7.486076E-05,26.055,0,1.737,3.054856E-05,26.055,0
1.7379,-9.835965E-05,26.0685,0,1.7379,0.0001634852,26.0685,0
1.7388,4.699779E-06,26.082,0,1.7388,0.0002000763,26.082,0
1.7397,9.903105E-05,26.0955,0,1.7397,0.0001493858,26.0955,0
1.7406,0.0001064164,26.109,0,1.7406,0.000102388,26.109,0
1.7415,6.143282E-05,26.1225,0,1.7415,-8.358892E-05,26.1225,0
1.7424,0.0001117876,26.136,0,1.7424,-0.0002044404,26.136,0
1.7433,9.735256E-05,26.1495,0,1.7433,-0.0003024643,26.1495,0
1.7442,4.766919E-05,26.163,0,1.7442,-0.0003054856,26.163,0
1.7451,5.975433E-05,26.1765,0,1.7451,-0.0002333104,26.1765,0
1.746,0.0001084306,26.19,0,1.746,-9.298848E-05,26.19,0
1.7469,9.903105E-05,26.2035,0,1.7469,6.814679E-05,26.2035,0
1.7478,9.735256E-06,26.217,0,1.7478,0.0003521477,26.217,0
1.7487,1.376364E-05,26.2305,0,1.7487,0.0003350271,26.2305,0
1.7496,-7.418937E-05,26.244,0,1.7496,7.418937E-05,26.244,0
1.7505,-5.404745E-05,26.2575,0,1.7505,2.987716E-05,26.2575,0
1.7514,-2.081331E-05,26.271,0,1.7514,5.404745E-05,26.271,0
1.7523,-2.450599E-05,26.2845,0,1.7523,6.71397E-05,26.2845,0
1.7532,8.325322E-05,26.298,0,1.7532,3.424125E-05,26.298,0
1.7541,5.001907E-05,26.3115,0,1.7541,-3.356985E-06,26.3115,0
1.755,3.927672E-05,26.325,0,1.755,-6.78111E-05,26.325,0
1.7559,7.888914E-05,26.3385,0,1.7559,-0.0001221943,26.3385,0
1.7568,8.291753E-05,26.352,0,1.7568,-0.0001409934,26.352,0
1.7577,-9.869535E-05,26.3655,0,1.7577,-0.0001453574,26.3655,0
1.7586,-3.054856E-05,26.379,0,1.7586,-5.236896E-05,26.379,0
1.7595,9.802396E-05,26.3925,0,1.7595,-1.477073E-05,26.3925,0
1.7604,0.0001097734,26.406,0,1.7604,-1.947051E-05,26.406,0
1.7613,0.0003165637,26.4195,0,1.7613,7.721065E-06,26.4195,0
1.7622,0.0002944076,26.433,0,1.7622,-5.236896E-05,26.433,0
1.7631,8.426032E-05,26.4465,0,1.7631,-8.761731E-05,26.4465,0
1.764,-1.275654E-05,26.46,0,1.764,-5.169757E-05,26.46,0
1.7649,-0.0001141375,26.4735,0,1.7649,-1.376364E-05,26.4735,0
1.7658,-0.0004004883,26.487,0,1.7658,-0.0001534142,26.487,0
1.7667,-0.0004552071,26.5005,0,1.7667,-0.0002007477,26.5005,0
1.7676,-0.0003622186,26.514,0,1.7676,-0.0002047761,26.514,0
1.7685,-0.0003098497,26.5275,0,1.7685,-0.0002312963,26.5275,0
1.7694,-6.344701E-05,26.541,0,1.7694,-0.0002192111,26.541,0
1.7703,2.719158E-05,26.5545,0,1.7703,-0.0001044022,26.5545,0
1.7712,1.174945E-05,26.568,0,1.7712,7.150377E-05,26.568,0
1.7721,5.673304E-05,26.5815,0,1.7721,0.0003031357,26.5815,0
1.773,7.486076E-05,26.595,0,1.773,0.0004145876,26.595,0
1.7739,0.0001111162,26.6085,0,1.7739,0.0001097734,26.6085,0
1.7748,7.351797E-05,26.622,0,1.7748,-4.53193E-05,26.622,0
1.7757,0.0001487144,26.6355,0,1.7757,-8.426032E-05,26.6355,0
1.7766,0.0003138781,26.649,0,1.7766,-0.0001373007,26.649,0
1.7775,0.0005891508,26.6625,0,1.7775,-0.0001618067,26.6625,0
1.7784,0.0004669566,26.676,0,1.7784,-8.224613E-05,26.676,0
1.7793,0.0002272679,26.6895,0,1.7793,-4.061952E-05,26.6895,0
1.7802,-0.000161471,26.703,0,1.7802,-8.795301E-05,26.703,0
1.7811,-0.000421973,26.7165,0,1.7811,0.0001258869,26.7165,0
1.782,-0.0005357748,26.73,0,1.782,0.0002910506,26.73,0
1.7829,-0.0004394293,26.7435,0,1.7829,0.000355169,26.7435,0
1.7838,-7.821774E-05,26.757,0,1.7838,0.0003165637,26.757,0
1.7847,-8.69459E-05,26.7705,0,1.7847,0.0001896696,26.7705,0
1.7856,-0.0001839628,26.784,0,1.7856,7.217517E-05,26.784,0
1.7865,-0.000115816,26.7975,0,1.7865,-1.577783E-05,26.7975,0
1.7874,5.035477E-06,26.811,0,1.7874,-9.466698E-05,26.811,0
1.7883,7.553216E-05,26.8245,0,1.7883,-7.049668E-05,26.8245,0
1.7892,8.795301E-05,26.838,0,1.7892,-0.0001537499,26.838,0
1.7901,1.745632E-05,26.8515,0,1.7901,-0.0003152209,26.8515,0
1.791,-6.411841E-05,26.865,0,1.791,-0.000257145,26.865,0
1.7919,-6.478981E-05,26.8785,0,1.7919,-0.0001755703,26.8785,0
1.7928,-0.0001205158,26.892,0,1.7928,-7.821774E-05,26.892,0
1.7937,1.275654E-05,26.9055,0,1.7937,-1.376364E-05,26.9055,0
1.7946,6.948959E-05,26.919,0,1.7946,-3.927672E-05,26.919,0
1.7955,2.887007E-05,26.9325,0,1.7955,-6.176852E-05,26.9325,0
1.7964,9.970245E-05,26.946,0,1.7964,0.0001265583,26.946,0
1.7973,0.0002920577,26.9595,0,1.7973,0.0001574426,26.9595,0
1.7982,0.0003259632,26.973,0,1.7982,0.0001265583,26.973,0
1.7991,0.0001973907,26.9865,0,1.7991,-1.107805E-05,26.9865,0
1.8,-2.584878E-05,27,0,1.8,-0.0001144732,27,0
1.8009,-0.0001916838,27.0135,0,1.8009,-0.0001205158,27.0135,0
1.8018,-0.0003182421,27.027,0,1.8018,-0.0001030594,27.027,0
1.8027,-0.0002437171,27.0405,0,1.8027,-0.0001138018,27.0405,0
1.8036,-0.0002366674,27.054,0,1.8036,-0.0001315938,27.054,0
1.8045,-0.0001500572,27.0675,0,1.8045,-3.356985E-06,27.0675,0
1.8054,0.0001923552,27.081,0,1.8054,5.404745E-05,27.081,0
1.8063,0.0003393912,27.0945,0,1.8063,5.001907E-05,27.0945,0
1.8072,0.0003541619,27.108,0,1.8072,0.0001540856,27.108,0
1.8081,0.0002198825,27.1215,0,1.8081,0.0001574426,27.1215,0
1.809,5.673304E-05,27.135,0,1.809,2.24918E-05,27.135,0
1.8099,-0.000144686,27.1485,0,1.8099,-6.243992E-05,27.1485,0
1.8108,-0.0001990692,27.162,0,1.8108,-5.035477E-05,27.162,0
1.8117,-0.000330663,27.1755,0,1.8117,-3.524834E-05,27.1755,0
1.8126,-0.0002776226,27.189,0,1.8126,-9.533837E-05,27.189,0
1.8135,-1.242084E-05,27.2025,0,1.8135,-0.0001104448,27.2025,0
1.8144,0.0001070878,27.216,0,1.8144,-0.0001218585,27.216,0
1.8153,-0.0001037308,27.2295,0,1.8153,-0.0002269322,27.2295,0
1.8162,-0.0002346532,27.243,0,1.8162,-0.000327306,27.243,0
1.8171,-0.000161471,27.2565,0,1.8171,-0.0003105211,27.2565,0
1.818,-2.1149E-05,27.27,0,1.818,-0.0002702373,27.27,0
1.8189,-4.162661E-05,27.2835,0,1.8189,-0.0001802701,27.2835,0
1.8198,-3.390555E-05,27.297,0,1.8198,6.948959E-05,27.297,0
