X[s],"Trigno IM sensor 3: EMG 3 (IM)",X[s],"Trigno IM sensor 3: Mag 3.Z (IM)",X[s],"Trigno IM sensor 4: EMG 4 (IM)",X[s],"Trigno IM sensor 4: Mag 4.Z (IM)"
0.000000,1.611353E-05,0.000000,46,0.000000,-1.107805E-05,0.000000,103
0.0009,1.980621E-05,0.0135,45,0.0009,2.618448E-05,0.0135,104
0.0018,-0.0001289082,0.027,45,0.0018,2.920577E-05,0.027,106
0.0027,-3.927672E-05,0.0405,46,0.0027,7.721065E-06,0.0405,105
0.0036,0.0001352865,0.054,45,0.0036,-1.040665E-05,0.054,102
0.0045,-2.652018E-05,0.0675,45,0.0045,-3.356985E-06,0.0675,107
0.0054,-5.371176E-06,0.081,45,0.0054,-9.063859E-06,0.081,105
0.0063,3.860533E-05,0.0945,46,0.0063,-2.24918E-05,0.0945,104
0.0072,-1.107805E-05,0.108,45,0.0072,-3.189136E-05,0.108,108
0.0081,-3.591974E-05,0.1215,45,0.0081,-1.678492E-05,0.1215,105
0.009000001,5.035477E-06,0.135,45,0.009000001,-3.021286E-06,0.135,106
0.0099,-4.599069E-05,0.1485,45,0.0099,-3.961242E-05,0.1485,104
0.0108,-5.001907E-05,0.162,44,0.0108,-8.056764E-05,0.162,102
0.0117,-0.0001373007,0.1755,45,0.0117,-5.404745E-05,0.1755,106
0.0126,-1.644922E-05,0.189,45,0.0126,-4.36408E-05,0.189,105
0.0135,-8.224613E-05,0.2025,44,0.0135,-5.438316E-05,0.2025,103
0.0144,-2.316319E-05,0.216,45,0.0144,-3.524834E-05,0.216,100
0.0153,3.692683E-06,0.2295,45,0.0153,-1.544213E-05,0.2295,105
0.0162,2.484169E-05,0.243,45,0.0162,6.378271E-06,0.243,102
0.0171,-1.040665E-05,0.2565,45,0.0171,-2.618448E-05,0.2565,101
0.018,-1.443504E-05,0.27,45,0.018,-1.510643E-05,0.27,104
0.0189,-1.309224E-05,0.2835,45,0.0189,-1.812772E-05,0.2835,105
0.0198,-2.417029E-05,0.297,45,0.0198,-2.349889E-05,0.297,107
0.0207,5.874724E-05,0.3105,44,0.0207,-3.793393E-05,0.3105,103
0.0216,-3.121996E-05,0.324,45,0.0216,-3.659113E-05,0.324,105
0.0225,-1.409934E-05,0.3375,46,0.0225,-2.014191E-05,0.3375,107
0.0234,7.016098E-05,0.351,45,0.0234,-8.392462E-06,0.351,107
0.0243,5.908293E-05,0.3645,45,0.0243,-2.987716E-05,0.3645,108
0.0252,-3.021286E-06,0.378,45,0.0252,-4.36408E-05,0.378,103
0.0261,-3.625543E-05,0.3915,45,0.0261,-2.18204E-05,0.3915,104
0.027,-2.014191E-06,0.405,46,0.027,-4.095522E-05,0.405,104
0.0279,-1.242084E-05,0.4185,46,0.0279,-3.457694E-05,0.4185,106
0.0288,5.673304E-05,0.432,46,0.0288,-8.090334E-05,0.432,105
0.0297,0.0001352865,0.4455,46,0.0297,-5.706874E-06,0.4455,107
0.0306,4.53193E-05,0.459,45,0.0306,2.685588E-06,0.459,103
0.0315,7.385367E-05,0.4725,46,0.0315,-7.016098E-05,0.4725,103
0.0324,0.0001923552,0.486,45,0.0324,-5.136187E-05,0.486,105
0.0333,4.028382E-06,0.4995,44,0.0333,7.385367E-05,0.4995,106
0.0342,-1.913481E-05,0.513,47,0.0342,1.376364E-05,0.513,103
0.0351,0.0001178302,0.5265,46,0.0351,-7.754635E-05,0.5265,104
0.036,-1.644922E-05,0.54,47,0.036,5.975433E-05,0.54,103
0.0369,-0.0001282368,0.5535,46,0.0369,5.404745E-05,0.5535,104
0.0378,3.088426E-05,0.567,45,0.0378,-4.599069E-05,0.567,104
0.0387,8.89601E-05,0.5805,44,0.0387,1.577783E-05,0.5805,105
0.0396,-0.0001134661,0.594,46,0.0396,5.001907E-05,0.594,103
0.0405,-7.486076E-05,0.6075,46,0.0405,2.618448E-05,0.6075,103
0.0414,2.014191E-06,0.621,46,0.0414,-6.378271E-06,0.621,106
0.0423,-2.652018E-05,0.6345,45,0.0423,-5.304036E-05,0.6345,101
0.0432,-6.076142E-05,0.648,44,0.0432,3.692683E-06,0.648,106
0.0441,-0.0002171969,0.6615,43,0.0441,2.450599E-05,0.6615,107
0.045,-0.0001628138,0.675,43,0.045,-1.913481E-05,0.675,104
0.0459,-5.874724E-05,0.6885,43,0.0459,-6.478981E-05,0.6885,100
0.0468,-0.0001292439,0.702,44,0.0468,2.987716E-05,0.702,106
0.0477,-4.666209E-05,0.7155,45,0.0477,-3.021286E-06,0.7155,105
0.0486,5.606165E-05,0.729,46,0.0486,-0.0001067521,0.729,102
0.0495,6.713969E-07,0.7425,45,0.0495,2.417029E-05,0.7425,104
0.0504,0,0.756,44,0.0504,1.577783E-05,0.756,107
0.0513,5.270466E-05,0.7695,45,0.0513,-0.0001030594,0.7695,102
0.0522,9.433127E-05,0.783,44,0.0522,-3.021286E-06,0.783,102
0.0531,-5.438316E-05,0.7965,44,0.0531,4.129091E-05,0.7965,100
0.054,-8.627451E-05,0.81,45,0.054,-1.309224E-05,0.81,101
0.0549,-2.349889E-06,0.8235,45,0.0549,-3.625543E-05,0.8235,105
0.0558,8.560311E-05,0.837,45,0.0558,-8.761731E-05,0.837,101
0.0567,1.040665E-05,0.8505,47,0.0567,-1.309224E-05,0.8505,101
0.0576,-4.867628E-05,0.864,45,0.0576,-1.174945E-05,0.864,104
0.0585,-2.584878E-05,0.8775,46,0.0585,-6.378271E-05,0.8775,103
0.0594,0.0001003738,0.891,46,0.0594,-5.706874E-05,0.891,101
0.0603,-5.740444E-05,0.9045,47,0.0603,4.867628E-05,0.9045,100
0.0612,-2.517739E-05,0.918,46,0.0612,-4.36408E-06,0.918,101
0.0621,0.0001084306,0.9315,47,0.0621,-7.284657E-05,0.9315,99
0.063,-4.028382E-05,0.945,47,0.063,3.457694E-05,0.945,99
0.0639,4.800488E-05,0.9585,45,0.0639,3.491264E-05,0.9585,102
0.0648,0.0001688563,0.972,45,0.0648,-5.941863E-05,0.972,104
0.0657,3.088426E-05,0.9855,46,0.0657,-4.162661E-05,0.9855,102
0.0666,-5.539025E-05,0.999,46,0.0666,2.1149E-05,0.999,101
0.0675,3.524834E-05,1.0125,46,0.0675,-2.383459E-05,1.0125,102
0.0684,-2.786297E-05,1.026,44,0.0684,-3.021286E-05,1.026,104
0.0693,3.659113E-05,1.0395,45,0.0693,-5.941863E-05,1.0395,103
0.0702,9.063859E-06,1.053,45,0.0702,3.155566E-05,1.053,103
0.0711,-5.505455E-05,1.0665,45,0.0711,2.551309E-05,1.0665,100
0.072,-2.18204E-05,1.08,46,0.072,-3.793393E-05,1.08,103
0.0729,5.841154E-05,1.0935,46,0.0729,-5.874724E-05,1.0935,103
0.07380001,-1.913481E-05,1.107,48,0.07380001,3.994812E-05,1.107,100
0.07470001,-8.96315E-05,1.1205,44,0.07470001,6.713969E-07,1.1205,101
0.0756,6.814679E-05,1.134,45,0.0756,-0.0001060807,1.134,100
0.0765,2.652018E-05,1.1475,45,0.0765,1.040665E-05,1.1475,104
0.0774,-0.0001574426,1.161,45,0.0774,4.33051E-05,1.161,100
0.0783,-5.069047E-05,1.1745,46,0.0783,-3.726253E-05,1.1745,100
0.0792,0.0001225299,1.188,46,0.0792,-5.069047E-05,1.188,102
0.0801,-7.687495E-05,1.2015,45,0.0801,4.129091E-05,1.2015,102
0.081,-9.500267E-05,1.215,44,0.081,1.980621E-05,1.215,101
0.0819,-3.793393E-05,1.2285,45,0.0819,-7.721065E-06,1.2285,99
0.0828,-4.36408E-06,1.242,45,0.0828,-8.224613E-05,1.242,104
0.0837,-5.337606E-05,1.2555,45,0.0837,1.309224E-05,1.2555,99
0.0846,-0.0002084688,1.269,46,0.0846,2.719158E-05,1.269,102
0.0855,-5.706874E-05,1.2825,46,0.0855,-5.438316E-05,1.2825,103
0.0864,-4.565499E-05,1.296,46,0.0864,-5.404745E-05,1.296,102
0.0873,-0.0001366293,1.3095,46,0.0873,1.879912E-05,1.3095,103
0.0882,-2.819867E-05,1.323,45,0.0882,-1.980621E-05,1.323,101
0.0891,6.74754E-05,1.3365,45,0.0891,-0.0001027237,1.3365,102
0.09,-6.948959E-05,1.35,45,0.09,5.572595E-05,1.35,106
0.0909,5.941863E-05,1.3635,47,0.0909,2.853437E-05,1.3635,101
0.0918,0.0001426719,1.377,47,0.0918,-8.627451E-05,1.377,105
0.0927,7.150377E-05,1.3905,46,0.0927,-1.577783E-05,1.3905,100
0.0936,1.678492E-05,1.404,46,0.0936,3.155566E-05,1.404,99
0.09450001,-5.136187E-05,1.4175,46,0.09450001,-2.18204E-05,1.4175,101
0.09540001,-9.063859E-06,1.431,46,0.09540001,-3.256275E-05,1.431,101
0.09630001,4.934768E-05,1.4445,46,0.09630001,-8.72816E-05,1.4445,99
0.0972,8.358892E-05,1.458,46,0.0972,-2.349889E-06,1.458,100
0.0981,-0.0001379721,1.4715,47,0.0981,2.047761E-05,1.4715,102
0.099,-8.69459E-05,1.485,46,0.099,-5.203327E-05,1.485,98
0.0999,2.584878E-05,1.4985,46,0.0999,-5.874724E-05,1.4985,98
0.1008,-0.0001003738,1.512,46,0.1008,3.927672E-05,1.512,101
0.1017,-5.069047E-05,1.5255,45,0.1017,-4.699779E-06,1.5255,100
0.1026,0.0001305867,1.539,46,0.1026,-0.0001010452,1.539,101
0.1035,-6.71397E-05,1.5525,45,0.1035,1.242084E-05,1.5525,102
0.1044,-1.107805E-05,1.566,44,0.1044,8.728161E-06,1.566,103
0.1053,0.0001607996,1.5795,46,0.1053,-7.754635E-05,1.5795,103
0.1062,0.0001789273,1.593,46,0.1062,-2.987716E-05,1.593,104
0.1071,-4.36408E-06,1.6065,45,0.1071,3.189136E-05,1.6065,106
0.108,3.659113E-05,1.62,45,0.108,-6.713969E-07,1.62,103
0.1089,3.189136E-05,1.6335,43,0.1089,-3.591974E-05,1.6335,103
0.1098,-5.035477E-06,1.647,45,0.1098,-8.426032E-05,1.647,103
0.1107,-3.726253E-05,1.6605,44,0.1107,-9.735256E-06,1.6605,101
0.1116,-0.0001389792,1.674,44,0.1116,-5.035477E-05,1.674,100
0.1125,-0.0001171588,1.6875,45,0.1125,-0.0001027237,1.6875,105
0.1134,-3.356985E-07,1.701,44,0.1134,-9.768826E-05,1.701,102
0.1143,-6.210422E-05,1.7145,45,0.1143,1.779202E-05,1.7145,103
0.1152,-8.493171E-05,1.728,45,0.1152,-3.289845E-05,1.728,104
0.1161,7.351797E-05,1.7415,45,0.1161,-0.0001044022,1.7415,100
0.117,1.007095E-05,1.755,45,0.117,2.551309E-05,1.755,103
0.1179,2.383459E-05,1.7685,45,0.1179,1.309224E-05,1.7685,105
0.1188,7.452507E-05,1.782,43,0.1188,-7.586786E-05,1.782,103
0.1197,4.766919E-05,1.7955,45,0.1197,1.577783E-05,1.7955,102
0.1206,-4.028382E-06,1.809,43,0.1206,6.948959E-05,1.809,99
0.1215,-5.001907E-05,1.8225,43,0.1215,2.24918E-05,1.8225,102
0.1224,-3.356985E-07,1.836,44,0.1224,6.378271E-06,1.836,105
0.1233,9.231708E-05,1.8495,44,0.1233,-6.6804E-05,1.8495,106
0.1242,2.584878E-05,1.863,43,0.1242,5.706874E-06,1.863,102
0.1251,-5.740444E-05,1.8765,43,0.1251,5.035477E-06,1.8765,100
0.126,-2.081331E-05,1.89,43,0.126,-3.289845E-05,1.89,101
0.1269,3.054856E-05,1.9035,43,0.1269,-3.558404E-05,1.9035,103
0.1278,-6.881819E-05,1.917,44,0.1278,7.586786E-05,1.917,101
0.1287,-2.047761E-05,1.9305,43,0.1287,2.819867E-05,1.9305,104
0.1296,2.18204E-05,1.944,43,0.1296,-8.191043E-05,1.944,101
0.1305,-7.586786E-05,1.9575,43,0.1305,1.342794E-05,1.9575,104
0.1314,3.189136E-05,1.971,44,0.1314,-3.356985E-06,1.971,100
0.1323,0.0001876554,1.9845,45,0.1323,-8.560311E-05,1.9845,102
0.1332,7.217517E-05,1.998,43,0.1332,3.021286E-06,1.998,104
0.1341,-3.524834E-05,2.0115,43,0.1341,7.318227E-05,2.0115,100
0.135,-1.678492E-06,2.025,45,0.135,2.014191E-06,2.025,104
0.1359,-3.256275E-05,2.0385,43,0.1359,-5.706874E-06,2.0385,101
0.1368,4.968337E-05,2.052,43,0.1368,-6.277562E-05,2.052,104
0.1377,3.927672E-05,2.0655,43,0.1377,3.054856E-05,2.0655,103
0.1386,-0.0002373388,2.079,43,0.1386,2.081331E-05,2.079,105
0.1395,-0.0001319295,2.0925,43,0.1395,-4.632639E-05,2.0925,103
0.1404,4.162661E-05,2.106,43,0.1404,-6.076142E-05,2.106,101
0.1413,-0.0001514,2.1195,42,0.1413,2.920577E-05,2.1195,101
0.1422,-8.493171E-05,2.133,42,0.1422,-3.054856E-05,2.133,101
0.1431,0.000144686,2.1465,43,0.1431,-0.000102388,2.1465,101
0.144,-4.061952E-05,2.16,42,0.144,1.376364E-05,2.16,100
0.1449,1.309224E-05,2.1735,43,0.1449,-7.049668E-06,2.1735,104
0.1458,0.0001178302,2.187,42,0.1458,-0.0001087663,2.187,102
0.1467,-7.083238E-05,2.2005,43,0.1467,-3.424125E-05,2.2005,100
0.1476,-0.0001722133,2.214,41,0.1476,1.812772E-05,2.214,101
0.1485,-8.023193E-05,2.2275,42,0.1485,-1.510643E-05,2.2275,103
0.1494,4.36408E-06,2.241,42,0.1494,-1.678492E-06,2.241,102
0.1503,2.450599E-05,2.2545,42,0.1503,-3.121996E-05,2.2545,101
0.1512,6.6804E-05,2.268,42,0.1512,2.28275E-05,2.268,100
0.1521,8.224613E-05,2.2815,43,0.1521,1.611353E-05,2.2815,102
0.153,4.800488E-05,2.295,42,0.153,-2.786297E-05,2.295,100
0.1539,8.86244E-05,2.3085,43,0.1539,-5.069047E-05,2.3085,106
0.1548,1.107805E-05,2.322,42,0.1548,4.699779E-05,2.322,98
0.1557,8.728161E-06,2.3355,40,0.1557,-1.712062E-05,2.3355,104
0.1566,4.46479E-05,2.349,43,0.1566,-0.0001067521,2.349,106
0.1575,-3.222705E-05,2.3625,43,0.1575,5.706874E-06,2.3625,101
0.1584,-2.28275E-05,2.376,42,0.1584,2.047761E-05,2.376,99
0.1593,-1.913481E-05,2.3895,43,0.1593,-9.500267E-05,2.3895,101
0.1602,-0.0001010452,2.403,41,0.1602,-1.409934E-05,2.403,107
0.1611,-0.0001393149,2.4165,41,0.1611,1.443504E-05,2.4165,106
0.162,-7.016098E-05,2.43,41,0.162,-1.510643E-05,2.43,103
0.1629,5.706874E-06,2.4435,42,0.1629,-4.061952E-05,2.4435,104
0.1638,5.270466E-05,2.457,42,0.1638,-6.814679E-05,2.457,101
0.1647,-1.007095E-06,2.4705,41,0.1647,1.510643E-05,2.4705,107
0.1656,-7.888914E-05,2.484,39,0.1656,-1.174945E-05,2.484,102
0.1665,-6.74754E-05,2.4975,41,0.1665,-6.344701E-05,2.4975,105
0.1674,6.042573E-05,2.511,40,0.1674,-7.083238E-05,2.511,103
0.1683,-8.72816E-05,2.5245,40,0.1683,3.323415E-05,2.5245,105
0.1692,-4.666209E-05,2.538,40,0.1692,-2.853437E-05,2.538,99
0.1701,0.000109102,2.5515,41,0.1701,-0.0001104448,2.5515,106
0.171,-3.356985E-07,2.565,41,0.171,-9.063859E-06,2.565,105
0.1719,3.457694E-05,2.5785,41,0.1719,-1.443504E-05,2.5785,103
0.1728,6.344701E-05,2.592,41,0.1728,-9.365987E-05,2.592,103
0.1737,8.023193E-05,2.6055,40,0.1737,-4.733349E-05,2.6055,102
0.1746,-1.040665E-05,2.619,41,0.1746,1.409934E-05,2.619,101
0.1755,2.349889E-05,2.6325,39,0.1755,-3.927672E-05,2.6325,104
0.1764,-4.867628E-05,2.646,41,0.1764,-3.491264E-05,2.646,103
0.1773,5.069047E-05,2.6595,40,0.1773,-9.231708E-05,2.6595,105
0.1782,9.298848E-05,2.673,41,0.1782,-1.107805E-05,2.673,107
0.1791,-7.016098E-05,2.6865,40,0.1791,1.040665E-05,2.6865,105
0.18,-4.43122E-05,2.7,40,0.18,-7.620356E-05,2.7,103
0.1809,8.69459E-05,2.7135,40,0.1809,-6.915389E-05,2.7135,105
0.1818,-7.116808E-05,2.727,40,0.1818,5.069047E-05,2.727,107
0.1827,-8.72816E-05,2.7405,40,0.1827,3.356985E-06,2.7405,103
0.1836,6.344701E-05,2.754,40,0.1836,-9.433127E-05,2.754,104
0.1845,-3.189136E-05,2.7675,41,0.1845,3.659113E-05,2.7675,102
0.1854,-0.0001802701,2.781,40,0.1854,6.78111E-05,2.781,105
0.1863,-5.404745E-05,2.7945,39,0.1863,-3.659113E-05,2.7945,105
0.1872,7.553216E-05,2.808,41,0.1872,-3.256275E-05,2.808,105
0.1881,-6.210422E-05,2.8215,38,0.1881,4.061952E-05,2.8215,106
0.189,-4.39765E-05,2.835,38,0.189,1.712062E-05,2.835,107
0.1899,3.356985E-05,2.8485,40,0.1899,4.699779E-06,2.8485,105
0.1908,5.572595E-05,2.862,40,0.1908,-3.994812E-05,2.862,108
0.1917,-1.846342E-05,2.8755,41,0.1917,4.36408E-05,2.8755,102
0.1926,-5.505455E-05,2.889,40,0.1926,4.29694E-05,2.889,102
0.1935,-1.678492E-06,2.9025,39,0.1935,-1.174945E-05,2.9025,106
0.1944,2.28275E-05,2.916,39,0.1944,-1.510643E-05,2.916,106
0.1953,-6.277562E-05,2.9295,39,0.1953,5.740444E-05,2.9295,103
0.1962,-5.841154E-05,2.943,39,0.1962,1.913481E-05,2.943,103
0.1971,7.049668E-05,2.9565,39,0.1971,-6.74754E-05,2.9565,102
0.198,4.599069E-05,2.97,41,0.198,7.687495E-05,2.97,103
0.1989,-0.0001319295,2.9835,40,0.1989,4.599069E-05,2.9835,105
0.1998,-7.049668E-05,2.997,39,0.1998,-7.687495E-05,2.997,103
0.2007,0.0001080949,3.0105,0,0.2007,-1.309224E-05,3.0105,0
0.2016,-4.061952E-05,3.024,0,0.2016,4.666209E-05,3.024,0
0.2025,-4.162661E-05,3.0375,0,0.2025,-4.699779E-06,3.0375,0
0.2034,-8.392462E-06,3.051,0,0.2034,-2.853437E-05,3.051,0
0.2043,8.96315E-05,3.0645,0,0.2043,-7.989624E-05,3.0645,0
0.2052,-3.860533E-05,3.078,0,0.2052,1.409934E-05,3.078,0
0.2061,-7.586786E-05,3.0915,0,0.2061,8.056763E-06,3.0915,0
0.207,7.217517E-05,3.105,0,0.207,-6.009003E-05,3.105,0
0.2079,2.28275E-05,3.1185,0,0.2079,-5.069047E-05,3.1185,0
0.2088,-0.0001030594,3.132,0,0.2088,4.33051E-05,3.132,0
0.2097,-1.376364E-05,3.1455,0,0.2097,2.383459E-05,3.1455,0
0.2106,0.0001017166,3.159,0,0.2106,-0.0001084306,3.159,0
0.2115,-8.157473E-05,3.1725,0,0.2115,2.685588E-06,3.1725,0
0.2124,-4.263371E-05,3.186,0,0.2124,2.484169E-05,3.186,0
0.2133,5.069047E-05,3.1995,0,0.2133,-8.291753E-05,3.1995,0
0.2142,3.491264E-05,3.213,0,0.2142,-5.438316E-05,3.213,0
0.2151,-6.176852E-05,3.2265,0,0.2151,1.007095E-05,3.2265,0
0.216,4.53193E-05,3.24,0,0.216,-4.867628E-05,3.24,0
0.2169,-1.342794E-06,3.2535,0,0.2169,-4.666209E-05,3.2535,0
0.2178,3.457694E-05,3.267,0,0.2178,-8.090334E-05,3.267,0
0.2187,2.685588E-05,3.2805,0,0.2187,-1.040665E-05,3.2805,0
0.2196,-4.901198E-05,3.294,0,0.2196,-3.591974E-05,3.294,0
0.2205,-1.913481E-05,3.3075,0,0.2205,-8.560311E-05,3.3075,0
0.2214,5.001907E-05,3.321,0,0.2214,-7.620356E-05,3.321,0
0.2223,-8.090334E-05,3.3345,0,0.2223,2.887007E-05,3.3345,0
0.2232,-6.076142E-05,3.348,0,0.2232,-3.155566E-05,3.348,0
0.2241,0.0001591211,3.3615,0,0.2241,-0.0001185016,3.3615,0
0.225,-3.994812E-05,3.375,0,0.225,2.24918E-05,3.375,0
0.2259,-8.627451E-05,3.3885,0,0.2259,1.779202E-05,3.3885,0
0.2268,4.599069E-05,3.402,0,0.2268,-6.814679E-05,3.402,0
0.2277,7.183947E-05,3.4155,0,0.2277,-9.063859E-06,3.4155,0
0.2286,-6.076142E-05,3.429,0,0.2286,5.169757E-05,3.429,0
0.2295,-7.251087E-05,3.4425,0,0.2295,7.049668E-06,3.4425,0
0.2304,-1.409934E-05,3.456,0,0.2304,-1.846342E-05,3.456,0
0.2313,1.712062E-05,3.4695,0,0.2313,-8.82887E-05,3.4695,0
0.2322,-2.719158E-05,3.483,0,0.2322,3.692683E-06,3.483,0
0.2331,1.678492E-06,3.4965,0,0.2331,-2.786297E-05,3.4965,0
0.234,1.342794E-06,3.51,0,0.234,-6.478981E-05,3.51,0
0.2349,3.457694E-05,3.5235,0,0.2349,-6.74754E-05,3.5235,0
0.2358,1.779202E-05,3.537,0,0.2358,3.356985E-05,3.537,0
0.2367,-2.014191E-05,3.5505,0,0.2367,1.309224E-05,3.5505,0
0.2376,3.659113E-05,3.564,0,0.2376,-8.89601E-05,3.564,0
0.2385,-3.121996E-05,3.5775,0,0.2385,3.356985E-05,3.5775,0
0.2394,-7.351797E-05,3.591,0,0.2394,6.51255E-05,3.591,0
0.2403,-0.000102388,3.6045,0,0.2403,-3.054856E-05,3.6045,0
0.2412,-2.21561E-05,3.618,0,0.2412,-2.047761E-05,3.618,0
0.2421,-2.786297E-05,3.6315,0,0.2421,6.57969E-05,3.6315,0
0.243,-7.418937E-05,3.645,0,0.243,1.644922E-05,3.645,0
0.2439,-3.323415E-05,3.6585,0,0.2439,-9.063859E-06,3.6585,0
0.2448,8.426032E-05,3.672,0,0.2448,-5.572595E-05,3.672,0
0.2457,5.706874E-05,3.6855,0,0.2457,5.337606E-05,3.6855,0
0.2466,3.860533E-05,3.699,0,0.2466,5.606165E-05,3.699,0
0.2475,6.74754E-05,3.7125,0,0.2475,6.713969E-07,3.7125,0
0.2484,6.51255E-05,3.726,0,0.2484,-2.920577E-05,3.726,0
0.2493,-3.659113E-05,3.7395,0,0.2493,4.800488E-05,3.7395,0
0.2502,-1.577783E-05,3.753,0,0.2502,1.678492E-06,3.753,0
0.2511,0.0001742275,3.7665,0,0.2511,-0.0001097734,3.7665,0
0.252,-1.208515E-05,3.78,0,0.252,2.383459E-05,3.78,0
0.2529,-8.123904E-05,3.7935,0,0.2529,6.042573E-06,3.7935,0
0.2538,4.43122E-05,3.807,0,0.2538,-0.0001164874,3.807,0
0.2547,0.0001151446,3.8205,0,0.2547,-5.404745E-05,3.8205,0
0.2556,-8.392462E-05,3.834,0,0.2556,8.392462E-06,3.834,0
0.2565,-2.652018E-05,3.8475,0,0.2565,-1.980621E-05,3.8475,0
0.2574,-2.047761E-05,3.861,0,0.2574,-1.812772E-05,3.861,0
0.2583,2.920577E-05,3.8745,0,0.2583,-8.96315E-05,3.8745,0
0.2592,5.337606E-05,3.888,0,0.2592,-2.081331E-05,3.888,0
0.2601,-0.0002135042,3.9015,0,0.2601,-1.007095E-06,3.9015,0
0.261,-9.567407E-05,3.915,0,0.261,-4.33051E-05,3.915,0
0.2619,2.18204E-05,3.9285,0,0.2619,-5.404745E-05,3.9285,0
0.2628,-6.344701E-05,3.942,0,0.2628,3.390555E-05,3.942,0
0.2637,-8.224613E-05,3.9555,0,0.2637,2.047761E-05,3.9555,0
0.2646,2.853437E-05,3.969,0,0.2646,-9.164568E-05,3.969,0
0.2655,-3.726253E-05,3.9825,0,0.2655,2.652018E-05,3.9825,0
0.2664,-2.652018E-05,3.996,0,0.2664,2.752728E-05,3.996,0
0.2673,3.726253E-05,4.0095,0,0.2673,-6.64683E-05,4.0095,0
0.2682,0.0001607996,4.023,0,0.2682,8.728161E-06,4.023,0
0.2691,-4.867628E-05,4.0365,0,0.2691,7.217517E-05,4.0365,0
0.27,3.692683E-06,4.05,0,0.27,3.759823E-05,4.05,0
0.2709,0.0001017166,4.0635,0,0.2709,-1.409934E-05,4.0635,0
0.2718,7.083238E-05,4.077,0,0.2718,-7.956054E-05,4.077,0
0.2727,0,4.0905,0,0.2727,2.652018E-05,4.0905,0
0.2736,-0.0001309224,4.104,0,0.2736,5.035477E-06,4.104,0
0.2745,-4.666209E-05,4.1175,0,0.2745,-5.673304E-05,4.1175,0
0.2754,-2.819867E-05,4.131,0,0.2754,-6.009003E-05,4.131,0
0.2763,-8.157473E-05,4.1445,0,0.2763,9.735256E-06,4.1445,0
0.2772,-2.685588E-06,4.158,0,0.2772,-4.39765E-05,4.158,0
0.2781,2.887007E-05,4.1715,0,0.2781,-0.0001228656,4.1715,0
0.279,-4.229801E-05,4.185,0,0.279,-2.517739E-05,4.185,0
0.2799,5.572595E-05,4.1985,0,0.2799,-2.652018E-05,4.1985,0
0.2808,4.632639E-05,4.212,0,0.2808,-0.0001232013,4.212,0
0.2817,0.0001383078,4.2255,0,0.2817,-4.599069E-05,4.2255,0
0.2826,-1.309224E-05,4.239,0,0.2826,-1.678492E-06,4.239,0
0.2835,-2.719158E-05,4.2525,0,0.2835,-2.719158E-05,4.2525,0
0.2844,-3.021286E-06,4.266,0,0.2844,-1.510643E-05,4.266,0
0.2853,4.867628E-05,4.2795,0,0.2853,-7.217517E-05,4.2795,0
0.2862,4.800488E-05,4.293,0,0.2862,1.779202E-05,4.293,0
0.2871,-0.0001003738,4.3065,0,0.2871,1.913481E-05,4.3065,0
0.288,-2.316319E-05,4.32,0,0.288,-3.289845E-05,4.32,0
0.2889,5.337606E-05,4.3335,0,0.2889,-6.277562E-05,4.3335,0
0.2898,-9.835965E-05,4.347,0,0.2898,4.934768E-05,4.347,0
0.2907,-6.109713E-05,4.3605,0,0.2907,-3.692683E-06,4.3605,0
0.2916,8.224613E-05,4.374,0,0.2916,-8.224613E-05,4.374,0
0.2925,-5.539025E-05,4.3875,0,0.2925,4.46479E-05,4.3875,0
0.2934,-6.009003E-05,4.401,0,0.2934,7.083238E-05,4.401,0
0.2943,9.768826E-05,4.4145,0,0.2943,-3.860533E-05,4.4145,0
0.2952,-1.007095E-06,4.428,0,0.2952,-3.356985E-05,4.428,0
0.2961,-8.224613E-05,4.4415,0,0.2961,4.36408E-05,4.4415,0
0.297,-3.088426E-05,4.455,0,0.297,-9.399558E-06,4.455,0
0.2979,4.095522E-05,4.4685,0,0.2979,-2.484169E-05,4.4685,0
0.2988,2.920577E-05,4.482,0,0.2988,-7.284657E-05,4.482,0
0.2997,-2.450599E-05,4.4955,0,0.2997,1.208515E-05,4.4955,0
0.3006,-0.0001604639,4.509,0,0.3006,1.040665E-05,4.509,0
0.3015,-0.0001097734,4.5225,0,0.3015,-4.46479E-05,4.5225,0
0.3024,-1.275654E-05,4.536,0,0.3024,-5.941863E-05,4.536,0
0.3033,-7.956054E-05,4.5495,0,0.3033,1.309224E-05,4.5495,0
0.3042,-0.0001285725,4.563,0,0.3042,-3.524834E-05,4.563,0
0.3051,6.042573E-05,4.5765,0,0.3051,-0.0001211871,4.5765,0
0.306,3.994812E-05,4.59,0,0.306,1.846342E-05,4.59,0
0.3069,3.625543E-05,4.6035,0,0.3069,-5.706874E-06,4.6035,0
0.3078,9.030289E-05,4.617,0,0.3078,-0.0001013809,4.617,0
0.3087,-6.713969E-07,4.6305,0,0.3087,2.349889E-06,4.6305,0
0.3096,-0.0001010452,4.644,0,0.3096,5.841154E-05,4.644,0
0.3105,-0.0001000381,4.6575,0,0.3105,-3.356985E-07,4.6575,0
0.3114,-2.014191E-05,4.671,0,0.3114,-5.706874E-06,4.671,0
0.3123,4.028382E-05,4.6845,0,0.3123,-6.881819E-05,4.6845,0
0.3132,-1.846342E-05,4.698,0,0.3132,1.510643E-05,4.698,0
0.3141,-5.807584E-05,4.7115,0,0.3141,1.174945E-05,4.7115,0
0.315,1.376364E-05,4.725,0,0.315,-6.076142E-05,4.725,0
0.3159,3.558404E-05,4.7385,0,0.3159,-6.378271E-05,4.7385,0
0.3168,-4.196231E-05,4.752,0,0.3168,3.155566E-05,4.752,0
0.3177,-1.107805E-05,4.7655,0,0.3177,3.356985E-07,4.7655,0
0.3186,0.0001087663,4.779,0,0.3186,-0.0001037308,4.779,0
0.3195,1.577783E-05,4.7925,0,0.3195,1.309224E-05,4.7925,0
0.3204,3.625543E-05,4.806,0,0.3204,3.726253E-05,4.806,0
0.3213,9.433127E-05,4.8195,0,0.3213,-6.881819E-05,4.8195,0
0.3222,0.0001151446,4.833,0,0.3222,-1.846342E-05,4.833,0
0.3231,-2.349889E-06,4.8465,0,0.3231,4.36408E-05,4.8465,0
0.324,2.719158E-05,4.86,0,0.324,-5.035477E-06,4.86,0
0.3249,2.584878E-05,4.8735,0,0.3249,-1.376364E-05,4.8735,0
0.3258,6.848249E-05,4.887,0,0.3258,-4.46479E-05,4.887,0
0.3267,0,4.9005,0,0.3267,1.980621E-05,4.9005,0
0.3276,-7.721065E-05,4.914,0,0.3276,1.678492E-05,4.914,0
0.3285,5.304036E-05,4.9275,0,0.3285,-4.867628E-05,4.9275,0
0.3294,6.210422E-05,4.941,0,0.3294,-4.49836E-05,4.941,0
0.3303,-0.0001070878,4.9545,0,0.3303,4.599069E-05,4.9545,0
0.3312,-6.61326E-05,4.968,0,0.3312,-3.356985E-06,4.968,0
0.3321,7.217517E-05,4.9815,0,0.3321,-9.198138E-05,4.9815,0
0.333,-4.36408E-05,4.995,0,0.333,4.36408E-05,4.995,0
0.3339,-0.0001493858,5.0085,0,0.3339,4.263371E-05,5.0085,0
0.3348,1.007095E-06,5.022,0,0.3348,-6.109713E-05,5.022,0
0.3357,0.0001010452,5.0355,0,0.3357,-2.417029E-05,5.0355,0
0.3366,-6.74754E-05,5.049,0,0.3366,1.980621E-05,5.049,0
0.3375,5.035477E-06,5.0625,0,0.3375,-9.735256E-06,5.0625,0
0.3384,4.699779E-06,5.076,0,0.3384,-3.860533E-05,5.076,0
0.3393,-1.678492E-05,5.0895,0,0.3393,-9.063859E-05,5.0895,0
0.3402,-2.517739E-05,5.103,0,0.3402,-4.699779E-06,5.103,0
0.3411,-4.33051E-05,5.1165,0,0.3411,-6.042573E-06,5.1165,0
0.342,-4.766919E-05,5.13,0,0.342,-8.358892E-05,5.13,0
0.3429,5.270466E-05,5.1435,0,0.3429,-9.735256E-05,5.1435,0
0.3438,-7.385367E-05,5.157,0,0.3438,2.1149E-05,5.157,0
0.3447,-6.74754E-05,5.1705,0,0.3447,-3.692683E-06,5.1705,0
0.3456,7.183947E-05,5.184,0,0.3456,-0.0001134661,5.184,0
0.3465,-4.699779E-06,5.1975,0,0.3465,1.242084E-05,5.1975,0
0.3474,-0.0001117876,5.211,0,0.3474,2.21561E-05,5.211,0
0.3483,-8.325322E-05,5.2245,0,0.3483,-6.948959E-05,5.2245,0
0.3492,7.016098E-05,5.238,0,0.3492,-2.752728E-05,5.238,0
0.3501,-2.786297E-05,5.2515,0,0.3501,4.263371E-05,5.2515,0
0.351,-8.157473E-05,5.265,0,0.351,-1.409934E-05,5.265,0
0.3519,-2.349889E-05,5.2785,0,0.3519,-3.424125E-05,5.2785,0
0.3528,3.021286E-05,5.292,0,0.3528,-7.083238E-05,5.292,0
0.3537,-5.035477E-06,5.3055,0,0.3537,3.793393E-05,5.3055,0
0.3546,-0.0001225299,5.319,0,0.3546,2.652018E-05,5.319,0
0.3555,-8.392462E-05,5.3325,0,0.3555,-3.994812E-05,5.3325,0
0.3564,-1.712062E-05,5.346,0,0.3564,-2.584878E-05,5.346,0
0.3573,-8.258183E-05,5.3595,0,0.3573,7.016098E-05,5.3595,0
0.3582,-4.867628E-05,5.373,0,0.3582,1.040665E-05,5.373,0
0.3591,8.560311E-05,5.3865,0,0.3591,-7.284657E-05,5.3865,0
0.36,-6.814679E-05,5.4,0,0.36,5.874724E-05,5.4,0
0.3609,2.24918E-05,5.4135,0,0.3609,7.217517E-05,5.4135,0
0.3618,6.277562E-05,5.427,0,0.3618,-1.947051E-05,5.427,0
0.3627,3.927672E-05,5.4405,0,0.3627,-2.316319E-05,5.4405,0
0.3636,2.349889E-06,5.454,0,0.3636,3.390555E-05,5.454,0
0.3645,-3.356985E-07,5.4675,0,0.3645,-1.107805E-05,5.4675,0
0.3654,-1.577783E-05,5.481,0,0.3654,-1.443504E-05,5.481,0
0.3663,5.874724E-05,5.4945,0,0.3663,-8.157473E-05,5.4945,0
0.3672,8.023193E-05,5.508,0,0.3672,2.920577E-05,5.508,0
0.3681,2.383459E-05,5.5215,0,0.3681,3.121996E-05,5.5215,0
0.369,1.510643E-05,5.535,0,0.369,-4.028382E-05,5.535,0
0.3699,0.0001413291,5.5485,0,0.3699,-5.539025E-05,5.5485,0
0.3708,-6.378271E-05,5.562,0,0.3708,3.894102E-05,5.562,0
0.3717,-2.786297E-05,5.5755,0,0.3717,-3.021286E-06,5.5755,0
0.3726,0.0001896696,5.589,0,0.3726,-0.0001000381,5.589,0
0.3735,-1.879912E-05,5.6025,0,0.3735,1.712062E-05,5.6025,0
0.3744,-0.0001507286,5.616,0,0.3744,1.947051E-05,5.616,0
0.3753,-2.316319E-05,5.6295,0,0.3753,-8.996719E-05,5.6295,0
0.3762,8.92958E-05,5.643,0,0.3762,-4.46479E-05,5.643,0
0.3771,-0.0001007095,5.6565,0,0.3771,2.652018E-05,5.6565,0
0.378,-2.417029E-05,5.67,0,0.378,-3.356985E-07,5.67,0
0.3789,4.36408E-06,5.6835,0,0.3789,-3.457694E-05,5.6835,0
0.3798,4.565499E-05,5.697,0,0.3798,-8.795301E-05,5.697,0
0.3807,9.063859E-06,5.7105,0,0.3807,1.611353E-05,5.7105,0
0.3816,-9.903105E-05,5.724,0,0.3816,-1.342794E-06,5.724,0
0.3825,-0.0001030594,5.7375,0,0.3825,-6.042573E-05,5.7375,0
0.3834,-2.920577E-05,5.751,0,0.3834,-5.874724E-05,5.751,0
0.3843,-8.224613E-05,5.7645,0,0.3843,9.063859E-06,5.7645,0
0.3852,-5.035477E-05,5.778,0,0.3852,-1.376364E-05,5.778,0
0.3861,3.491264E-05,5.7915,0,0.3861,-0.0001047379,5.7915,0
0.387,-4.33051E-05,5.805,0,0.387,1.309224E-05,5.805,0
0.3879,-3.793393E-05,5.8185,0,0.3879,-4.699779E-06,5.8185,0
0.3888,4.39765E-05,5.832,0,0.3888,-0.0001077592,5.832,0
0.3897,0.0002165255,5.8455,0,0.3897,-7.385367E-06,5.8455,0
0.3906,-1.644922E-05,5.859,0,0.3906,2.349889E-06,5.859,0
0.3915,-2.18204E-05,5.8725,0,0.3915,-4.36408E-05,5.8725,0
0.3924,3.457694E-05,5.886,0,0.3924,-2.517739E-05,5.886,0
0.3933,7.486076E-05,5.8995,0,0.3933,-0.0001030594,5.8995,0
0.3942,1.678492E-06,5.913,0,0.3942,-3.424125E-05,5.913,0
0.3951,-0.0002088045,5.9265,0,0.3951,-4.061952E-05,5.9265,0
0.396,-6.344701E-05,5.94,0,0.396,-9.433127E-05,5.94,0
0.3969,-2.014191E-06,5.9535,0,0.3969,-0.000102388,5.9535,0
0.3978,-0.0001010452,5.967,0,0.3978,7.721065E-06,5.967,0
0.3987,4.229801E-05,5.9805,0,0.3987,-3.659113E-05,5.9805,0
0.3996,0.0001195087,5.994,0,0.3996,-0.0001205158,5.994,0
0.4005,-2.349889E-05,6.0075,0,0.4005,7.721065E-06,6.0075,0
0.4014,5.069047E-05,6.021,0,0.4014,4.666209E-05,6.021,0
0.4023,5.606165E-05,6.0345,0,0.4023,-6.344701E-05,6.0345,0
0.4032,-1.510643E-05,6.048,0,0.4032,-1.107805E-05,6.048,0
0.4041,-8.627451E-05,6.0615,0,0.4041,4.733349E-05,6.0615,0
0.405,1.275654E-05,6.075,0,0.405,2.014191E-06,6.075,0
0.4059,-6.311131E-05,6.0885,0,0.4059,-2.685588E-06,6.0885,0
0.4068,8.728161E-06,6.102,0,0.4068,-6.277562E-05,6.102,0
0.4077,0.0001094377,6.1155,0,0.4077,3.659113E-05,6.1155,0
0.4086,-7.620356E-05,6.129,0,0.4086,9.735256E-06,6.129,0
0.4095,-4.263371E-05,6.1425,0,0.4095,-3.994812E-05,6.1425,0
0.4104,9.835965E-05,6.156,0,0.4104,-5.438316E-05,6.156,0
0.4113,-4.028382E-05,6.1695,0,0.4113,3.726253E-05,6.1695,0
0.4122,-5.539025E-05,6.183,0,0.4122,-1.107805E-05,6.183,0
0.4131,0.0001044022,6.1965,0,0.4131,-8.69459E-05,6.1965,0
0.414,-5.438316E-05,6.21,0,0.414,4.565499E-05,6.21,0
0.4149,4.666209E-05,6.2235,0,0.4149,3.961242E-05,6.2235,0
0.4158,0.000148043,6.237,0,0.4158,-7.016098E-05,6.237,0
0.4167,0.0001550927,6.2505,0,0.4167,1.879912E-05,6.2505,0
0.4176,-3.994812E-05,6.264,0,0.4176,6.411841E-05,6.264,0
0.4185,8.728161E-06,6.2775,0,0.4185,1.309224E-05,6.2775,0
0.4194,5.035477E-05,6.291,0,0.4194,-1.712062E-05,6.291,0
0.4203,5.001907E-05,6.3045,0,0.4203,-7.989624E-05,6.3045,0
0.4212,-3.927672E-05,6.318,0,0.4212,3.356985E-06,6.318,0
0.4221,-0.0001926909,6.3315,0,0.4221,-2.081331E-05,6.3315,0
0.423,-0.0001299153,6.345,0,0.423,-7.754635E-05,6.345,0
0.4239,-3.289845E-05,6.3585,0,0.4239,-7.183947E-05,6.3585,0
0.4248,-4.39765E-05,6.372,0,0.4248,2.786297E-05,6.372,0
0.4257,-9.097429E-05,6.3855,0,0.4257,-1.040665E-05,6.3855,0
0.4266,4.229801E-05,6.399,0,0.4266,-0.0001084306,6.399,0
0.4275,-5.975433E-05,6.4125,0,0.4275,3.256275E-05,6.4125,0
0.4284,5.136187E-05,6.426,0,0.4284,3.793393E-05,6.426,0
0.4293,9.735256E-05,6.4395,0,0.4293,-7.687495E-05,6.4395,0
0.4302,-9.399557E-05,6.453,0,0.4302,-3.894102E-05,6.453,0
0.4311,-0.0001245441,6.4665,0,0.4311,2.1149E-05,6.4665,0
0.432,-0.0001017166,6.48,0,0.432,-4.028382E-06,6.48,0
0.4329,-5.874724E-05,6.4935,0,0.4329,-1.477073E-05,6.4935,0
0.4338,9.936675E-05,6.507,0,0.4338,-3.189136E-05,6.507,0
0.4347,2.719158E-05,6.5205,0,0.4347,1.779202E-05,6.5205,0
0.4356,-6.210422E-05,6.534,0,0.4356,2.1149E-05,6.534,0
0.4365,3.054856E-05,6.5475,0,0.4365,-6.210422E-05,6.5475,0
0.4374,3.289845E-05,6.561,0,0.4374,-6.78111E-05,6.561,0
0.4383,-9.433127E-05,6.5745,0,0.4383,3.826963E-05,6.5745,0
0.4392,-3.356985E-07,6.588,0,0.4392,-6.042573E-06,6.588,0
0.4401,0.000126894,6.6015,0,0.4401,-8.761731E-05,6.6015,0
0.441,-8.258183E-05,6.615,0,0.441,6.478981E-05,6.615,0
0.4419,4.968337E-05,6.6285,0,0.4419,4.867628E-05,6.6285,0
0.4428,0.0001963836,6.642,0,0.4428,-3.457694E-05,6.642,0
0.4437,3.356985E-05,6.6555,0,0.4437,2.652018E-05,6.6555,0
0.4446,-5.069047E-05,6.669,0,0.4446,5.539025E-05,6.669,0
0.4455,2.349889E-05,6.6825,0,0.4455,3.659113E-05,6.6825,0
0.4464,-1.678492E-05,6.696,0,0.4464,1.779202E-05,6.696,0
0.4473,3.021286E-06,6.7095,0,0.4473,-4.733349E-05,6.7095,0
0.4482,-2.014191E-05,6.723,0,0.4482,2.316319E-05,6.723,0
0.4491,-0.000119173,6.7365,0,0.4491,3.793393E-05,6.7365,0
0.45,-3.323415E-05,6.75,0,0.45,-2.987716E-05,6.75,0
0.4509,2.987716E-05,6.7635,0,0.4509,-6.344701E-05,6.7635,0
0.4518,-1.544213E-05,6.777,0,0.4518,3.356985E-05,6.777,0
0.4527,-7.486076E-05,6.7905,0,0.4527,-9.399558E-06,6.7905,0
0.4536,9.634547E-05,6.804,0,0.4536,-0.0001299153,6.804,0
0.4545,-3.021286E-06,6.8175,0,0.4545,-8.392462E-06,6.8175,0
0.4554,-0.0001258869,6.831,0,0.4554,-3.356985E-06,6.831,0
0.4563,-7.150377E-05,6.8445,0,0.4563,-0.0001087663,6.8445,0
0.4572,-3.021286E-05,6.858,0,0.4572,-6.109713E-05,6.858,0
0.4581,-0.0001386435,6.8715,0,0.4581,-3.692683E-06,6.8715,0
0.459,-7.553216E-05,6.885,0,0.459,-4.061952E-05,6.885,0
0.4599,-3.356985E-06,6.8985,0,0.4599,-3.524834E-05,6.8985,0
0.4608,-3.054856E-05,6.912,0,0.4608,-8.627451E-05,6.912,0
0.4617,1.242084E-05,6.9255,0,0.4617,5.035477E-06,6.9255,0
0.4626,6.344701E-05,6.939,0,0.4626,-3.356985E-06,6.939,0
0.4635,8.258183E-05,6.9525,0,0.4635,-5.337606E-05,6.9525,0
0.4644,0.0001178302,6.966,0,0.4644,-2.517739E-05,6.966,0
0.4653,1.275654E-05,6.9795,0,0.4653,5.236896E-05,6.9795,0
0.4662,2.349889E-06,6.993,0,0.4662,9.063859E-06,6.993,0
0.4671,8.023193E-05,7.0065,0,0.4671,-7.016098E-05,7.0065,0
0.468,-2.349889E-06,7.02,0,0.468,6.143282E-05,7.02,0
0.4689,-5.035477E-05,7.0335,0,0.4689,6.848249E-05,7.0335,0
0.4698,-8.69459E-05,7.047,0,0.4698,-4.229801E-05,7.047,0
0.4707,8.358892E-05,7.0605,0,0.4707,-3.021286E-06,7.0605,0
0.4716,-1.913481E-05,7.074,0,0.4716,5.337606E-05,7.074,0
0.4725,-6.277562E-05,7.0875,0,0.4725,-1.107805E-05,7.0875,0
0.4734,-1.242084E-05,7.101,0,0.4734,-3.356985E-06,7.101,0
0.4743,3.726253E-05,7.1145,0,0.4743,-7.956054E-05,7.1145,0
0.4752,-3.054856E-05,7.128,0,0.4752,-6.713969E-07,7.128,0
0.4761,-0.0001708705,7.1415,0,0.4761,4.699779E-06,7.1415,0
0.477,-8.291753E-05,7.155,0,0.477,-6.54612E-05,7.155,0
0.4779,4.39765E-05,7.1685,0,0.4779,-8.258183E-05,7.1685,0
0.4788,-0.0001376364,7.182,0,0.4788,-1.007095E-06,7.182,0
0.4797,-6.143282E-05,7.1955,0,0.4797,-2.14847E-05,7.1955,0
0.4806,0.0001453574,7.209,0,0.4806,-0.0001201801,7.209,0
0.4815,-3.323415E-05,7.2225,0,0.4815,3.121996E-05,7.2225,0
0.4824,9.063859E-06,7.236,0,0.4824,-3.021286E-06,7.236,0
0.4833,4.699779E-05,7.2495,0,0.4833,-0.0001077592,7.2495,0
0.4842,5.706874E-06,7.263,0,0.4842,-2.719158E-05,7.263,0
0.4851,-5.606165E-05,7.2765,0,0.4851,4.263371E-05,7.2765,0
0.486,-1.174945E-05,7.29,0,0.486,-1.443504E-05,7.29,0
0.4869,-7.016098E-05,7.3035,0,0.4869,-2.920577E-05,7.3035,0
0.4878,2.652018E-05,7.317,0,0.4878,-7.821774E-05,7.317,0
0.4887,4.800488E-05,7.3305,0,0.4887,1.947051E-05,7.3305,0
0.4896,0.0001285725,7.344,0,0.4896,-1.409934E-05,7.344,0
0.4905,5.740444E-05,7.3575,0,0.4905,-5.740444E-05,7.3575,0
0.4914,7.553216E-05,7.371,0,0.4914,-5.539025E-05,7.371,0
0.4923,2.349889E-06,7.3845,0,0.4923,4.800488E-05,7.3845,0
0.4932,3.356985E-07,7.398,0,0.4932,6.378271E-06,7.398,0
0.4941,0.0001352865,7.4115,0,0.4941,-0.0001074235,7.4115,0
0.495,1.980621E-05,7.425,0,0.495,1.644922E-05,7.425,0
0.4959,-0.0001527428,7.4385,0,0.4959,2.786297E-05,7.4385,0
0.4968,-6.277562E-05,7.452,0,0.4968,-8.96315E-05,7.452,0
0.4977,3.524834E-05,7.4655,0,0.4977,-2.18204E-05,7.4655,0
0.4986,-0.0001631495,7.479,0,0.4986,1.309224E-05,7.479,0
0.4995,-8.493171E-05,7.4925,0,0.4995,-7.721065E-06,7.4925,0
0.5004,3.189136E-05,7.506,0,0.5004,-4.699779E-06,7.506,0
0.5013,2.719158E-05,7.5195,0,0.5013,-6.478981E-05,7.5195,0
0.5022,9.399558E-06,7.533,0,0.5022,1.309224E-05,7.533,0
0.5031,8.69459E-05,7.5465,0,0.5031,1.107805E-05,7.5465,0
0.504,5.169757E-05,7.56,0,0.504,-7.083238E-05,7.56,0
0.5049,2.652018E-05,7.5735,0,0.5049,-5.471885E-05,7.5735,0
0.5058,-6.6804E-05,7.587,0,0.5058,3.860533E-05,7.587,0
0.5067,-2.349889E-05,7.6005,0,0.5067,-3.121996E-05,7.6005,0
0.5076,4.733349E-05,7.614,0,0.5076,-0.0001044022,7.614,0
0.5085,-3.155566E-05,7.6275,0,0.5085,1.913481E-05,7.6275,0
0.5094,-4.800488E-05,7.641,0,0.5094,4.49836E-05,7.641,0
0.5103,3.692683E-06,7.6545,0,0.5103,-6.61326E-05,7.6545,0
0.5112,-0.0001077592,7.668,0,0.5112,-3.256275E-05,7.668,0
0.5121,-0.0001104448,7.6815,0,0.5121,3.189136E-05,7.6815,0
0.513,-4.934768E-05,7.695,0,0.513,-9.399558E-06,7.695,0
0.5139,-9.030289E-05,7.7085,0,0.5139,-1.443504E-05,7.7085,0
0.5148,4.699779E-06,7.722,0,0.5148,-6.54612E-05,7.722,0
0.5157,5.539025E-05,7.7355,0,0.5157,2.383459E-05,7.7355,0
0.5166,-8.090334E-05,7.749,0,0.5166,2.349889E-06,7.749,0
0.5175,-1.577783E-05,7.7625,0,0.5175,-2.316319E-05,7.7625,0
0.5184,6.344701E-05,7.776,0,0.5184,-4.33051E-05,7.776,0
0.5193,-3.726253E-05,7.7895,0,0.5193,3.189136E-05,7.7895,0
0.5202,2.28275E-05,7.803,0,0.5202,7.049668E-06,7.803,0
0.5211,0.0001218585,7.8165,0,0.5211,-6.78111E-05,7.8165,0
0.522,-4.968337E-05,7.83,0,0.522,4.129091E-05,7.83,0
0.5229,6.143282E-05,7.8435,0,0.5229,5.539025E-05,7.8435,0
0.5238,0.0001050736,7.857,0,0.5238,-5.169757E-05,7.857,0
0.5247,-2.18204E-05,7.8705,0,0.5247,-7.049668E-06,7.8705,0
0.5256,-0.0001352865,7.884,0,0.5256,3.961242E-05,7.884,0
0.5265,-4.46479E-05,7.8975,0,0.5265,-1.947051E-05,7.8975,0
0.5274,-2.853437E-05,7.911,0,0.5274,-3.860533E-05,7.911,0
0.5283,3.021286E-05,7.9245,0,0.5283,-9.735256E-05,7.9245,0
0.5292,0.0001097734,7.938,0,0.5292,9.399558E-06,7.938,0
0.5301,0.0001054093,7.9515,0,0.5301,-1.611353E-05,7.9515,0
0.531,1.510643E-05,7.965,0,0.531,-8.627451E-05,7.965,0
0.5319,9.970245E-05,7.9785,0,0.5319,-8.358892E-05,7.9785,0
0.5328,1.577783E-05,7.992,0,0.5328,-3.021286E-06,7.992,0
0.5337,-5.606165E-05,8.0055,0,0.5337,-3.256275E-05,8.0055,0
0.5346,9.768826E-05,8.019,0,0.5346,-0.000105745,8.019,0
0.5355,3.793393E-05,8.0325,0,0.5355,2.047761E-05,8.0325,0
0.5364,-7.855344E-05,8.046,0,0.5364,1.510643E-05,8.046,0
0.5373,2.584878E-05,8.0595,0,0.5373,-0.0001007095,8.0595,0
0.5382,9.231708E-05,8.073,0,0.5382,-3.021286E-06,8.073,0
0.5391,-6.51255E-05,8.0865,0,0.5391,6.378271E-05,8.0865,0
0.54,-9.466698E-05,8.1,0,0.54,1.007095E-05,8.1,0
0.5409,-3.625543E-05,8.1135,0,0.5409,-7.385367E-06,8.1135,0
0.5418,2.1149E-05,8.127,0,0.5418,-7.150377E-05,8.127,0
0.5427,-8.023193E-05,8.1405,0,0.5427,0,8.1405,0
0.5436,-0.0002178683,8.154,0,0.5436,1.644922E-05,8.154,0
0.5445,-0.0001292439,8.1675,0,0.5445,-4.196231E-05,8.1675,0
0.5454,-2.081331E-05,8.181,0,0.5454,-3.289845E-05,8.181,0
0.5463,-0.0001164874,8.1945,0,0.5463,5.337606E-05,8.1945,0
0.5472,-2.920577E-05,8.208,0,0.5472,-1.678492E-06,8.208,0
0.5481,7.284657E-05,8.2215,0,0.5481,-8.72816E-05,8.2215,0
0.549,-6.78111E-05,8.235,0,0.549,2.484169E-05,8.235,0
0.5499,6.009003E-05,8.2485,0,0.5499,1.644922E-05,8.2485,0
0.5508,0.0001252155,8.262,0,0.5508,-0.0001037308,8.262,0
0.5517,-0.0001077592,8.2755,0,0.5517,-6.411841E-05,8.2755,0
0.5526,-0.0001195087,8.289,0,0.5526,-1.779202E-05,8.289,0
0.5535,-4.968337E-05,8.3025,0,0.5535,-2.349889E-05,8.3025,0
0.5544,-1.007095E-05,8.316,0,0.5544,-2.786297E-05,8.316,0
0.5553,0.0001198444,8.3295,0,0.5553,-6.71397E-05,8.3295,0
0.5562,7.956054E-05,8.343,0,0.5562,3.054856E-05,8.343,0
0.5571,-6.109713E-05,8.3565,0,0.5571,3.021286E-05,8.3565,0
0.558,-3.021286E-05,8.37,0,0.558,-7.486076E-05,8.37,0
0.5589,6.378271E-05,8.3835,0,0.5589,-7.083238E-05,8.3835,0
0.5598,-4.196231E-05,8.397,0,0.5598,2.887007E-05,8.397,0
0.5607,-6.915389E-05,8.4105,0,0.5607,-1.678492E-05,8.4105,0
0.5616,0.0001148089,8.424,0,0.5616,-9.265278E-05,8.424,0
0.5625,-2.047761E-05,8.4375,0,0.5625,4.196231E-05,8.4375,0
0.5634,6.210422E-05,8.451,0,0.5634,6.344701E-05,8.451,0
0.5643,0.0001930266,8.4645,0,0.5643,-4.162661E-05,8.4645,0
0.5652,-4.632639E-05,8.478,0,0.5652,3.994812E-05,8.478,0
0.5661,-0.0001292439,8.4915,0,0.5661,6.344701E-05,8.4915,0
0.567,-2.18204E-05,8.505,0,0.567,5.035477E-06,8.505,0
0.5679,-1.577783E-05,8.5185,0,0.5679,-8.392462E-06,8.5185,0
0.5688,-3.457694E-05,8.532,0,0.5688,-5.941863E-05,8.532,0
0.5697,3.323415E-05,8.5455,0,0.5697,6.378271E-06,8.5455,0
0.5706,4.49836E-05,8.559,0,0.5706,-1.309224E-05,8.559,0
0.5715,-3.155566E-05,8.5725,0,0.5715,-6.478981E-05,8.5725,0
0.5724,6.848249E-05,8.586,0,0.5724,-6.74754E-05,8.586,0
0.5733,3.726253E-05,8.5995,0,0.5733,2.752728E-05,8.5995,0
0.5742,-4.061952E-05,8.613,0,0.5742,-1.745632E-05,8.613,0
0.5751,6.009003E-05,8.6265,0,0.5751,-0.0001017166,8.6265,0
0.576,3.356985E-07,8.64,0,0.576,1.812772E-05,8.64,0
0.5769,-6.713969E-07,8.6535,0,0.5769,4.699779E-06,8.6535,0
0.5778,-3.021286E-06,8.667,0,0.5778,-0.000102388,8.667,0
0.5787,3.860533E-05,8.6805,0,0.5787,-6.54612E-05,8.6805,0
0.5796,-0.0001205158,8.694,0,0.5796,-6.378271E-06,8.694,0
0.5805,-7.486076E-05,8.7075,0,0.5805,-4.46479E-05,8.7075,0
0.5814,-4.129091E-05,8.721,0,0.5814,-4.934768E-05,8.721,0
0.5823,8.090334E-05,8.7345,0,0.5823,-0.0001077592,8.7345,0
0.5832,4.196231E-05,8.748,0,0.5832,-2.349889E-06,8.748,0
0.5841,5.203327E-05,8.7615,0,0.5841,4.33051E-05,8.7615,0
0.585,7.553216E-05,8.775,0,0.585,-3.860533E-05,8.775,0
0.5859,7.553216E-05,8.7885,0,0.5859,-4.162661E-05,8.7885,0
0.5868,-1.477073E-05,8.802,0,0.5868,5.606165E-05,8.802,0
0.5877,4.666209E-05,8.8155,0,0.5877,7.721065E-06,8.8155,0
0.5886,3.088426E-05,8.829,0,0.5886,-8.761731E-05,8.829,0
0.5895,-6.109713E-05,8.8425,0,0.5895,5.740444E-05,8.8425,0
0.5904,4.699779E-06,8.856,0,0.5904,4.39765E-05,8.856,0
0.5913,2.618448E-05,8.8695,0,0.5913,-5.975433E-05,8.8695,0
0.5922,2.014191E-06,8.883,0,0.5922,-8.728161E-06,8.883,0
0.5931,-0.0001064164,8.8965,0,0.5931,4.196231E-05,8.8965,0
0.594,-4.39765E-05,8.91,0,0.594,-1.107805E-05,8.91,0
0.5949,-4.800488E-05,8.9235,0,0.5949,-4.53193E-05,8.9235,0
0.5958,-3.289845E-05,8.937,0,0.5958,-8.761731E-05,8.937,0
0.5967,-4.36408E-06,8.9505,0,0.5967,2.24918E-05,8.9505,0
0.5976,-0.0002007477,8.964,0,0.5976,6.143282E-05,8.964,0
0.5985,-0.0001151446,8.9775,0,0.5985,4.263371E-05,8.9775,0
0.5994,7.418937E-05,8.991,0,0.5994,3.726253E-05,8.991,0
0.6003,-8.291753E-05,9.0045,0,0.6003,0.0001141375,9.0045,0
0.6012,-6.378271E-05,9.018,0,0.6012,6.54612E-05,9.018,0
0.6021,0.000144686,9.0315,0,0.6021,-5.807584E-05,9.0315,0
0.603,-1.913481E-05,9.045,0,0.603,1.040665E-05,9.045,0
0.6039,-5.807584E-05,9.0585,0,0.6039,-2.18204E-05,9.0585,0
0.6048,1.947051E-05,9.072001,0,0.6048,-0.0001228656,9.072001,0
0.6057,9.903105E-05,9.0855,0,0.6057,-6.814679E-05,9.0855,0
0.6066,-4.800488E-05,9.099,0,0.6066,-3.826963E-05,9.099,0
0.6075,-4.061952E-05,9.1125,0,0.6075,-8.224613E-05,9.1125,0
0.6084,3.054856E-05,9.126,0,0.6084,-9.567407E-05,9.126,0
0.6093,-1.947051E-05,9.1395,0,0.6093,-0.0001688563,9.1395,0
0.6102,-5.136187E-05,9.153,0,0.6102,-4.733349E-05,9.153,0
0.6111,-3.726253E-05,9.1665,0,0.6111,-5.539025E-05,9.1665,0
0.612,-2.450599E-05,9.18,0,0.612,-0.0001148089,9.18,0
0.6129,6.713969E-06,9.1935,0,0.6129,-7.922484E-05,9.1935,0
0.6138,-4.061952E-05,9.207,0,0.6138,4.33051E-05,9.207,0
0.6147,2.349889E-06,9.2205,0,0.6147,7.049668E-06,9.2205,0
0.6156,8.157473E-05,9.234,0,0.6156,-7.183947E-05,9.234,0
0.6165,-1.443504E-05,9.2475,0,0.6165,7.653925E-05,9.2475,0
0.6174,-6.54612E-05,9.261,0,0.6174,8.69459E-05,9.261,0
0.6183,3.356985E-07,9.2745,0,0.6183,-2.920577E-05,9.2745,0
0.6192,-0.0001144732,9.288,0,0.6192,5.001907E-05,9.288,0
0.6201,-0.0001030594,9.3015,0,0.6201,0.0001326009,9.3015,0
0.621,-7.284657E-05,9.315,0,0.621,6.78111E-05,9.315,0
0.6219,-3.558404E-05,9.3285,0,0.6219,3.457694E-05,9.3285,0
0.6228,0.0001218585,9.342,0,0.6228,-2.920577E-05,9.342,0
0.6237,0.000144686,9.3555,0,0.6237,4.36408E-05,9.3555,0
0.6246,-4.934768E-05,9.369,0,0.6246,4.901198E-05,9.369,0
0.6255,-7.049668E-06,9.3825,0,0.6255,-3.558404E-05,9.3825,0
0.6264,1.577783E-05,9.396,0,0.6264,-0.0001174945,9.396,0
0.6273,-0.0001077592,9.4095,0,0.6273,-2.551309E-05,9.4095,0
0.6282,-1.007095E-06,9.423,0,0.6282,-5.908293E-05,9.423,0
0.6291,3.591974E-05,9.4365,0,0.6291,-0.0001453574,9.4365,0
0.63,-5.774014E-05,9.45,0,0.63,-2.349889E-06,9.45,0
0.6309,1.779202E-05,9.4635,0,0.6309,5.035477E-06,9.4635,0
0.6318,0.0001406577,9.477,0,0.6318,-8.795301E-05,9.477,0
0.6327,0.0002591592,9.4905,0,0.6327,-4.766919E-05,9.4905,0
0.6336,2.920577E-05,9.504,0,0.6336,1.779202E-05,9.504,0
0.6345,6.076142E-05,9.5175,0,0.6345,2.24918E-05,9.5175,0
0.6354,6.881819E-05,9.531,0,0.6354,2.1149E-05,9.531,0
0.6363,0.0001084306,9.5445,0,0.6363,-4.901198E-05,9.5445,0
0.6372,0.0001164874,9.558,0,0.6372,-2.786297E-05,9.558,0
0.6381,-0.0001453574,9.5715,0,0.6381,-9.399557E-05,9.5715,0
0.639,-7.754635E-05,9.585,0,0.639,-8.291753E-05,9.585,0
0.6399,7.754635E-05,9.5985,0,0.6399,-3.625543E-05,9.5985,0
0.6408,-5.136187E-05,9.612,0,0.6408,3.994812E-05,9.612,0
0.6417,-8.258183E-05,9.6255,0,0.6417,-5.706874E-06,9.6255,0
0.6426,0.0001245441,9.639,0,0.6426,-0.0001416648,9.639,0
0.6435,4.263371E-05,9.6525,0,0.6435,-4.43122E-05,9.6525,0
0.6444,-3.692683E-06,9.666,0,0.6444,-5.203327E-05,9.666,0
0.6453,7.217517E-05,9.6795,0,0.6453,-0.0001856413,9.6795,0
0.6462,-2.18204E-05,9.693,0,0.6462,-0.000115816,9.693,0
0.6471,-0.0001560998,9.7065,0,0.6471,7.385367E-06,9.7065,0
0.648,-0.000119173,9.72,0,0.648,6.076142E-05,9.72,0
0.6489,-4.33051E-05,9.7335,0,0.6489,0.0001050736,9.7335,0
0.6498,-3.356985E-07,9.747,0,0.6498,7.989624E-05,9.747,0
0.6507,-2.920577E-05,9.7605,0,0.6507,0.0001950408,9.7605,0
0.6516,-6.210422E-05,9.774,0,0.6516,0.0001346151,9.774,0
0.6525,-7.956054E-05,9.7875,0,0.6525,-1.577783E-05,9.7875,0
0.6534,-3.356985E-07,9.801,0,0.6534,-4.934768E-05,9.801,0
0.6543,-9.298848E-05,9.8145,0,0.6543,1.141375E-05,9.8145,0
0.6552,1.712062E-05,9.828,0,0.6552,-7.855344E-05,9.828,0
0.6561,9.097429E-05,9.8415,0,0.6561,-0.0001651637,9.8415,0
0.657,-3.054856E-05,9.855,0,0.657,-0.000136965,9.855,0
0.6579,-1.443504E-05,9.8685,0,0.6579,-0.0001104448,9.8685,0
0.6588,-1.007095E-06,9.882,0,0.6588,-0.0001087663,9.882,0
0.6597,-2.819867E-05,9.8955,0,0.6597,-5.035477E-06,9.8955,0
0.6606,-0.0001238727,9.909,0,0.6606,0.0001668421,9.909,0
0.6615,-0.0001282368,9.9225,0,0.6615,0.0002467384,9.9225,0
0.6624,-7.821774E-05,9.936,0,0.6624,0.0001990692,9.936,0
0.6633,2.652018E-05,9.9495,0,0.6633,0.0001315938,9.9495,0
0.6642,-5.539025E-05,9.963,0,0.6642,0.0002225681,9.963,0
0.6651,-0.0001312581,9.976501,0,0.6651,8.090334E-05,9.976501,0
0.666,-9.701686E-05,9.99,0,0.666,-0.0001668421,9.99,0
0.6669,1.510643E-05,10.0035,0,0.6669,-0.0002312963,10.0035,0
0.6678,-7.855344E-05,10.017,0,0.6678,-0.000115816,10.017,0
0.6687,-5.539025E-05,10.0305,0,0.6687,-0.0001638209,10.0305,0
0.6696,0.0001164874,10.044,0,0.6696,-0.0002010834,10.044,0
0.6705,1.544213E-05,10.0575,0,0.6705,5.639734E-05,10.0575,0
0.6714,0.0001070878,10.071,0,0.6714,0.000185977,10.071,0
0.6723,0.0002383459,10.0845,0,0.6723,8.392462E-05,10.0845,0
0.6732,5.438316E-05,10.098,0,0.6732,6.57969E-05,10.098,0
0.6741,-6.814679E-05,10.1115,0,0.6741,6.948959E-05,10.1115,0
0.675,1.678492E-05,10.125,0,0.675,-7.049668E-06,10.125,0
0.6759,-6.881819E-05,10.1385,0,0.6759,-0.0001463645,10.1385,0
0.6768,-0.0001238727,10.152,0,0.6768,-0.0002625162,10.152,0
0.6777,-0.0001349508,10.1655,0,0.6777,-9.466698E-05,10.1655,0
0.6786,-0.0002064546,10.179,0,0.6786,-5.740444E-05,10.179,0
0.6795,-0.0001829557,10.1925,0,0.6795,-0.0001255512,10.1925,0
0.6804,-7.486076E-05,10.206,0,0.6804,-0.0001211871,10.206,0
0.6813,-0.0001037308,10.2195,0,0.6813,-1.913481E-05,10.2195,0
0.6822,-0.0001440146,10.233,0,0.6822,-2.28275E-05,10.233,0
0.6831,2.853437E-05,10.2465,0,0.6831,-9.466698E-05,10.2465,0
0.684,2.383459E-05,10.26,0,0.684,8.69459E-05,10.26,0
0.6849,0.0001010452,10.2735,0,0.6849,0.0001409934,10.2735,0
0.6858,0.0001591211,10.287,0,0.6858,-2.551309E-05,10.287,0
0.6867,-5.841154E-05,10.3005,0,0.6867,-5.438316E-05,10.3005,0
0.6876,-8.92958E-05,10.314,0,0.6876,-6.042573E-06,10.314,0
0.6885,3.994812E-05,10.3275,0,0.6885,-1.443504E-05,10.3275,0
0.6894,6.51255E-05,10.341,0,0.6894,2.014191E-06,10.341,0
0.6903,0.0001842985,10.3545,0,0.6903,-2.28275E-05,10.3545,0
0.6912,0.0001225299,10.368,0,0.6912,0.000179263,10.368,0
0.6921,3.189136E-05,10.3815,0,0.6921,0.0002974289,10.3815,0
0.693,0.000109102,10.395,0,0.693,0.0002098116,10.395,0
0.6939,0.0001178302,10.4085,0,0.6939,8.493171E-05,10.4085,0
0.6948,-7.183947E-05,10.422,0,0.6948,3.189136E-05,10.422,0
0.6957,-6.57969E-05,10.4355,0,0.6957,-0.0001174945,10.4355,0
0.6966,4.800488E-05,10.449,0,0.6966,-0.0002333104,10.449,0
0.6975,-2.853437E-05,10.4625,0,0.6975,-6.311131E-05,10.4625,0
0.6984,0.0001017166,10.476,0,0.6984,-8.593881E-05,10.476,0
0.6993,0.0001735561,10.4895,0,0.6993,-0.0001836271,10.4895,0
0.7002,0.0003266346,10.503,0,0.7002,-7.754635E-05,10.503,0
0.7011,0.0001221943,10.5165,0,0.7011,2.484169E-05,10.5165,0
0.702,9.634547E-05,10.53,0,0.702,-7.150377E-05,10.53,0
0.7029,2.853437E-05,10.5435,0,0.7029,-9.701686E-05,10.5435,0
0.7038,9.500267E-05,10.557,0,0.7038,-5.740444E-05,10.557,0
0.7047,5.438316E-05,10.5705,0,0.7047,2.21561E-05,10.5705,0
0.7056,-6.478981E-05,10.584,0,0.7056,-4.36408E-06,10.584,0
0.7065,-0.000115816,10.5975,0,0.7065,-0.0001040665,10.5975,0
0.7074,-8.426032E-05,10.611,0,0.7074,-0.0001779202,10.611,0
0.7083,-0.0002937362,10.6245,0,0.7083,-0.0001104448,10.6245,0
0.7092,-0.0002863508,10.638,0,0.7092,-0.000197055,10.638,0
0.7101,-6.243992E-05,10.6515,0,0.7101,-0.0002551308,10.6515,0
0.711,-0.0001789273,10.665,0,0.711,-0.0001161517,10.665,0
0.7119,-0.0001839628,10.6785,0,0.7119,-0.0002124971,10.6785,0
0.7128,2.819867E-05,10.692,0,0.7128,-0.0003262989,10.692,0
0.7137,0.0001819486,10.7055,0,0.7137,-0.0002104829,10.7055,0
0.7146,-2.517739E-05,10.719,0,0.7146,-2.28275E-05,10.719,0
0.7155,2.517739E-05,10.7325,0,0.7155,-4.53193E-05,10.7325,0
0.7164,3.021286E-05,10.746,0,0.7164,-7.016098E-05,10.746,0
0.7173,-9.265278E-05,10.7595,0,0.7173,-8.426032E-05,10.7595,0
0.7182,-0.0001047379,10.773,0,0.7182,6.277562E-05,10.773,0
0.7191,-2.685588E-05,10.7865,0,0.7191,0.0002131685,10.7865,0
0.72,-1.174945E-05,10.8,0,0.72,0.0002735943,10.8,0
0.7209,2.752728E-05,10.8135,0,0.7209,0.0002464027,10.8135,0
0.7218,-2.517739E-05,10.827,0,0.7218,0.0002104829,10.827,0
0.7227,-2.316319E-05,10.8405,0,0.7227,0.0001292439,10.8405,0
0.7236,0.000105745,10.854,0,0.7236,-2.047761E-05,10.854,0
0.7245,1.779202E-05,10.8675,0,0.7245,4.39765E-05,10.8675,0
0.7254,-3.994812E-05,10.881,0,0.7254,1.678492E-05,10.881,0
0.7263,-1.913481E-05,10.8945,0,0.7263,-9.936675E-05,10.8945,0
0.7272,0.0001279011,10.908,0,0.7272,-8.358892E-05,10.908,0
0.7281,-4.53193E-05,10.9215,0,0.7281,7.418937E-05,10.9215,0
0.729,-2.584878E-05,10.935,0,0.729,-5.706874E-06,10.935,0
0.7299,7.318227E-05,10.9485,0,0.7299,-9.433127E-05,10.9485,0
0.7308,4.33051E-05,10.962,0,0.7308,-0.0001681849,10.962,0
0.7317,-5.807584E-05,10.9755,0,0.7317,-5.706874E-05,10.9755,0
0.7326,-0.000175906,10.989,0,0.7326,1.678492E-06,10.989,0
0.7335,-6.411841E-05,11.0025,0,0.7335,-3.121996E-05,11.0025,0
0.7344,-6.411841E-05,11.016,0,0.7344,7.385367E-05,11.016,0
0.7353,-0.0002309606,11.0295,0,0.7353,4.36408E-06,11.0295,0
0.7362,-0.0002732586,11.043,0,0.7362,-0.0001832914,11.043,0
0.7371,-0.0001339437,11.0565,0,0.7371,-7.486076E-05,11.0565,0
0.738,-0.0002178683,11.07,0,0.738,7.754635E-05,11.07,0
0.7389,-3.457694E-05,11.0835,0,0.7389,-3.256275E-05,11.0835,0
0.7398,0.0001379721,11.097,0,0.7398,-0.0002913863,11.097,0
0.7407,-2.987716E-05,11.1105,0,0.7407,-0.0002084688,11.1105,0
0.7416,6.881819E-05,11.124,0,0.7416,1.443504E-05,11.124,0
0.7425,0.00024271,11.1375,0,0.7425,7.888914E-05,11.1375,0
0.7434,0.0001524071,11.151,0,0.7434,0.0001554284,11.151,0
0.7443,0.0002044404,11.1645,0,0.7443,0.0001483787,11.1645,0
0.7452,0.0003326772,11.178,0,0.7452,0.0002286107,11.178,0
0.7461,9.970245E-05,11.1915,0,0.7461,0.0002276036,11.1915,0
0.747,7.351797E-05,11.205,0,0.747,8.560311E-05,11.205,0
0.7479,0.0001386435,11.2185,0,0.7479,3.826963E-05,11.2185,0
0.7488,1.007095E-06,11.232,0,0.7488,0.0001601282,11.232,0
0.7497,-2.417029E-05,11.2455,0,0.7497,7.888914E-05,11.2455,0
0.7506,8.224613E-05,11.259,0,0.7506,-0.0001084306,11.259,0
0.7515,2.349889E-06,11.2725,0,0.7515,-5.337606E-05,11.2725,0
0.7524,-2.1149E-05,11.286,0,0.7524,-9.332418E-05,11.286,0
0.7533,4.36408E-05,11.2995,0,0.7533,-0.0001913481,11.2995,0
0.7542,0.0001621424,11.313,0,0.7542,-8.493171E-05,11.313,0
0.7551,-8.224613E-05,11.3265,0,0.7551,-6.982528E-05,11.3265,0
0.756,-5.539025E-05,11.34,0,0.756,-0.0001033951,11.34,0
0.7569,5.438316E-05,11.3535,0,0.7569,-4.129091E-05,11.3535,0
0.7578,5.337606E-05,11.367,0,0.7578,0.0001044022,11.367,0
0.7587,-6.378271E-06,11.3805,0,0.7587,0.0002840009,11.3805,0
0.7596,-0.0001621424,11.394,0,0.7596,0.0002333104,11.394,0
0.7605,-0.0001215228,11.4075,0,0.7605,5.371176E-05,11.4075,0
0.7614,-6.143282E-05,11.421,0,0.7614,-8.090334E-05,11.421,0
0.7623,-0.0001785916,11.4345,0,0.7623,-6.57969E-05,11.4345,0
0.7632,-8.493171E-05,11.448,0,0.7632,-0.0001490501,11.448,0
0.7641,-4.53193E-05,11.4615,0,0.7641,-0.000361883,11.4615,0
0.765,-0.0001252155,11.475,0,0.765,-0.0002245823,11.475,0
0.7659,3.256275E-05,11.4885,0,0.7659,-0.0002044404,11.4885,0
0.7668,9.903105E-05,11.502,0,0.7668,-0.0002977645,11.502,0
0.7677,-1.779202E-05,11.5155,0,0.7677,-0.0002692302,11.5155,0
0.7686,-0.0001775845,11.529,0,0.7686,-0.0002091402,11.529,0
0.7695,-0.0002111543,11.5425,0,0.7695,4.129091E-05,11.5425,0
0.7704,-0.000224918,11.556,0,0.7704,0.0001802701,11.556,0
0.7713,-0.0001836271,11.5695,0,0.7713,1.141375E-05,11.5695,0
0.7722,-0.000256138,11.583,0,0.7722,1.779202E-05,11.583,0
0.7731,-0.0002954147,11.5965,0,0.7731,9.063859E-06,11.5965,0
0.774,-3.826963E-05,11.61,0,0.774,4.599069E-05,11.61,0
0.7749,0.0003071641,11.6235,0,0.7749,0.0002373388,11.6235,0
0.7758,0.0001983978,11.637,0,0.7758,0.0005189899,11.637,0
0.7767,0.0001514,11.6505,0,0.7767,0.000470985,11.6505,0
0.7776,0.0004011597,11.664,0,0.7776,0.0002628519,11.664,0
0.7785,0.000281651,11.6775,0,0.7785,0.0003179065,11.6775,0
0.7794,0.0002145113,11.691,0,0.7794,0.0002118257,11.691,0
0.7803,0.0001715419,11.7045,0,0.7803,-6.915389E-05,11.7045,0
0.7812,0.0001013809,11.718,0,0.7812,-0.0001218585,11.718,0
0.7821,-6.948959E-05,11.7315,0,0.7821,-0.0001601282,11.7315,0
0.783,2.349889E-06,11.745,0,0.783,-0.0002286107,11.745,0
0.7839,-0.0001279011,11.7585,0,0.7839,-0.0002017548,11.7585,0
0.7848,-7.821774E-05,11.772,0,0.7848,-0.0002242466,11.772,0
0.7857,1.510643E-05,11.7855,0,0.7857,-0.0002786297,11.7855,0
0.7866,-0.0001913481,11.799,0,0.7866,-0.0004035096,11.799,0
0.7875,-0.000189334,11.8125,0,0.7875,-0.0003816892,11.8125,0
0.7884,-1.913481E-05,11.826,0,0.7884,-0.0002544594,11.826,0
0.7893,-0.000102388,11.8395,0,0.7893,-0.0003252918,11.8395,0
0.7902,-7.754635E-05,11.853,0,0.7902,-0.0004743419,11.853,0
0.7911,8.92958E-05,11.8665,0,0.7911,-0.0001832914,11.8665,0
0.792,-9.298848E-05,11.88,0,0.792,0.0002776226,11.88,0
0.7929,-0.000175906,11.8935,0,0.7929,0.0004354009,11.8935,0
0.7938,-2.719158E-05,11.907,0,0.7938,0.0002292821,11.907,0
0.7947,-9.030289E-05,11.9205,0,0.7947,0.0003403983,11.9205,0
0.7956,6.713969E-06,11.934,0,0.7956,0.0005649806,11.934,0
0.7965,0.0003575189,11.9475,0,0.7965,0.0004750133,11.9475,0
0.7974,0.0004723278,11.961,0,0.7974,0.0003299916,11.961,0
0.7983,0.0003931029,11.9745,0,0.7983,0.0001755703,11.9745,0
0.7992,0.0001695277,11.988,0,0.7992,0.0001688563,11.988,0
0.8001,4.263371E-05,12.0015,0,0.8001,7.452507E-05,12.0015,0
0.801,1.409934E-05,12.015,0,0.801,-8.761731E-05,12.015,0
0.8019,-2.18204E-05,12.0285,0,0.8019,-0.0001883268,12.0285,0
0.8028,-0.0001305867,12.042,0,0.8028,-0.000193698,12.042,0
0.8037,-0.000161471,12.0555,0,0.8037,-0.0004098878,12.0555,0
0.8046,-0.0001188373,12.069,0,0.8046,-0.0005807584,12.069,0
0.8055,-0.0002108186,12.0825,0,0.8055,-0.0005257038,12.0825,0
0.8064,-0.0002675517,12.096,0,0.8064,-0.0005025406,12.096,0
0.8073,-0.0002373388,12.1095,0,0.8073,-0.0004981766,12.1095,0
0.8082,-0.0001339437,12.123,0,0.8082,-0.0002024262,12.123,0
0.8091,-0.0003078355,12.1365,0,0.8091,0.0001628138,12.1365,0
0.81,-0.0001806058,12.15,0,0.81,0.0001282368,12.15,0
0.8109,-3.424125E-05,12.1635,0,0.8109,0.000144686,12.1635,0
0.8118,0.0001701991,12.177,0,0.8118,0.000185977,12.177,0
0.8127,9.533837E-05,12.1905,0,0.8127,0.0001144732,12.1905,0
0.8136,-0.0002819867,12.204,0,0.8136,-1.007095E-06,12.204,0
0.8145,-0.0001463645,12.2175,0,0.8145,1.779202E-05,12.2175,0
0.8154,9.433127E-05,12.231,0,0.8154,7.788205E-05,12.231,0
0.8163,-6.042573E-06,12.2445,0,0.8163,0.0002715801,12.2445,0
0.8172,4.53193E-05,12.258,0,0.8172,0.0002725872,12.258,0
0.8181,0.000186984,12.2715,0,0.8181,-8.392462E-06,12.2715,0
0.819,-5.874724E-05,12.285,0,0.819,2.349889E-06,12.285,0
0.8199,4.129091E-05,12.2985,0,0.8199,-2.014191E-06,12.2985,0
0.8208,0.0002104829,12.312,0,0.8208,-0.0001007095,12.312,0
0.8217,0.0001084306,12.3255,0,0.8217,-1.510643E-05,12.3255,0
0.8226,9.735256E-06,12.339,0,0.8226,5.774014E-05,12.339,0
0.8235,2.618448E-05,12.3525,0,0.8235,-4.867628E-05,12.3525,0
0.8244,-5.035477E-06,12.366,0,0.8244,-8.82887E-05,12.366,0
0.8253,-2.652018E-05,12.3795,0,0.8253,-0.0001722133,12.3795,0
0.8262,4.36408E-06,12.393,0,0.8262,-0.0001433432,12.393,0
0.8271,-3.021286E-06,12.4065,0,0.8271,-0.000119173,12.4065,0
0.828,2.349889E-06,12.42,0,0.828,-0.00018262,12.42,0
0.8289,6.71397E-05,12.4335,0,0.8289,-0.0002682231,12.4335,0
0.8298,-7.418937E-05,12.447,0,0.8298,-0.0003172351,12.447,0
0.8307,-4.33051E-05,12.4605,0,0.8307,-0.0002769512,12.4605,0
0.8316,0.0001211871,12.474,0,0.8316,-0.0002098116,12.474,0
0.8325,9.365987E-05,12.4875,0,0.8325,5.203327E-05,12.4875,0
0.8334,1.678492E-05,12.501,0,0.8334,0.0001366293,12.501,0
0.8343,-3.289845E-05,12.5145,0,0.8343,0.0001366293,12.5145,0
0.8352,5.001907E-05,12.528,0,0.8352,0.0002265965,12.528,0
0.8361,-3.054856E-05,12.5415,0,0.8361,0.0003783322,12.5415,0
0.837,1.678492E-06,12.555,0,0.837,0.000411902,12.555,0
0.8379,6.277562E-05,12.5685,0,0.8379,0.0001809415,12.5685,0
0.8388,8.358892E-05,12.582,0,0.8388,-7.217517E-05,12.582,0
0.8397,2.081331E-05,12.5955,0,0.8397,6.042573E-06,12.5955,0
0.8406,-5.774014E-05,12.609,0,0.8406,-7.116808E-05,12.609,0
0.8415,3.356985E-07,12.6225,0,0.8415,-0.0002239109,12.6225,0
0.8424,4.129091E-05,12.636,0,0.8424,-0.0002339818,12.636,0
0.8433,-4.196231E-05,12.6495,0,0.8433,4.49836E-05,12.6495,0
0.8442,-5.136187E-05,12.663,0,0.8442,8.291753E-05,12.663,0
0.8451,9.097429E-05,12.6765,0,0.8451,0.0001211871,12.6765,0
0.846,-4.129091E-05,12.69,0,0.846,0.000295079,12.69,0
0.8469,3.692683E-05,12.7035,0,0.8469,0.0002198825,12.7035,0
0.8478,0.0001379721,12.717,0,0.8478,3.793393E-05,12.717,0
0.8487,0.0001913481,12.7305,0,0.8487,-9.231708E-05,12.7305,0
0.8496,6.411841E-05,12.744,0,0.8496,-0.0001017166,12.744,0
0.8505,1.577783E-05,12.7575,0,0.8505,-0.0001265583,12.7575,0
0.8514,2.349889E-06,12.771,0,0.8514,-0.0001373007,12.771,0
0.8523,0.0001070878,12.7845,0,0.8523,-0.000186984,12.7845,0
0.8532,3.054856E-05,12.798,0,0.8532,-0.0001299153,12.798,0
0.8541,-0.0001601282,12.8115,0,0.8541,-0.0001789273,12.8115,0
0.855,-8.69459E-05,12.825,0,0.855,-0.0002621805,12.825,0
0.8559,4.867628E-05,12.8385,0,0.8559,-0.0002081331,12.8385,0
0.8568,-8.627451E-05,12.852,0,0.8568,-3.356985E-06,12.852,0
0.8577,2.719158E-05,12.8655,0,0.8577,1.309224E-05,12.8655,0
0.8586,0.0002806439,12.879,0,0.8586,1.846342E-05,12.879,0
0.8595001,5.539025E-05,12.8925,0,0.8595001,0.0001101091,12.8925,0
0.8604,-0.0001258869,12.906,0,0.8604,0.0002239109,12.906,0
0.8613,-8.493171E-05,12.9195,0,0.8613,5.438316E-05,12.9195,0
0.8622,-0.0002443885,12.933,0,0.8622,3.994812E-05,12.933,0
0.8631,-0.0003800107,12.9465,0,0.8631,0.0001134661,12.9465,0
0.864,-0.0003071641,12.96,0,0.864,0.0002356603,12.96,0
0.8649,-0.0002581521,12.9735,0,0.8649,9.097429E-05,12.9735,0
0.8658,-6.881819E-05,12.987,0,0.8658,-0.0003461051,12.987,0
0.8667,0.0001010452,13.0005,0,0.8667,-0.0003078355,13.0005,0
0.8676,0.0002208896,13.014,0,0.8676,-0.0002077974,13.014,0
0.8685,0.0003034714,13.0275,0,0.8685,-0.0001963836,13.0275,0
0.8694,0.0004531929,13.041,0,0.8694,-4.800488E-05,13.041,0
0.8703,0.0002688945,13.0545,0,0.8703,9.399557E-05,13.0545,0
0.8712,8.661021E-05,13.068,0,0.8712,5.236896E-05,13.068,0
0.8721,0.0001238727,13.0815,0,0.8721,4.129091E-05,13.0815,0
0.873,-5.035477E-06,13.095,0,0.873,6.009003E-05,13.095,0
0.8739,-6.076142E-05,13.1085,0,0.8739,2.047761E-05,13.1085,0
0.8748,7.922484E-05,13.122,0,0.8748,0.0001362936,13.122,0
0.8757,0.0001258869,13.1355,0,0.8757,0.0004092164,13.1355,0
0.8766,-3.524834E-05,13.149,0,0.8766,0.000341741,13.149,0
0.8775,-1.242084E-05,13.1625,0,0.8775,0.0001211871,13.1625,0
0.8784,4.699779E-06,13.176,0,0.8784,2.1149E-05,13.176,0
0.8793,-2.551309E-05,13.1895,0,0.8793,-0.0001836271,13.1895,0
0.8802,-0.0001748989,13.203,0,0.8802,-0.0001329366,13.203,0
0.8811,-0.0003736324,13.2165,0,0.8811,-0.0001242084,13.2165,0
0.882,-0.0003427482,13.23,0,0.882,-0.0001920195,13.23,0
0.8829,-0.0002396887,13.2435,0,0.8829,-0.0001560998,13.2435,0
0.8838,-0.0001329366,13.257,0,0.8838,-1.577783E-05,13.257,0
0.8847,0.0001943694,13.2705,0,0.8847,-4.699779E-06,13.2705,0
0.8856,0.0002192111,13.284,0,0.8856,-0.0001487144,13.284,0
0.8865,4.095522E-05,13.2975,0,0.8865,-9.332418E-05,13.2975,0
0.8874,9.231708E-05,13.311,0,0.8874,-0.0001762417,13.311,0
0.8883,2.584878E-05,13.3245,0,0.8883,-0.0002729229,13.3245,0
0.8892,-0.0002440528,13.338,0,0.8892,-0.0001832914,13.338,0
0.8901,-0.000270573,13.3515,0,0.8901,-9.835965E-05,13.3515,0
0.891,-0.0002229038,13.365,0,0.891,-3.323415E-05,13.365,0
0.8919,-0.0001769131,13.3785,0,0.8919,6.076142E-05,13.3785,0
0.8928,-9.533837E-05,13.392,0,0.8928,2.517739E-05,13.392,0
0.8937,1.846342E-05,13.4055,0,0.8937,2.853437E-05,13.4055,0
0.8946,-2.786297E-05,13.419,0,0.8946,5.304036E-05,13.419,0
0.8955,1.007095E-06,13.4325,0,0.8955,-9.130999E-05,13.4325,0
0.8964,9.903105E-05,13.446,0,0.8964,-0.0001067521,13.446,0
0.8973,-5.639734E-05,13.4595,0,0.8973,7.553216E-05,13.4595,0
0.8982,-0.0001238727,13.473,0,0.8982,-1.074235E-05,13.473,0
0.8991,6.713969E-07,13.4865,0,0.8991,-0.0002759442,13.4865,0
0.9,-9.097429E-05,13.5,0,0.9,-0.000330663,13.5,0
0.9009,-0.0001722133,13.5135,0,0.9009,-0.0003215991,13.5135,0
0.9018,-2.450599E-05,13.527,0,0.9018,-0.0002970932,13.527,0
0.9027,-2.21561E-05,13.5405,0,0.9027,-8.090334E-05,13.5405,0
0.9036,-0.0001168231,13.554,0,0.9036,0.0001628138,13.554,0
0.9045,-6.210422E-05,13.5675,0,0.9045,0.0003957885,13.5675,0
0.9054,6.881819E-05,13.581,0,0.9054,0.0004951553,13.581,0
0.9063,0.0001567712,13.5945,0,0.9063,0.000351812,13.5945,0
0.9072,4.733349E-05,13.608,0,0.9072,0.0003420768,13.608,0
0.9081,-4.36408E-05,13.6215,0,0.9081,0.0001514,13.6215,0
0.909,4.095522E-05,13.635,0,0.909,-4.934768E-05,13.635,0
0.9099,-2.786297E-05,13.6485,0,0.9099,-8.89601E-05,13.6485,0
0.9108,-4.129091E-05,13.662,0,0.9108,-0.0001111162,13.662,0
0.9117,5.337606E-05,13.6755,0,0.9117,-0.0003185779,13.6755,0
0.9126,7.083238E-05,13.689,0,0.9126,-0.0004991837,13.689,0
0.9135,-1.846342E-05,13.7025,0,0.9135,-0.0002668803,13.7025,0
0.9144,-0.0001292439,13.716,0,0.9144,-0.0001386435,13.716,0
0.9153,-6.6804E-05,13.7295,0,0.9153,-8.090334E-05,13.7295,0
0.9162,7.351797E-05,13.743,0,0.9162,0.0001947051,13.743,0
0.9171,-8.82887E-05,13.7565,0,0.9171,0.0003944457,13.7565,0
0.918,-6.378271E-05,13.77,0,0.918,0.0001947051,13.77,0
0.9189,-0.000109102,13.7835,0,0.9189,-5.572595E-05,13.7835,0
0.9198,-2.383459E-05,13.797,0,0.9198,-0.0002833295,13.797,0
0.9207,-5.740444E-05,13.8105,0,0.9207,-0.0002611734,13.8105,0
0.9216,-0.0001379721,13.824,0,0.9216,8.358892E-05,13.824,0
0.9225,6.210422E-05,13.8375,0,0.9225,0.00042533,13.8375,0
0.9234,5.505455E-05,13.851,0,0.9234,0.0005287251,13.851,0
0.9243,-0.000105745,13.8645,0,0.9243,0.0005891508,13.8645,0
0.9252,-4.43122E-05,13.878,0,0.9252,0.0003823606,13.878,0
0.9261,0.0001252155,13.8915,0,0.9261,0.0001064164,13.8915,0
0.927,1.376364E-05,13.905,0,0.927,0.0001245441,13.905,0
0.9279,6.915389E-05,13.9185,0,0.9279,-2.920577E-05,13.9185,0
0.9288,0.0001554284,13.932,0,0.9288,-0.0001658351,13.932,0
0.9297,9.063859E-05,13.9455,0,0.9297,-0.000231632,13.9455,0
0.9306,-0.0001238727,13.959,0,0.9306,-0.0002044404,13.959,0
0.9315,-2.920577E-05,13.9725,0,0.9315,-0.0001853056,13.9725,0
0.9324,-9.533837E-05,13.986,0,0.9324,-0.0001352865,13.986,0
0.9333,-0.0001064164,13.9995,0,0.9333,-0.0002500954,13.9995,0
0.9342,-0.0001010452,14.013,0,0.9342,-0.0001782559,14.013,0
0.9351,-0.0001762417,14.0265,0,0.9351,-0.0001450217,14.0265,0
0.936,-4.229801E-05,14.04,0,0.936,-0.0002235752,14.04,0
0.9369,0.0002245823,14.0535,0,0.9369,-0.0001242084,14.0535,0
0.9378,0.0002450599,14.067,0,0.9378,-3.793393E-05,14.067,0
0.9387,0.000235996,14.0805,0,0.9387,-0.0001161517,14.0805,0
0.9396001,0.000252781,14.094,0,0.9396001,-0.0004122377,14.094,0
0.9405,0.0001366293,14.1075,0,0.9405,-0.0003387198,14.1075,0
0.9414001,1.174945E-05,14.121,0,0.9414001,-0.0001829557,14.121,0
0.9423,0.0001151446,14.1345,0,0.9423,-0.0001802701,14.1345,0
0.9432001,0.000158114,14.148,0,0.9432001,-0.0001540856,14.148,0
0.9441,3.591974E-05,14.1615,0,0.9441,-8.627451E-05,14.1615,0
0.9450001,8.224613E-05,14.175,0,0.9450001,-6.814679E-05,14.175,0
0.9459,0.0001607996,14.1885,0,0.9459,5.673304E-05,14.1885,0
0.9468,0.0002447242,14.202,0,0.9468,0.000158114,14.202,0
0.9477,0.0001943694,14.2155,0,0.9477,0.0003538262,14.2155,0
0.9486,0.0001440146,14.229,0,0.9486,0.0003487907,14.229,0
0.9495,-3.356985E-07,14.2425,0,0.9495,0.0002420386,14.2425,0
0.9504,1.712062E-05,14.256,0,0.9504,0.000161471,14.256,0
0.9513,-2.450599E-05,14.2695,0,0.9513,0.0001144732,14.2695,0
0.9522,-2.18204E-05,14.283,0,0.9522,-3.927672E-05,14.283,0
0.9531,3.189136E-05,14.2965,0,0.9531,-0.0002568093,14.2965,0
0.954,-6.344701E-05,14.31,0,0.954,-0.0001252155,14.31,0
0.9549,-9.634547E-05,14.3235,0,0.9549,-0.000105745,14.3235,0
0.9558,-0.0001329366,14.337,0,0.9558,-0.000249424,14.337,0
0.9567,-0.0001661708,14.3505,0,0.9567,-0.0002641947,14.3505,0
0.9576,-0.0001634852,14.364,0,0.9576,-9.869535E-05,14.364,0
0.9585,-0.0002531167,14.3775,0,0.9585,-0.0001198444,14.3775,0
0.9594,-0.0003897459,14.391,0,0.9594,-0.0001577783,14.391,0
0.9603,-0.0003014572,14.4045,0,0.9603,1.040665E-05,14.4045,0
0.9612,-0.0002312963,14.418,0,0.9612,0.000369604,14.418,0
0.9621,-0.0001544213,14.4315,0,0.9621,0.000629099,14.4315,0
0.963,3.256275E-05,14.445,0,0.963,0.0004938125,14.445,0
0.9639,0.0002947433,14.4585,0,0.9639,0.0002165255,14.4585,0
0.9648,0.0001567712,14.472,0,0.9648,0.0001910124,14.472,0
0.9657,0.0001258869,14.4855,0,0.9657,0.0001148089,14.4855,0
0.9666,0.000197055,14.499,0,0.9666,0.0001104448,14.499,0
0.9675,-5.471885E-05,14.5125,0,0.9675,0.0002450599,14.5125,0
0.9684,-0.0001067521,14.526,0,0.9684,0.0001456931,14.526,0
0.9693,-9.735256E-06,14.5395,0,0.9693,-7.687495E-05,14.5395,0
0.9702,-0.0002423743,14.553,0,0.9702,-7.687495E-05,14.553,0
0.9711,-0.0003884031,14.5665,0,0.9711,-0.0001453574,14.5665,0
0.972,-0.0003205921,14.58,0,0.972,-0.0002229038,14.58,0
0.9729,-0.0001785916,14.5935,0,0.9729,-0.0002568093,14.5935,0
0.9738,6.61326E-05,14.607,0,0.9738,-0.000316228,14.607,0
0.9747,0.0002222324,14.6205,0,0.9747,-0.0001393149,14.6205,0
0.9756,0.0002286107,14.634,0,0.9756,-0.0001409934,14.634,0
0.9765,0.0001554284,14.6475,0,0.9765,-7.754635E-05,14.6475,0
0.9774,0.000322942,14.661,0,0.9774,-5.807584E-05,14.661,0
0.9783,0.0002312963,14.6745,0,0.9783,8.560311E-05,14.6745,0
0.9792,-4.36408E-06,14.688,0,0.9792,-0.0001104448,14.688,0
0.9801,3.726253E-05,14.7015,0,0.9801,-0.0003091783,14.7015,0
0.981,3.726253E-05,14.715,0,0.981,-0.0001487144,14.715,0
0.9819,0.0001151446,14.7285,0,0.9819,-9.030289E-05,14.7285,0
0.9828,0.0001460288,14.742,0,0.9828,-0.0001621424,14.742,0
0.9837,2.316319E-05,14.7555,0,0.9837,-0.0002067903,14.7555,0
0.9846,-0.0001339437,14.769,0,0.9846,-0.0002178683,14.769,0
0.9855,-5.774014E-05,14.7825,0,0.9855,-0.0002074617,14.7825,0
0.9864,-6.74754E-05,14.796,0,0.9864,-0.0003581903,14.796,0
0.9873,-1.443504E-05,14.8095,0,0.9873,-0.0005267109,14.8095,0
0.9882,1.644922E-05,14.823,0,0.9882,-0.0002447242,14.823,0
0.9891,3.659113E-05,14.8365,0,0.9891,-5.337606E-05,14.8365,0
0.99,3.121996E-05,14.85,0,0.99,-0.0001587854,14.85,0
0.9909,-3.356985E-07,14.8635,0,0.9909,0.0002151827,14.8635,0
0.9918,-8.761731E-05,14.877,0,0.9918,0.0009194781,14.877,0
0.9927,9.063859E-06,14.8905,0,0.9927,0.000822797,14.8905,0
0.9936,5.069047E-05,14.904,0,0.9936,0.0003984741,14.904,0
0.9945,-4.699779E-05,14.9175,0,0.9945,0.0003998169,14.9175,0
0.9954,-6.74754E-05,14.931,0,0.9954,0.0001597925,14.931,0
0.9963,-5.673304E-05,14.9445,0,0.9963,6.64683E-05,14.9445,0
0.9972,-0.0001688563,14.958,0,0.9972,0.0001554284,14.958,0
0.9981,-0.0001373007,14.9715,0,0.9981,7.721065E-06,14.9715,0
0.999,-7.284657E-05,14.985,0,0.999,-0.0001910124,14.985,0
0.9999,-0.0001252155,14.9985,0,0.9999,-0.000256138,14.9985,0
1.0008,1.678492E-06,15.012,0,1.0008,-0.0003336843,15.012,0
1.0017,7.284657E-05,15.0255,0,1.0017,-0.0002688945,15.0255,0
1.0026,3.356985E-07,15.039,0,1.0026,-0.0002400244,15.039,0
1.0035,4.867628E-05,15.0525,0,1.0035,-9.298848E-05,15.0525,0
1.0044,0.0001198444,15.066,0,1.0044,-7.418937E-05,15.066,0
1.0053,-7.788205E-05,15.0795,0,1.0053,9.567407E-05,15.0795,0
1.0062,-2.987716E-05,15.093,0,1.0062,9.835965E-05,15.093,0
1.0071,0.0002245823,15.1065,0,1.0071,-6.143282E-05,15.1065,0
1.008,4.129091E-05,15.12,0,1.008,2.24918E-05,15.12,0
1.0089,-7.956054E-05,15.1335,0,1.0089,-3.524834E-05,15.1335,0
1.0098,3.860533E-05,15.147,0,1.0098,-0.0002890364,15.147,0
1.0107,5.505455E-05,15.1605,0,1.0107,-0.0001178302,15.1605,0
1.0116,-0.0001218585,15.174,0,1.0116,0.0001245441,15.174,0
1.0125,-2.014191E-06,15.1875,0,1.0125,0.0002386816,15.1875,0
1.0134,3.524834E-05,15.201,0,1.0134,0.0002601663,15.201,0
1.0143,3.054856E-05,15.2145,0,1.0143,5.069047E-05,15.2145,0
1.0152,5.304036E-05,15.228,0,1.0152,0.0001218585,15.228,0
1.0161,-2.887007E-05,15.2415,0,1.0161,0.0001332723,15.2415,0
1.017,-7.754635E-05,15.255,0,1.017,2.652018E-05,15.255,0
1.0179,2.014191E-05,15.2685,0,1.0179,-7.150377E-05,15.2685,0
1.0188,-4.800488E-05,15.282,0,1.0188,-6.713969E-07,15.282,0
1.0197,-0.0001839628,15.2955,0,1.0197,-0.0002178683,15.2955,0
1.0206,-1.107805E-05,15.309,0,1.0206,-0.0005163043,15.309,0
1.0215,-9.869535E-05,15.3225,0,1.0215,-0.0004196231,15.3225,0
1.0224,-9.332418E-05,15.336,0,1.0224,-0.0003749752,15.336,0
1.0233,-0.0001285725,15.3495,0,1.0233,-0.0003662471,15.3495,0
1.0242,-0.0001238727,15.363,0,1.0242,6.076142E-05,15.363,0
1.0251,-0.0002903792,15.3765,0,1.0251,0.0004870985,15.3765,0
1.026,-0.0002480812,15.39,0,1.026,0.0005441672,15.39,0
1.0269,-6.076142E-05,15.4035,0,1.0269,0.0003810178,15.4035,0
1.0278,0.0002383459,15.417,0,1.0278,0.0001272297,15.417,0
1.0287,0.0004078737,15.4305,0,1.0287,0.0001628138,15.4305,0
1.0296,0.0004562142,15.444,0,1.0296,5.807584E-05,15.444,0
1.0305,0.0003756466,15.4575,0,1.0305,4.129091E-05,15.4575,0
1.0314,0.0001732204,15.471,0,1.0314,-0.0001077592,15.471,0
1.0323,0.0001047379,15.4845,0,1.0323,-9.030289E-05,15.4845,0
1.0332,0.0002514381,15.498,0,1.0332,-0.0001420005,15.498,0
1.0341,0.0003756466,15.5115,0,1.0341,-0.000257145,15.5115,0
1.035,0.0002051118,15.525,0,1.035,-0.0002343175,15.525,0
1.0359,3.356985E-07,15.5385,0,1.0359,-0.0002534524,15.5385,0
1.0368,-5.203327E-05,15.552,0,1.0368,-0.0003286488,15.552,0
1.0377,-0.0001138018,15.5655,0,1.0377,-0.0003044785,15.5655,0
1.0386,-0.0002198825,15.579,0,1.0386,-0.0002440528,15.579,0
1.0395,-0.0001883268,15.5925,0,1.0395,-8.023193E-05,15.5925,0
1.0404,-0.0003501335,15.606,0,1.0404,-3.054856E-05,15.606,0
1.0413,-0.0004233158,15.6195,0,1.0413,-0.0001151446,15.6195,0
1.0422,-0.0004635996,15.633,0,1.0422,9.634547E-05,15.633,0
1.0431,-0.0003991455,15.6465,0,1.0431,0.0001252155,15.6465,0
1.044,-0.0002940719,15.66,0,1.044,0.0002534524,15.66,0
1.0449,-7.385367E-05,15.6735,0,1.0449,0.000369604,15.6735,0
1.0458,5.471885E-05,15.687,0,1.0458,0.0002803082,15.687,0
1.0467,-8.224613E-05,15.7005,0,1.0467,0.0001218585,15.7005,0
1.0476,-0.000306157,15.714,0,1.0476,-0.0003148852,15.714,0
1.0485,-0.0004622568,15.7275,0,1.0485,-0.0003753109,15.7275,0
1.0494,-0.0003951171,15.741,0,1.0494,-7.821774E-05,15.741,0
1.0503,-1.242084E-05,15.7545,0,1.0503,0.0001624781,15.7545,0
1.0512,0.0002521096,15.768,0,1.0512,0.0001211871,15.768,0
1.0521,0.0003558404,15.7815,0,1.0521,1.007095E-06,15.7815,0
1.053,0.000460914,15.795,0,1.053,-3.591974E-05,15.795,0
1.0539,0.0004588998,15.8085,0,1.0539,0.0001366293,15.8085,0
1.0548,0.0003031357,15.822,0,1.0548,0.0001205158,15.822,0
1.0557,0.0002480812,15.8355,0,1.0557,0.0001258869,15.8355,0
1.0566,0.0001822843,15.849,0,1.0566,-6.814679E-05,15.849,0
1.0575,4.129091E-05,15.8625,0,1.0575,-0.0004904555,15.8625,0
1.0584,6.009003E-05,15.876,0,1.0584,-0.000654612,15.876,0
1.0593,-4.263371E-05,15.8895,0,1.0593,-0.0006109712,15.8895,0
1.0602,6.143282E-05,15.903,0,1.0602,-0.0004166018,15.903,0
1.0611,0.0001913481,15.9165,0,1.0611,3.356985E-05,15.9165,0
1.062,9.063859E-06,15.93,0,1.062,0.0006596475,15.93,0
1.0629,-1.510643E-05,15.9435,0,1.0629,0.0008456245,15.9435,0
1.0638,-4.061952E-05,15.957,0,1.0638,0.0005871367,15.957,0
1.0647,4.263371E-05,15.9705,0,1.0647,0.0002735943,15.9705,0
1.0656,-1.376364E-05,15.984,0,1.0656,8.627451E-05,15.984,0
1.0665,-0.0001621424,15.9975,0,1.0665,-3.088426E-05,15.9975,0
1.0674,-0.0001722133,16.011,0,1.0674,-8.996719E-05,16.011,0
1.0683,3.591974E-05,16.0245,0,1.0683,-4.46479E-05,16.0245,0
1.0692,-4.834058E-05,16.038,0,1.0692,0.0001138018,16.038,0
1.0701,-0.0001973907,16.0515,0,1.0701,0.0001628138,16.0515,0
1.071,-1.510643E-05,16.065,0,1.071,5.438316E-05,16.065,0
1.0719,-5.740444E-05,16.0785,0,1.0719,-0.0002997787,16.0785,0
1.0728,-0.0003528191,16.092,0,1.0728,-0.000428687,16.092,0
1.0737,-0.000257145,16.1055,0,1.0737,-0.0002799725,16.1055,0
1.0746,2.517739E-05,16.119,0,1.0746,-0.0001738918,16.119,0
1.0755,-0.0001201801,16.1325,0,1.0755,9.802396E-05,16.1325,0
1.0764,-0.0001131304,16.146,0,1.0764,6.277562E-05,16.146,0
1.0773,-7.385367E-06,16.1595,0,1.0773,-0.0001527428,16.1595,0
1.0782,-2.1149E-05,16.173,0,1.0782,-8.82887E-05,16.173,0
1.0791,-9.298848E-05,16.1865,0,1.0791,-9.466698E-05,16.1865,0
1.08,-7.049668E-06,16.2,0,1.08,-7.553216E-05,16.2,0
1.0809,-1.309224E-05,16.2135,0,1.0809,-2.047761E-05,16.2135,0
1.0818,1.040665E-05,16.227,0,1.0818,-0.0001178302,16.227,0
1.0827,2.1149E-05,16.2405,0,1.0827,-8.761731E-05,16.2405,0
1.0836,9.433127E-05,16.254,0,1.0836,-0.0001463645,16.254,0
1.0845,1.242084E-05,16.2675,0,1.0845,-0.0001560998,16.2675,0
1.0854,0.0001460288,16.281,0,1.0854,-0.0001144732,16.281,0
1.0863,0.0001631495,16.2945,0,1.0863,0.0002141756,16.2945,0
1.0872,0.0001084306,16.308,0,1.0872,0.0001366293,16.308,0
1.0881,0.0001698634,16.3215,0,1.0881,-0.0002138399,16.3215,0
1.089,4.733349E-05,16.335,0,1.089,9.265278E-05,16.335,0
1.0899,8.728161E-06,16.3485,0,1.0899,0.0001067521,16.3485,0
1.0908,0.000115816,16.362,0,1.0908,-1.141375E-05,16.362,0
1.0917,0.0001111162,16.3755,0,1.0917,0.000235996,16.3755,0
1.0926,-9.298848E-05,16.389,0,1.0926,0.0002544594,16.389,0
1.0935,-7.150377E-05,16.4025,0,1.0935,0.0001070878,16.4025,0
1.0944,-6.109713E-05,16.416,0,1.0944,-5.941863E-05,16.416,0
1.0953,-0.0001164874,16.4295,0,1.0953,-0.0003078355,16.4295,0
1.0962,-0.0003226062,16.443,0,1.0962,-0.0002568093,16.443,0
1.0971,-0.0004528573,16.4565,0,1.0971,-0.0002876936,16.4565,0
1.098,-0.0003185779,16.47,0,1.098,-0.0001957122,16.47,0
1.0989,-0.0001097734,16.4835,0,1.0989,9.097429E-05,16.4835,0
1.0998,3.860533E-05,16.497,0,1.0998,0.0001386435,16.497,0
1.1007,0.0004333867,16.5105,0,1.1007,4.263371E-05,16.5105,0
1.1016,0.0005915007,16.524,0,1.1016,3.457694E-05,16.524,0
1.1025,0.0002772869,16.5375,0,1.1025,0.000295079,16.5375,0
1.1034,0.0001554284,16.551,0,1.1034,0.0002319677,16.551,0
1.1043,2.920577E-05,16.5645,0,1.1043,-2.551309E-05,16.5645,0
1.1052,-7.486076E-05,16.578,0,1.1052,-0.0002030976,16.578,0
1.1061,-9.097429E-05,16.5915,0,1.1061,-0.0002111543,16.5915,0
1.107,-0.0001832914,16.605,0,1.107,-0.0001460288,16.605,0
1.1079,-0.0001114519,16.6185,0,1.1079,-0.0001705348,16.6185,0
1.1088,0.0001420005,16.632,0,1.1088,0.0001352865,16.632,0
1.1097,7.351797E-05,16.6455,0,1.1097,0.0003286488,16.6455,0
1.1106,-7.620356E-05,16.659,0,1.1106,0.0003964599,16.659,0
1.1115,-3.356985E-07,16.6725,0,1.1115,0.0002161898,16.6725,0
1.1124,0.0001957122,16.686,0,1.1124,-4.028382E-06,16.686,0
1.1133,0.0001255512,16.6995,0,1.1133,6.009003E-05,16.6995,0
1.1142,-3.323415E-05,16.713,0,1.1142,8.023193E-05,16.713,0
1.1151,2.719158E-05,16.7265,0,1.1151,0.0001514,16.7265,0
1.116,-5.069047E-05,16.74,0,1.116,0.0001816129,16.74,0
1.1169,-0.0001863127,16.7535,0,1.1169,-0.0001104448,16.7535,0
1.1178,-0.0001822843,16.767,0,1.1178,-0.0003756466,16.767,0
1.1187,-0.0001195087,16.7805,0,1.1187,-0.0005058976,16.7805,0
1.1196,-0.0004451362,16.794,0,1.1196,-0.0004582284,16.794,0
1.1205,-0.0003071641,16.8075,0,1.1205,-0.0002188754,16.8075,0
1.1214,0.0001171588,16.821,0,1.1214,3.994812E-05,16.821,0
1.1223,0.0003299916,16.8345,0,1.1223,0.0001527428,16.8345,0
1.1232,0.0002450599,16.848,0,1.1232,0.0001889983,16.848,0
1.1241,0.0002682231,16.8615,0,1.1241,-1.376364E-05,16.8615,0
1.125,0.0002504311,16.875,0,1.125,-8.96315E-05,16.875,0
1.1259,0.0002145113,16.8885,0,1.1259,-0.0001255512,16.8885,0
1.1268,1.712062E-05,16.902,0,1.1268,5.035477E-06,16.902,0
1.1277,-9.768826E-05,16.9155,0,1.1277,-0.0001033951,16.9155,0
1.1286,-0.0001631495,16.929,0,1.1286,-0.0002635233,16.929,0
1.1295,-0.0004236515,16.9425,0,1.1295,-0.0001889983,16.9425,0
1.1304,-0.0005428244,16.956,0,1.1304,-0.0001346151,16.956,0
1.1313,-0.0004028382,16.9695,0,1.1313,-0.0002635233,16.9695,0
1.1322,-2.316319E-05,16.983,0,1.1322,-0.0002151827,16.983,0
1.1331,0.0003632258,16.9965,0,1.1331,-0.0001604639,16.9965,0
1.134,0.000633463,17.01,0,1.134,-0.0001460288,17.01,0
1.1349,0.0004528573,17.0235,0,1.1349,4.196231E-05,17.0235,0
1.1358,0.0003837034,17.037,0,1.1358,0.0002198825,17.037,0
1.1367,0.0002225681,17.0505,0,1.1367,0.0004313726,17.0505,0
1.1376,-0.0001174945,17.064,0,1.1376,0.0003749752,17.064,0
1.1385,-0.0001017166,17.0775,0,1.1385,0.0002480812,17.0775,0
1.1394,-0.0001564355,17.091,0,1.1394,-1.812772E-05,17.091,0
1.1403,-0.000274937,17.1045,0,1.1403,2.987716E-05,17.1045,0
1.1412,-0.0001722133,17.118,0,1.1412,-2.887007E-05,17.118,0
1.1421,-0.0001920195,17.1315,0,1.1421,-0.000239353,17.1315,0
1.143,-0.0003078355,17.145,0,1.143,-0.0001544213,17.145,0
1.1439,-0.0001279011,17.1585,0,1.1439,1.577783E-05,17.1585,0
1.1448,-2.819867E-05,17.172,0,1.1448,0.0001393149,17.172,0
1.1457,4.36408E-06,17.1855,0,1.1457,0.0002259251,17.1855,0
1.1466,-0.0001373007,17.199,0,1.1466,0.0001624781,17.199,0
1.1475,-0.0001487144,17.2125,0,1.1475,-1.678492E-05,17.2125,0
1.1484,-0.0001715419,17.226,0,1.1484,-5.438316E-05,17.226,0
1.1493,-7.821774E-05,17.2395,0,1.1493,-0.0001003738,17.2395,0
1.1502,-8.426032E-05,17.253,0,1.1502,0.000105745,17.253,0
1.1511,-0.0002326391,17.2665,0,1.1511,6.411841E-05,17.2665,0
1.152,-0.0001299153,17.28,0,1.152,-6.210422E-05,17.28,0
1.1529,-1.242084E-05,17.2935,0,1.1529,-0.0001084306,17.2935,0
1.1538,-0.0001473716,17.307,0,1.1538,-0.0001292439,17.307,0
1.1547,-0.000154757,17.3205,0,1.1547,-0.000186984,17.3205,0
1.1556,7.351797E-05,17.334,0,1.1556,-0.0001373007,17.334,0
1.1565,-1.242084E-05,17.3475,0,1.1565,2.954147E-05,17.3475,0
1.1574,-3.189136E-05,17.361,0,1.1574,-8.96315E-05,17.361,0
1.1583,6.61326E-05,17.3745,0,1.1583,-9.567407E-05,17.3745,0
1.1592,0.0001832914,17.388,0,1.1592,6.948959E-05,17.388,0
1.1601,5.572595E-05,17.4015,0,1.1601,0.0001044022,17.4015,0
1.161,0.000161471,17.415,0,1.161,0.0001265583,17.415,0
1.1619,0.0001406577,17.4285,0,1.1619,7.284657E-05,17.4285,0
1.1628,0.0001440146,17.442,0,1.1628,-0.000102388,17.442,0
1.1637,0.0001252155,17.4555,0,1.1637,-0.0001228656,17.4555,0
1.1646,3.894102E-05,17.469,0,1.1646,-0.0001695277,17.469,0
1.1655,9.936675E-05,17.4825,0,1.1655,-0.0002497597,17.4825,0
1.1664,0.0001440146,17.496,0,1.1664,-0.0002964218,17.496,0
1.1673,0.0001037308,17.5095,0,1.1673,-0.0001789273,17.5095,0
1.1682,3.726253E-05,17.523,0,1.1682,-0.0001144732,17.523,0
1.1691,0.0001490501,17.5365,0,1.1691,-0.0002141756,17.5365,0
1.17,0.0001500572,17.55,0,1.17,0.0001245441,17.55,0
1.1709,5.035477E-06,17.5635,0,1.1709,0.0003444266,17.5635,0
1.1718,2.450599E-05,17.577,0,1.1718,0.0001406577,17.577,0
1.1727,5.069047E-05,17.5905,0,1.1727,8.493171E-05,17.5905,0
1.1736,-5.404745E-05,17.604,0,1.1736,7.586786E-05,17.604,0
1.1745,-6.51255E-05,17.6175,0,1.1745,-3.088426E-05,17.6175,0
1.1754,1.342794E-06,17.631,0,1.1754,-1.678492E-06,17.631,0
1.1763,4.800488E-05,17.6445,0,1.1763,5.270466E-05,17.6445,0
1.1772,8.627451E-05,17.658,0,1.1772,7.821774E-05,17.658,0
1.1781,0.0001144732,17.6715,0,1.1781,2.584878E-05,17.6715,0
1.179,0.0001242084,17.685,0,1.179,-0.0001282368,17.685,0
1.1799,7.049668E-06,17.6985,0,1.1799,-0.0002541238,17.6985,0
1.1808,-0.0001292439,17.712,0,1.1808,-6.344701E-05,17.712,0
1.1817,-4.968337E-05,17.7255,0,1.1817,-5.035477E-06,17.7255,0
1.1826,9.231708E-05,17.739,0,1.1826,3.457694E-05,17.739,0
1.1835,-0.000161471,17.7525,0,1.1835,0.0001238727,17.7525,0
1.1844,-0.0001987335,17.766,0,1.1844,4.699779E-05,17.766,0
1.1853,-3.356985E-06,17.7795,0,1.1853,1.007095E-06,17.7795,0
1.1862,1.644922E-05,17.793,0,1.1862,0.000112459,17.793,0
1.1871,-5.270466E-05,17.8065,0,1.1871,0.0001178302,17.8065,0
1.188,-0.0001604639,17.82,0,1.188,-5.673304E-05,17.82,0
1.1889,-0.0001490501,17.8335,0,1.1889,-6.814679E-05,17.8335,0
1.1898,-2.081331E-05,17.847,0,1.1898,-0.0001460288,17.847,0
1.1907,2.349889E-05,17.8605,0,1.1907,0.0001346151,17.8605,0
1.1916,1.242084E-05,17.874,0,1.1916,0.0001218585,17.874,0
1.1925,-0.0001594568,17.8875,0,1.1925,-0.0002141756,17.8875,0
1.1934,-4.061952E-05,17.901,0,1.1934,-0.0003638972,17.901,0
1.1943,-0.0002265965,17.9145,0,1.1943,-0.0004679637,17.9145,0
1.1952,-0.0003024643,17.928,0,1.1952,-0.0005626307,17.928,0
1.1961,-4.666209E-05,17.9415,0,1.1961,-0.0005236896,17.9415,0
1.197,-5.001907E-05,17.955,0,1.197,3.961242E-05,17.955,0
1.1979,0.0002198825,17.9685,0,1.1979,0.0006442054,17.9685,0
1.1988,0.0003786679,17.982,0,1.1988,0.0005280537,17.982,0
1.1997,0.0002991073,17.9955,0,1.1997,0.0003655757,17.9955,0
1.2006,1.007095E-06,18.009,0,1.2006,0.0003111925,18.009,0
1.2015,0.000133608,18.0225,0,1.2015,0.0001339437,18.0225,0
1.2024,0.0003568475,18.036,0,1.2024,0.0001483787,18.036,0
1.2033,0.0003555047,18.0495,0,1.2033,0.0002165255,18.0495,0
1.2042,0.0002245823,18.063,0,1.2042,0.0002729229,18.063,0
1.2051,-1.007095E-05,18.0765,0,1.2051,0.0001440146,18.0765,0
1.206,3.121996E-05,18.09,0,1.206,1.141375E-05,18.09,0
1.2069,0.0001560998,18.1035,0,1.2069,-8.358892E-05,18.1035,0
1.2078,0.0001624781,18.117,0,1.2078,-0.0001030594,18.117,0
1.2087,0.0002551308,18.1305,0,1.2087,-0.0001399863,18.1305,0
1.2096,0.0003269703,18.144,0,1.2096,-0.0001836271,18.144,0
1.2105,5.001907E-05,18.1575,0,1.2105,-7.452507E-05,18.1575,0
1.2114,-0.0001577783,18.171,0,1.2114,-0.0001409934,18.171,0
1.2123,-0.0002333104,18.1845,0,1.2123,-0.0002168612,18.1845,0
1.2132,-0.0001604639,18.198,0,1.2132,-0.0002366674,18.198,0
1.2141,-0.0003649043,18.2115,0,1.2141,-0.0002390173,18.2115,0
1.215,-0.000570016,18.225,0,1.215,-0.0002406958,18.225,0
1.2159,-0.0005391318,18.2385,0,1.2159,-0.0002312963,18.2385,0
1.2168,-0.0005528954,18.252,0,1.2168,-0.0002568093,18.252,0
1.2177,-0.0007022812,18.2655,0,1.2177,-0.0001493858,18.2655,0
1.2186,-0.0006566262,18.279,0,1.2186,-0.0001399863,18.279,0
1.2195,-0.0005028763,18.2925,0,1.2195,-0.0002336461,18.2925,0
1.2204,-0.0004068666,18.306,0,1.2204,-0.0002410315,18.306,0
1.2213,-0.0002205539,18.3195,0,1.2213,-3.927672E-05,18.3195,0
1.2222,0.0003863889,18.333,0,1.2222,7.351797E-05,18.333,0
1.2231,0.0005972076,18.3465,0,1.2231,6.311131E-05,18.3465,0
1.224,0.000478706,18.36,0,1.224,0.0001470359,18.36,0
1.2249,0.0003205921,18.3735,0,1.2249,0.0001473716,18.3735,0
1.2258,0.0002413672,18.387,0,1.2258,-8.795301E-05,18.387,0
1.2267,2.349889E-06,18.4005,0,1.2267,-0.0001185016,18.4005,0
1.2276,-0.0001003738,18.414,0,1.2276,0.000130251,18.414,0
1.2285,2.786297E-05,18.4275,0,1.2285,0.0002688945,18.4275,0
1.2294,0.0001080949,18.441,0,1.2294,0.000263859,18.441,0
1.2303,0.0002521096,18.4545,0,1.2303,0.0001178302,18.4545,0
1.2312,0.0003044785,18.468,0,1.2312,0.0001621424,18.468,0
1.2321,0.000133608,18.4815,0,1.2321,0.0001621424,18.4815,0
1.233,0.0001587854,18.495,0,1.233,-6.042573E-06,18.495,0
1.2339,0.000203769,18.5085,0,1.2339,-0.0001624781,18.5085,0
1.2348,2.752728E-05,18.522,0,1.2348,0.0001131304,18.522,0
1.2357,1.678492E-06,18.5355,0,1.2357,-3.323415E-05,18.5355,0
1.2366,0.0001493858,18.549,0,1.2366,-0.0002558022,18.549,0
1.2375,-3.558404E-05,18.5625,0,1.2375,-0.0001185016,18.5625,0
1.2384,-3.726253E-05,18.576,0,1.2384,-0.0001174945,18.576,0
1.2393,6.915389E-05,18.5895,0,1.2393,-8.761731E-05,18.5895,0
1.2402,-5.001907E-05,18.603,0,1.2402,0.0001326009,18.603,0
1.2411,-0.000200412,18.6165,0,1.2411,0.0002648661,18.6165,0
1.242,-0.0001228656,18.63,0,1.242,7.083238E-05,18.63,0
1.2429,-2.1149E-05,18.6435,0,1.2429,-0.0001799344,18.6435,0
1.2438,-5.706874E-06,18.657,0,1.2438,-0.0002695659,18.657,0
1.2447,-1.678492E-05,18.6705,0,1.2447,-0.0002124971,18.6705,0
1.2456,-7.754635E-05,18.684,0,1.2456,-0.0001698634,18.684,0
1.2465,-9.097429E-05,18.6975,0,1.2465,5.035477E-06,18.6975,0
1.2474,7.385367E-06,18.711,0,1.2474,0.0003380484,18.711,0
1.2483,-8.661021E-05,18.7245,0,1.2483,0.0004427863,18.7245,0
1.2492,4.766919E-05,18.738,0,1.2492,0.0001225299,18.738,0
1.2501,7.888914E-05,18.7515,0,1.2501,-0.0002544594,18.7515,0
1.251,-3.692683E-06,18.765,0,1.251,-0.000306157,18.765,0
1.2519,0.0001836271,18.7785,0,1.2519,-0.0003544976,18.7785,0
1.2528,0.00021149,18.792,0,1.2528,-0.0004092164,18.792,0
1.2537,0.0001295796,18.8055,0,1.2537,4.53193E-05,18.8055,0
1.2546,7.888914E-05,18.819,0,1.2546,0.0004105592,18.819,0
1.2555,0.000144686,18.8325,0,1.2555,0.0004756848,18.8325,0
1.2564,0.000119173,18.846,0,1.2564,0.0003917601,18.846,0
1.2573,9.466698E-05,18.8595,0,1.2573,0.0001144732,18.8595,0
1.2582,3.591974E-05,18.873,0,1.2582,8.661021E-05,18.873,0
1.2591,1.779202E-05,18.8865,0,1.2591,-6.57969E-05,18.8865,0
1.26,-3.356985E-07,18.9,0,1.26,-0.0002104829,18.9,0
1.2609,9.970245E-05,18.9135,0,1.2609,-0.0001631495,18.9135,0
1.2618,-5.069047E-05,18.927,0,1.2618,-4.733349E-05,18.927,0
1.2627,-5.874724E-05,18.9405,0,1.2627,3.054856E-05,18.9405,0
1.2636,0.0001389792,18.954,0,1.2636,-3.356985E-06,18.954,0
1.2645,-3.390555E-05,18.9675,0,1.2645,7.116808E-05,18.9675,0
1.2654,-0.000158114,18.981,0,1.2654,-1.174945E-05,18.981,0
1.2663,-6.713969E-07,18.9945,0,1.2663,-0.000126894,18.9945,0
1.2672,-0.0001064164,19.008,0,1.2672,-3.323415E-05,19.008,0
1.2681,-0.0001930266,19.0215,0,1.2681,-8.392462E-06,19.0215,0
1.269,-5.471885E-05,19.035,0,1.269,-4.800488E-05,19.035,0
1.2699,-0.0001198444,19.0485,0,1.2699,-0.0001144732,19.0485,0
1.2708,-3.054856E-05,19.062,0,1.2708,-0.0002171969,19.062,0
1.2717,4.162661E-05,19.0755,0,1.2717,-0.0001070878,19.0755,0
1.2726,-0.0002171969,19.089,0,1.2726,-0.0005982147,19.089,0
1.2735,-0.0003581903,19.1025,0,1.2735,-0.0009282063,19.1025,0
1.2744,-0.000267216,19.116,0,1.2744,-0.0006149996,19.116,0
1.2753,-0.0004078737,19.1295,0,1.2753,-0.0002417029,19.1295,0
1.2762,-0.0004478218,19.143,0,1.2762,6.948959E-05,19.143,0
1.2771,-7.586786E-05,19.1565,0,1.2771,0.0003984741,19.1565,0
1.278,0.000158114,19.17,0,1.278,0.000959762,19.17,0
1.2789,0.0001305867,19.1835,0,1.2789,0.001028245,19.1835,0
1.2798,0.0002024262,19.197,0,1.2798,0.0005287251,19.197,0
1.2807,0.0004159304,19.2105,0,1.2807,0.0003048142,19.2105,0
1.2816,0.0001728847,19.224,0,1.2816,0.000190341,19.224,0
1.2825,8.224613E-05,19.2375,0,1.2825,4.196231E-05,19.2375,0
1.2834,2.24918E-05,19.251,0,1.2834,-2.316319E-05,19.251,0
1.2843,5.471885E-05,19.2645,0,1.2843,-0.000112459,19.2645,0
1.2852,1.141375E-05,19.278,0,1.2852,-6.61326E-05,19.278,0
1.2861,0.0001168231,19.2915,0,1.2861,-0.0001675135,19.2915,0
1.287,0.0002635233,19.305,0,1.287,-0.0004078737,19.305,0
1.2879,0.0003175708,19.3185,0,1.2879,-0.0003786679,19.3185,0
1.2888,0.0001594568,19.332,0,1.2888,-0.0001876554,19.332,0
1.2897,0.0002396887,19.3455,0,1.2897,-5.673304E-05,19.3455,0
1.2906,0.0002299535,19.359,0,1.2906,0.0001272297,19.359,0
1.2915,-9.466698E-05,19.3725,0,1.2915,0.0002433814,19.3725,0
1.2924,-0.0003454337,19.386,0,1.2924,-2.014191E-06,19.386,0
1.2933,-0.0005072404,19.3995,0,1.2933,-0.000172549,19.3995,0
1.2942,-0.0004766918,19.413,0,1.2942,-0.0001722133,19.413,0
1.2951,-0.0004850843,19.4265,0,1.2951,-0.0002447242,19.4265,0
1.296,-0.0003296559,19.44,0,1.296,-0.0002789654,19.44,0
1.2969,-0.0002695659,19.4535,0,1.2969,-0.00024271,19.4535,0
1.2978,-0.0001527428,19.467,0,1.2978,-0.0003262989,19.467,0
1.2987,-0.0002876936,19.4805,0,1.2987,-0.0001896696,19.4805,0
1.2996,-0.0003887388,19.494,0,1.2996,-7.385367E-05,19.494,0
1.3005,1.947051E-05,19.5075,0,1.3005,-0.0002343175,19.5075,0
1.3014,0.0002719158,19.521,0,1.3014,-5.874724E-05,19.521,0
1.3023,1.544213E-05,19.5345,0,1.3023,0.0004562142,19.5345,0
1.3032,8.82887E-05,19.548,0,1.3032,0.0005636378,19.548,0
1.3041,0.0002077974,19.5615,0,1.3041,0.0002453956,19.5615,0
1.305,3.088426E-05,19.575,0,1.305,0.0001910124,19.575,0
1.3059,3.323415E-05,19.5885,0,1.3059,4.733349E-05,19.5885,0
1.3068,-3.994812E-05,19.602,0,1.3068,-0.0001675135,19.602,0
1.3077,-5.740444E-05,19.6155,0,1.3077,-0.0002417029,19.6155,0
1.3086,-0.0001131304,19.629,0,1.3086,-0.0003769894,19.629,0
1.3095,-4.46479E-05,19.6425,0,1.3095,-0.0003595331,19.6425,0
1.3104,-7.418937E-05,19.656,0,1.3104,-0.0002766156,19.656,0
1.3113,-7.183947E-05,19.6695,0,1.3113,-0.0003242847,19.6695,0
1.3122,2.685588E-06,19.683,0,1.3122,3.625543E-05,19.683,0
1.3131,-3.155566E-05,19.6965,0,1.3131,0.0002403601,19.6965,0
1.314,-4.766919E-05,19.71,0,1.314,0.0003702754,19.71,0
1.3149,5.404745E-05,19.7235,0,1.3149,0.0003857175,19.7235,0
1.3158,-6.009003E-05,19.737,0,1.3158,0.0003393912,19.737,0
1.3167,-6.009003E-05,19.7505,0,1.3167,0.0003058213,19.7505,0
1.3176,0.0001232013,19.764,0,1.3176,0.0001205158,19.764,0
1.3185,-2.417029E-05,19.7775,0,1.3185,0.0001591211,19.7775,0
1.3194,-1.577783E-05,19.791,0,1.3194,4.028382E-06,19.791,0
1.3203,8.224613E-05,19.8045,0,1.3203,-0.0001265583,19.8045,0
1.3212,5.706874E-06,19.818,0,1.3212,-0.0001440146,19.818,0
1.3221,-8.96315E-05,19.8315,0,1.3221,-7.922484E-05,19.8315,0
1.323,-7.284657E-05,19.845,0,1.323,-0.0001436789,19.845,0
1.3239,6.948959E-05,19.8585,0,1.3239,-0.0001557641,19.8585,0
1.3248,8.82887E-05,19.872,0,1.3248,-0.0002396887,19.872,0
1.3257,9.735256E-06,19.8855,0,1.3257,-0.0003931029,19.8855,0
1.3266,2.21561E-05,19.899,0,1.3266,-0.0003215991,19.899,0
1.3275,6.948959E-05,19.9125,0,1.3275,-0.0001507286,19.9125,0
1.3284,6.61326E-05,19.926,0,1.3284,2.450599E-05,19.926,0
1.3293,9.063859E-06,19.9395,0,1.3293,0.0001467002,19.9395,0
1.3302,5.136187E-05,19.953,0,1.3302,0.0001886625,19.953,0
1.3311,6.61326E-05,19.9665,0,1.3311,-1.174945E-05,19.9665,0
1.332,3.994812E-05,19.98,0,1.332,5.438316E-05,19.98,0
1.3329,0.0001762417,19.9935,0,1.3329,-8.89601E-05,19.9935,0
1.3338,0.0001171588,20.007,0,1.3338,-0.0002497597,20.007,0
1.3347,0.0001030594,20.0205,0,1.3347,-0.0001467002,20.0205,0
1.3356,7.687495E-05,20.034,0,1.3356,2.484169E-05,20.034,0
1.3365,7.217517E-05,20.0475,0,1.3365,0.0001540856,20.0475,0
1.3374,7.418937E-05,20.061,0,1.3374,0.0001681849,20.061,0
1.3383,0.0001027237,20.0745,0,1.3383,-0.0001651637,20.0745,0
1.3392,0.000119173,20.088,0,1.3392,5.874724E-05,20.088,0
1.3401,4.53193E-05,20.1015,0,1.3401,0.0002319677,20.1015,0
1.341,0.0001121233,20.115,0,1.341,0.0001997406,20.115,0
1.3419,0.0001178302,20.1285,0,1.3419,-3.256275E-05,20.1285,0
1.3428,-4.46479E-05,20.142,0,1.3428,-0.0001745632,20.142,0
1.3437,1.577783E-05,20.1555,0,1.3437,5.035477E-05,20.1555,0
1.3446,0.0002077974,20.169,0,1.3446,0.0002588235,20.169,0
1.3455,-1.712062E-05,20.1825,0,1.3455,0.0003702754,20.1825,0
1.3464,-8.392462E-06,20.196,0,1.3464,0.0002265965,20.196,0
1.3473,0.0001047379,20.2095,0,1.3473,-4.666209E-05,20.2095,0
1.3482,-2.987716E-05,20.223,0,1.3482,-7.956054E-05,20.223,0
1.3491,-0.0001517357,20.2365,0,1.3491,-8.96315E-05,20.2365,0
1.35,-9.500267E-05,20.25,0,1.35,-0.0001732204,20.25,0
1.3509,-0.000133608,20.2635,0,1.3509,-3.726253E-05,20.2635,0
1.3518,-0.0001567712,20.277,0,1.3518,-5.404745E-05,20.277,0
1.3527,-8.426032E-05,20.2905,0,1.3527,2.014191E-06,20.2905,0
1.3536,-7.284657E-05,20.304,0,1.3536,-0.0001211871,20.304,0
1.3545,9.030289E-05,20.3175,0,1.3545,-0.0003380484,20.3175,0
1.3554,0.0003299916,20.331,0,1.3554,-0.0002977645,20.331,0
1.3563,0.0003044785,20.3445,0,1.3563,5.874724E-05,20.3445,0
1.3572,0.0002628519,20.358,0,1.3572,0.0002319677,20.358,0
1.3581,0.0001997406,20.3715,0,1.3581,0.0001607996,20.3715,0
1.359,-3.054856E-05,20.385,0,1.359,0.0001567712,20.385,0
1.3599,-8.72816E-05,20.3985,0,1.3599,1.141375E-05,20.3985,0
1.3608,5.404745E-05,20.412,0,1.3608,-0.0001050736,20.412,0
1.3617,0.0003477836,20.4255,0,1.3617,-3.256275E-05,20.4255,0
1.3626,9.298848E-05,20.439,0,1.3626,-3.390555E-05,20.439,0
1.3635,-9.030289E-05,20.4525,0,1.3635,-0.0001299153,20.4525,0
1.3644,-6.378271E-05,20.466,0,1.3644,-0.0001560998,20.466,0
1.3653,-7.150377E-05,20.4795,0,1.3653,-0.0001806058,20.4795,0
1.3662,-0.0002927291,20.493,0,1.3662,-1.980621E-05,20.493,0
1.3671,-0.0005267109,20.5065,0,1.3671,-0.0001292439,20.5065,0
1.368,-0.0002903792,20.52,0,1.368,-0.0002235752,20.52,0
1.3689,-0.000330663,20.5335,0,1.3689,-0.0001997406,20.5335,0
1.3698,-0.000457557,20.547,0,1.3698,-0.0001010452,20.547,0
1.3707,-0.0001641566,20.5605,0,1.3707,-2.383459E-05,20.5605,0
1.3716,-1.644922E-05,20.574,0,1.3716,8.728161E-06,20.574,0
1.3725,-0.0001567712,20.5875,0,1.3725,0.0001863127,20.5875,0
1.3734,0.0001104448,20.601,0,1.3734,0.0001440146,20.601,0
1.3743,0.0003420768,20.6145,0,1.3743,-8.291753E-05,20.6145,0
1.3752,0.0001366293,20.628,0,1.3752,-1.947051E-05,20.628,0
1.3761,-0.0002131685,20.6415,0,1.3761,3.591974E-05,20.6415,0
1.377,-0.0002709087,20.655,0,1.377,3.356985E-06,20.655,0
1.3779,-0.0002517739,20.6685,0,1.3779,-1.980621E-05,20.6685,0
1.3788,-0.0002272679,20.682,0,1.3788,-0.0001433432,20.682,0
1.3797,-0.0001138018,20.6955,0,1.3797,6.143282E-05,20.6955,0
1.3806,1.644922E-05,20.709,0,1.3806,5.706874E-06,20.709,0
1.3815,0.0002027619,20.7225,0,1.3815,-5.941863E-05,20.7225,0
1.3824,0.0001967193,20.736,0,1.3824,-9.399558E-06,20.736,0
1.3833,1.712062E-05,20.7495,0,1.3833,-2.081331E-05,20.7495,0
1.3842,5.304036E-05,20.763,0,1.3842,-0.0002326391,20.763,0
1.3851,0.000278294,20.7765,0,1.3851,-0.000348455,20.7765,0
1.386,8.426032E-05,20.79,0,1.386,-0.0001752346,20.79,0
1.3869,-8.090334E-05,20.8035,0,1.3869,-0.0001420005,20.8035,0
1.3878,2.920577E-05,20.817,0,1.3878,-6.109713E-05,20.817,0
1.3887,-5.673304E-05,20.8305,0,1.3887,0.0002346532,20.8305,0
1.3896,-0.0001668421,20.844,0,1.3896,0.0002631876,20.844,0
1.3905,-0.0001131304,20.8575,0,1.3905,0.0001148089,20.8575,0
1.3914,-4.867628E-05,20.871,0,1.3914,6.076142E-05,20.871,0
1.3923,1.141375E-05,20.8845,0,1.3923,9.466698E-05,20.8845,0
1.3932,-1.409934E-05,20.898,0,1.3932,0.0001963836,20.898,0
1.3941,1.007095E-05,20.9115,0,1.3941,0.0001587854,20.9115,0
1.395,-7.956054E-05,20.925,0,1.395,-2.349889E-06,20.925,0
1.3959,3.826963E-05,20.9385,0,1.3959,-5.471885E-05,20.9385,0
1.3968,5.471885E-05,20.952,0,1.3968,-2.24918E-05,20.952,0
1.3977,-5.035477E-05,20.9655,0,1.3977,-0.0001520714,20.9655,0
1.3986,9.533837E-05,20.979,0,1.3986,-0.0001044022,20.979,0
1.3995,3.591974E-05,20.9925,0,1.3995,0.0001255512,20.9925,0
1.4004,-7.888914E-05,21.006,0,1.4004,-5.941863E-05,21.006,0
1.4013,3.256275E-05,21.0195,0,1.4013,-0.0001678492,21.0195,0
1.4022,4.901198E-05,21.033,0,1.4022,-3.759823E-05,21.033,0
1.4031,-1.174945E-05,21.0465,0,1.4031,6.277562E-05,21.0465,0
1.404,-7.922484E-05,21.06,0,1.404,-1.342794E-06,21.06,0
1.4049,-1.846342E-05,21.0735,0,1.4049,-0.0001107805,21.0735,0
1.4058,0.0001121233,21.087,0,1.4058,-9.567407E-05,21.087,0
1.4067,-8.728161E-06,21.1005,0,1.4067,-0.0001107805,21.1005,0
1.4076,-0.000161471,21.114,0,1.4076,-0.0001997406,21.114,0
1.4085,-3.759823E-05,21.1275,0,1.4085,-0.0002803082,21.1275,0
1.4094,3.424125E-05,21.141,0,1.4094,-0.000274937,21.141,0
1.4103,-3.659113E-05,21.1545,0,1.4103,-0.0001520714,21.1545,0
1.4112,9.735256E-06,21.168,0,1.4112,-7.049668E-06,21.168,0
1.4121,7.888914E-05,21.1815,0,1.4121,0.000119173,21.1815,0
1.413,-1.947051E-05,21.195,0,1.413,0.0001926909,21.195,0
1.4139,0.0001107805,21.2085,0,1.4139,0.0004051881,21.2085,0
1.4148,0.0003434196,21.222,0,1.4148,0.0006495765,21.222,0
1.4157,0.0001738918,21.2355,0,1.4157,0.0005740444,21.2355,0
1.4166,2.081331E-05,21.249,0,1.4166,0.0003185779,21.249,0
1.4175,2.584878E-05,21.2625,0,1.4175,0.000203769,21.2625,0
1.4184,7.855344E-05,21.276,0,1.4184,9.634547E-05,21.276,0
1.4193,0.0001487144,21.2895,0,1.4193,-5.404745E-05,21.2895,0
1.4202,8.325322E-05,21.303,0,1.4202,-5.438316E-05,21.303,0
1.4211,-0.0001161517,21.3165,0,1.4211,-0.0001161517,21.3165,0
1.422,-5.807584E-05,21.33,0,1.422,-0.0001577783,21.33,0
1.4229,9.231708E-05,21.3435,0,1.4229,-0.0001701991,21.3435,0
1.4238,-0.0001319295,21.357,0,1.4238,-6.814679E-05,21.357,0
1.4247,-8.157473E-05,21.3705,0,1.4247,-5.236896E-05,21.3705,0
1.4256,0.0001215228,21.384,0,1.4256,-0.0001033951,21.384,0
1.4265,6.378271E-06,21.3975,0,1.4265,-5.304036E-05,21.3975,0
1.4274,-6.713969E-06,21.411,0,1.4274,-0.0001560998,21.411,0
1.4283,7.217517E-05,21.4245,0,1.4283,-0.0002356603,21.4245,0
1.4292,9.835965E-05,21.438,0,1.4292,-0.0001584497,21.438,0
1.4301,-5.337606E-05,21.4515,0,1.4301,-9.198138E-05,21.4515,0
1.431,-6.378271E-05,21.465,0,1.431,-8.157473E-05,21.465,0
1.4319,-5.807584E-05,21.4785,0,1.4319,-0.000112459,21.4785,0
1.4328,-0.000144686,21.492,0,1.4328,-0.0002380102,21.492,0
1.4337,-0.0001326009,21.5055,0,1.4337,-0.0001164874,21.5055,0
1.4346,-0.0001258869,21.519,0,1.4346,-3.524834E-05,21.519,0
1.4355,-0.0001164874,21.5325,0,1.4355,-0.0001117876,21.5325,0
1.4364,-1.309224E-05,21.546,0,1.4364,-0.0001708705,21.546,0
1.4373,3.054856E-05,21.5595,0,1.4373,-8.392462E-05,21.5595,0
1.4382,0.0003346914,21.573,0,1.4382,-9.600977E-05,21.573,0
1.4391,0.0004313726,21.5865,0,1.4391,-0.0002007477,21.5865,0
1.44,4.800488E-05,21.6,0,1.44,2.349889E-06,21.6,0
1.4409,1.309224E-05,21.6135,0,1.4409,-1.812772E-05,21.6135,0
1.4418,3.054856E-05,21.627,0,1.4418,-0.000102388,21.627,0
1.4427,6.143282E-05,21.6405,0,1.4427,4.39765E-05,21.6405,0
1.4436,-9.701686E-05,21.654,0,1.4436,0.0001070878,21.654,0
1.4445,-0.0001889983,21.6675,0,1.4445,1.980621E-05,21.6675,0
1.4454,-0.0001440146,21.681,0,1.4454,-3.021286E-06,21.681,0
1.4463,-8.89601E-05,21.6945,0,1.4463,-9.332418E-05,21.6945,0
1.4472,-6.076142E-05,21.708,0,1.4472,-7.855344E-05,21.708,0
1.4481,2.853437E-05,21.7215,0,1.4481,-0.0001346151,21.7215,0
1.449,-4.699779E-06,21.735,0,1.449,-0.0001994049,21.735,0
1.4499,-5.337606E-05,21.7485,0,1.4499,-0.0002188754,21.7485,0
1.4508,-7.217517E-05,21.762,0,1.4508,-2.047761E-05,21.762,0
1.4517,-0.0001027237,21.7755,0,1.4517,7.083238E-05,21.7755,0
1.4526,4.934768E-05,21.789,0,1.4526,3.591974E-05,21.789,0
1.4535,-5.841154E-05,21.8025,0,1.4535,0.0001339437,21.8025,0
1.4544,-0.0001292439,21.816,0,1.4544,0.000203769,21.816,0
1.4553,-0.0001067521,21.8295,0,1.4553,6.6804E-05,21.8295,0
1.4562,-0.0001309224,21.843,0,1.4562,8.224613E-05,21.843,0
1.4571,-0.0001987335,21.8565,0,1.4571,0.0001218585,21.8565,0
1.458,-0.0001305867,21.87,0,1.458,1.980621E-05,21.87,0
1.4589,-0.0001762417,21.8835,0,1.4589,3.121996E-05,21.8835,0
1.4598,-2.887007E-05,21.897,0,1.4598,3.692683E-06,21.897,0
1.4607,6.143282E-05,21.9105,0,1.4607,2.853437E-05,21.9105,0
1.4616,-0.0001305867,21.924,0,1.4616,6.6804E-05,21.924,0
1.4625,-8.560311E-05,21.9375,0,1.4625,-3.256275E-05,21.9375,0
1.4634,9.063859E-05,21.951,0,1.4634,-0.0001950408,21.951,0
1.4643,-4.33051E-05,21.9645,0,1.4643,-0.0001490501,21.9645,0
1.4652,-4.766919E-05,21.978,0,1.4652,-0.0001483787,21.978,0
1.4661,5.136187E-05,21.9915,0,1.4661,-0.000246067,21.9915,0
1.467,-4.867628E-05,22.005,0,1.467,-3.457694E-05,22.005,0
1.4679,-5.471885E-05,22.0185,0,1.4679,0.0002192111,22.0185,0
1.4688,0.0001003738,22.032,0,1.4688,0.0002279393,22.032,0
1.4697,0.0002306248,22.0455,0,1.4697,0.0002413672,22.0455,0
1.4706,-5.673304E-05,22.059,0,1.4706,6.915389E-05,22.059,0
1.4715,1.174945E-05,22.0725,0,1.4715,-3.491264E-05,22.0725,0
1.4724,0.0001097734,22.086,0,1.4724,-7.183947E-05,22.086,0
1.4733,0.0001258869,22.0995,0,1.4733,-6.64683E-05,22.0995,0
1.4742,4.36408E-05,22.113,0,1.4742,9.835965E-05,22.113,0
1.4751,-0.0001064164,22.1265,0,1.4751,-9.063859E-06,22.1265,0
1.476,-2.484169E-05,22.14,0,1.476,-4.263371E-05,22.14,0
1.4769,2.349889E-06,22.1535,0,1.4769,-5.471885E-05,22.1535,0
1.4778,-7.049668E-05,22.167,0,1.4778,-6.143282E-05,22.167,0
1.4787,-6.378271E-06,22.1805,0,1.4787,-0.0001044022,22.1805,0
1.4796,5.941863E-05,22.194,0,1.4796,-0.0001708705,22.194,0
1.4805,3.088426E-05,22.2075,0,1.4805,2.24918E-05,22.2075,0
1.4814,0.0001205158,22.221,0,1.4814,6.64683E-05,22.221,0
1.4823,0.000158114,22.2345,0,1.4823,8.661021E-05,22.2345,0
1.4832,0.000158114,22.248,0,1.4832,0.0002077974,22.248,0
1.4841,5.471885E-05,22.2615,0,1.4841,-1.712062E-05,22.2615,0
1.485,-2.014191E-05,22.275,0,1.485,-0.0004263371,22.275,0
1.4859,9.735256E-06,22.2885,0,1.4859,-0.0005055619,22.2885,0
1.4868,7.217517E-05,22.302,0,1.4868,-0.0004256657,22.302,0
1.4877,7.217517E-05,22.3155,0,1.4877,-5.169757E-05,22.3155,0
1.4886,-2.987716E-05,22.329,0,1.4886,0.0004246586,22.329,0
1.4895,7.553216E-05,22.3425,0,1.4895,0.0006596475,22.3425,0
1.4904,0.0001067521,22.356,0,1.4904,0.0006072785,22.356,0
1.4913,-6.814679E-05,22.3695,0,1.4913,0.0004897841,22.3695,0
1.4922,-1.208515E-05,22.383,0,1.4922,0.0002668803,22.383,0
1.4931,0.0001111162,22.3965,0,1.4931,2.24918E-05,22.3965,0
1.494,-0.0001373007,22.41,0,1.494,5.203327E-05,22.41,0
1.4949,-0.0001829557,22.4235,0,1.4949,-5.069047E-05,22.4235,0
1.4958,6.378271E-06,22.437,0,1.4958,-0.000186984,22.437,0
1.4967,-3.927672E-05,22.4505,0,1.4967,-0.0001728847,22.4505,0
1.4976,-0.0001399863,22.464,0,1.4976,-0.0001560998,22.464,0
1.4985,-0.0001050736,22.4775,0,1.4985,-0.0002752728,22.4775,0
1.4994,-0.0002809796,22.491,0,1.4994,-0.0003038071,22.491,0
1.5003,-0.0003215991,22.5045,0,1.5003,-0.0003182421,22.5045,0
1.5012,-0.0002242466,22.518,0,1.5012,-0.000231632,22.518,0
1.5021,-0.0001846342,22.5315,0,1.5021,-6.881819E-05,22.5315,0
1.503,-9.466698E-05,22.545,0,1.503,3.323415E-05,22.545,0
1.5039,0.0002500954,22.5585,0,1.5039,-5.706874E-06,22.5585,0
1.5048,0.0005105974,22.572,0,1.5048,0.0001161517,22.572,0
1.5057,0.0004817273,22.5855,0,1.5057,0.0001359579,22.5855,0
1.5066,0.0003175708,22.599,0,1.5066,-7.049668E-06,22.599,0
1.5075,0.0001003738,22.6125,0,1.5075,-3.356985E-07,22.6125,0
1.5084,-2.21561E-05,22.626,0,1.5084,-4.599069E-05,22.626,0
1.5093,3.021286E-05,22.6395,0,1.5093,-0.0001571069,22.6395,0
1.5102,-2.987716E-05,22.653,0,1.5102,-9.097429E-05,22.653,0
1.5111,-0.000140322,22.6665,0,1.5111,-5.136187E-05,22.6665,0
1.512,-0.0001366293,22.68,0,1.512,-6.143282E-05,22.68,0
1.5129,-3.826963E-05,22.6935,0,1.5129,-9.365987E-05,22.6935,0
1.5138,0.0001393149,22.707,0,1.5138,-0.0001111162,22.707,0
1.5147,8.023193E-05,22.7205,0,1.5147,-5.539025E-05,22.7205,0
1.5156,2.652018E-05,22.734,0,1.5156,-5.941863E-05,22.734,0
1.5165,1.712062E-05,22.7475,0,1.5165,-9.231708E-05,22.7475,0
1.5174,0.0001379721,22.761,0,1.5174,-8.526741E-05,22.761,0
1.5183,6.042573E-06,22.7745,0,1.5183,3.021286E-05,22.7745,0
1.5192,-0.000144686,22.788,0,1.5192,9.735256E-06,22.788,0
1.5201,-5.471885E-05,22.8015,0,1.5201,-8.224613E-05,22.8015,0
1.521,-0.0001111162,22.815,0,1.521,1.779202E-05,22.815,0
1.5219,-0.0002806439,22.8285,0,1.5219,2.618448E-05,22.8285,0
1.5228,-0.0003135424,22.842,0,1.5228,-9.701686E-05,22.842,0
1.5237,-0.0004669566,22.8555,0,1.5237,-1.309224E-05,22.8555,0
1.5246,-0.0004098878,22.869,0,1.5246,2.786297E-05,22.869,0
1.5255,-0.0002366674,22.8825,0,1.5255,-5.136187E-05,22.8825,0
1.5264,-3.356985E-07,22.896,0,1.5264,-0.0001265583,22.896,0
1.5273,0.0004528573,22.9095,0,1.5273,-0.0002497597,22.9095,0
1.5282,0.0005663233,22.923,0,1.5282,-0.0001560998,22.923,0
1.5291,0.0001379721,22.9365,0,1.5291,-0.000115816,22.9365,0
1.53,1.174945E-05,22.95,0,1.53,-6.243992E-05,22.95,0
1.5309,1.913481E-05,22.9635,0,1.5309,3.524834E-05,22.9635,0
1.5318,-0.0001651637,22.977,0,1.5318,0.000295079,22.977,0
1.5327,-0.0001413291,22.9905,0,1.5327,0.0002692302,22.9905,0
1.5336,5.841154E-05,23.004,0,1.5336,0.000126894,23.004,0
1.5345,-0.0001621424,23.0175,0,1.5345,2.417029E-05,23.0175,0
1.5354,-4.599069E-05,23.031,0,1.5354,-2.819867E-05,23.031,0
1.5363,7.083238E-05,23.0445,0,1.5363,-0.0001359579,23.0445,0
1.5372,-1.611353E-05,23.058,0,1.5372,-0.0001171588,23.058,0
1.5381,4.095522E-05,23.0715,0,1.5381,-1.443504E-05,23.0715,0
1.539,0.0001164874,23.085,0,1.539,-2.618448E-05,23.085,0
1.5399,-3.356985E-07,23.0985,0,1.5399,-9.365987E-05,23.0985,0
1.5408,-6.009003E-05,23.112,0,1.5408,-0.0002329748,23.112,0
1.5417,-6.478981E-05,23.1255,0,1.5417,-5.371176E-05,23.1255,0
1.5426,-0.0001305867,23.139,0,1.5426,2.21561E-05,23.139,0
1.5435,-3.054856E-05,23.1525,0,1.5435,5.975433E-05,23.1525,0
1.5444,2.081331E-05,23.166,0,1.5444,0.0001225299,23.166,0
1.5453,-2.047761E-05,23.1795,0,1.5453,0.0001822843,23.1795,0
1.5462,-6.478981E-05,23.193,0,1.5462,0.0001654994,23.193,0
1.5471,1.644922E-05,23.2065,0,1.5471,1.577783E-05,23.2065,0
1.548,-7.586786E-05,23.22,0,1.548,0.0001695277,23.22,0
1.5489,-0.0001346151,23.2335,0,1.5489,0.0001876554,23.2335,0
1.5498,1.712062E-05,23.247,0,1.5498,0.0001054093,23.247,0
1.5507,-7.721065E-06,23.2605,0,1.5507,0.0001080949,23.2605,0
1.5516,-0.0002098116,23.274,0,1.5516,-3.894102E-05,23.274,0
1.5525,-8.761731E-05,23.2875,0,1.5525,-0.0001661708,23.2875,0
1.5534,5.203327E-05,23.301,0,1.5534,-0.0003152209,23.301,0
1.5543,3.927672E-05,23.3145,0,1.5543,-0.0004753491,23.3145,0
1.5552,9.634547E-05,23.328,0,1.5552,-0.0003669185,23.328,0
1.5561,0.000102388,23.3415,0,1.5561,-0.0002020905,23.3415,0
1.557,0.0001037308,23.355,0,1.557,-0.0001507286,23.355,0
1.5579,0.0001463645,23.3685,0,1.5579,4.766919E-05,23.3685,0
1.5588,3.121996E-05,23.382,0,1.5588,0.0004870985,23.382,0
1.5597,5.941863E-05,23.3955,0,1.5597,0.0005884795,23.3955,0
1.5606,0.0001097734,23.409,0,1.5606,0.0003269703,23.409,0
1.5615,3.356985E-07,23.4225,0,1.5615,0.0002897078,23.4225,0
1.5624,6.881819E-05,23.436,0,1.5624,0.0001668421,23.436,0
1.5633,0.0001134661,23.4495,0,1.5633,6.478981E-05,23.4495,0
1.5642,7.989624E-05,23.463,0,1.5642,4.162661E-05,23.463,0
1.5651,1.443504E-05,23.4765,0,1.5651,4.028382E-06,23.4765,0
1.566,-2.417029E-05,23.49,0,1.566,1.577783E-05,23.49,0
1.5669,-7.653925E-05,23.5035,0,1.5669,-2.047761E-05,23.5035,0
1.5678,-2.987716E-05,23.517,0,1.5678,-0.0001540856,23.517,0
1.5687,-6.6804E-05,23.5305,0,1.5687,-9.164568E-05,23.5305,0
1.5696,-0.0001883268,23.544,0,1.5696,-2.24918E-05,23.544,0
1.5705,-5.471885E-05,23.5575,0,1.5705,-5.606165E-05,23.5575,0
1.5714,0.000102388,23.571,0,1.5714,-5.941863E-05,23.571,0
1.5723,-7.586786E-05,23.5845,0,1.5723,3.692683E-06,23.5845,0
1.5732,-5.471885E-05,23.598,0,1.5732,-0.0001819486,23.598,0
1.5741,0.0001232013,23.6115,0,1.5741,-0.0003682612,23.6115,0
1.575,-5.673304E-05,23.625,0,1.575,-0.000288365,23.625,0
1.5759,-9.298848E-05,23.6385,0,1.5759,-0.000322942,23.6385,0
1.5768,9.567407E-05,23.652,0,1.5768,-0.0003205921,23.652,0
1.5777,0.0001426719,23.6655,0,1.5777,-0.0001326009,23.6655,0
1.5786,-0.0001225299,23.679,0,1.5786,0.0001755703,23.679,0
1.5795,-9.835965E-05,23.6925,0,1.5795,5.941863E-05,23.6925,0
1.5804,-0.0001178302,23.706,0,1.5804,-6.344701E-05,23.706,0
1.5813,-5.304036E-05,23.7195,0,1.5813,-0.0001168231,23.7195,0
1.5822,-0.0001517357,23.733,0,1.5822,-6.478981E-05,23.733,0
1.5831,-0.0001688563,23.7465,0,1.5831,-8.728161E-06,23.7465,0
1.584,5.136187E-05,23.76,0,1.584,-4.53193E-05,23.76,0
1.5849,0.0002628519,23.7735,0,1.5849,-7.016098E-05,23.7735,0
1.5858,0.0003541619,23.787,0,1.5858,7.217517E-05,23.787,0
1.5867,0.0002500954,23.8005,0,1.5867,-4.028382E-06,23.8005,0
1.5876,0.0001607996,23.814,0,1.5876,-0.0001027237,23.814,0
1.5885,8.459602E-05,23.8275,0,1.5885,3.524834E-05,23.8275,0
1.5894,4.733349E-05,23.841,0,1.5894,2.786297E-05,23.841,0
1.5903,7.351797E-05,23.8545,0,1.5903,-6.277562E-05,23.8545,0
1.5912,0.000179263,23.868,0,1.5912,-0.0001221943,23.868,0
1.5921,-0.0001138018,23.8815,0,1.5921,-5.438316E-05,23.8815,0
1.593,-0.0001567712,23.895,0,1.593,-2.047761E-05,23.895,0
1.5939,-0.0001245441,23.9085,0,1.5939,-2.719158E-05,23.9085,0
1.5948,-1.879912E-05,23.922,0,1.5948,5.035477E-06,23.922,0
1.5957,-2.920577E-05,23.9355,0,1.5957,0.0002333104,23.9355,0
1.5966,-0.000235996,23.949,0,1.5966,0.0002242466,23.949,0
1.5975,-0.0001752346,23.9625,0,1.5975,6.814679E-05,23.9625,0
1.5984,-0.000109102,23.976,0,1.5984,-5.706874E-06,23.976,0
1.5993,-0.0002433814,23.9895,0,1.5993,8.157473E-05,23.9895,0
1.6002,-0.0001238727,24.003,0,1.6002,2.853437E-05,24.003,0
1.6011,7.620356E-05,24.0165,0,1.6011,-0.0001148089,24.0165,0
1.602,6.109713E-05,24.03,0,1.602,2.920577E-05,24.03,0
1.6029,-4.129091E-05,24.0435,0,1.6029,2.819867E-05,24.0435,0
1.6038,-5.102617E-05,24.057,0,1.6038,-7.351797E-05,24.057,0
1.6047,4.666209E-05,24.0705,0,1.6047,-5.706874E-06,24.0705,0
1.6056,-8.358892E-05,24.084,0,1.6056,3.189136E-05,24.084,0
1.6065,-1.275654E-05,24.0975,0,1.6065,-1.275654E-05,24.0975,0
1.6074,-0.0001279011,24.111,0,1.6074,-6.814679E-05,24.111,0
1.6083,-3.524834E-05,24.1245,0,1.6083,-5.304036E-05,24.1245,0
1.6092,2.819867E-05,24.138,0,1.6092,-7.083238E-05,24.138,0
1.6101,-2.24918E-05,24.1515,0,1.6101,-0.0001879911,24.1515,0
1.611,4.263371E-05,24.165,0,1.611,-0.0001654994,24.165,0
1.6119,5.471885E-05,24.1785,0,1.6119,-0.0001399863,24.1785,0
1.6128,-0.0001121233,24.192,0,1.6128,-4.263371E-05,24.192,0
1.6137,-0.0001816129,24.2055,0,1.6137,5.774014E-05,24.2055,0
1.6146,2.618448E-05,24.219,0,1.6146,5.874724E-05,24.219,0
1.6155,-0.0001000381,24.2325,0,1.6155,0.000164828,24.2325,0
1.6164,-0.0002044404,24.246,0,1.6164,0.0001205158,24.246,0
1.6173,-0.0001312581,24.2595,0,1.6173,5.035477E-06,24.2595,0
1.6182,-5.572595E-05,24.273,0,1.6182,-2.652018E-05,24.273,0
1.6191,-0.0001413291,24.2865,0,1.6191,-1.678492E-06,24.2865,0
1.62,1.376364E-05,24.3,0,1.62,-6.109713E-05,24.3,0
1.6209,0.0001003738,24.3135,0,1.6209,-8.96315E-05,24.3135,0
1.6218,0.0001245441,24.327,0,1.6218,-0.0001359579,24.327,0
1.6227,9.298848E-05,24.3405,0,1.6227,-0.0001282368,24.3405,0
1.6236,3.189136E-05,24.354,0,1.6236,-9.970245E-05,24.354,0
1.6245,2.987716E-05,24.3675,0,1.6245,-3.121996E-05,24.3675,0
1.6254,0.0001144732,24.381,0,1.6254,7.855344E-05,24.381,0
1.6263,5.337606E-05,24.3945,0,1.6263,0.000105745,24.3945,0
1.6272,-3.054856E-05,24.408,0,1.6272,3.289845E-05,24.408,0
1.6281,0.0001164874,24.4215,0,1.6281,-3.491264E-05,24.4215,0
1.629,3.726253E-05,24.435,0,1.629,8.426032E-05,24.435,0
1.6299,0.0001164874,24.4485,0,1.6299,-8.392462E-06,24.4485,0
1.6308,0.0002339818,24.462,0,1.6308,-0.0001453574,24.462,0
1.6317,0.0001628138,24.4755,0,1.6317,-7.888914E-05,24.4755,0
1.6326,4.867628E-05,24.489,0,1.6326,-4.53193E-05,24.489,0
1.6335,2.786297E-05,24.5025,0,1.6335,-5.539025E-05,24.5025,0
1.6344,7.821774E-05,24.516,0,1.6344,7.620356E-05,24.516,0
1.6353,0.0001795987,24.5295,0,1.6353,0.0001386435,24.5295,0
1.6362,1.409934E-05,24.543,0,1.6362,0.0001661708,24.543,0
1.6371,-0.0001601282,24.5565,0,1.6371,0.0001621424,24.5565,0
1.638,-2.450599E-05,24.57,0,1.638,6.378271E-06,24.57,0
1.6389,1.644922E-05,24.5835,0,1.6389,6.042573E-06,24.5835,0
1.6398,-9.097429E-05,24.597,0,1.6398,0.0001060807,24.597,0
1.6407,-2.28275E-05,24.6105,0,1.6407,-4.33051E-05,24.6105,0
1.6416,0.0001148089,24.624,0,1.6416,-0.0002245823,24.624,0
1.6425,-0.0001013809,24.6375,0,1.6425,-0.0001574426,24.6375,0
1.6434,-3.927672E-05,24.651,0,1.6434,-7.620356E-05,24.651,0
1.6443,0.0001070878,24.6645,0,1.6443,-0.0001628138,24.6645,0
1.6452,-5.001907E-05,24.678,0,1.6452,-0.0002977645,24.678,0
1.6461,-8.627451E-05,24.6915,0,1.6461,-0.0001487144,24.6915,0
1.647,5.874724E-05,24.705,0,1.647,-4.800488E-05,24.705,0
1.6479,2.1149E-05,24.7185,0,1.6479,-3.894102E-05,24.7185,0
1.6488,4.43122E-05,24.732,0,1.6488,-6.61326E-05,24.732,0
1.6497,4.901198E-05,24.7455,0,1.6497,0.0001896696,24.7455,0
1.6506,-7.855344E-05,24.759,0,1.6506,0.0003232776,24.759,0
1.6515,-3.591974E-05,24.7725,0,1.6515,0.0002547952,24.7725,0
1.6524,5.203327E-05,24.786,0,1.6524,0.0001762417,24.786,0
1.6533,2.047761E-05,24.7995,0,1.6533,0.0001943694,24.7995,0
1.6542,-7.284657E-05,24.813,0,1.6542,8.123904E-05,24.813,0
1.6551,2.316319E-05,24.8265,0,1.6551,-5.572595E-05,24.8265,0
1.656,-3.659113E-05,24.84,0,1.656,1.007095E-06,24.84,0
1.6569,-6.78111E-05,24.8535,0,1.6569,2.24918E-05,24.8535,0
1.6578,-0.0001151446,24.867,0,1.6578,-7.016098E-05,24.867,0
1.6587,4.565499E-05,24.8805,0,1.6587,-6.210422E-05,24.8805,0
1.6596,1.007095E-06,24.894,0,1.6596,-3.256275E-05,24.894,0
1.6605,4.36408E-06,24.9075,0,1.6605,-0.0001171588,24.9075,0
1.6614,8.69459E-05,24.921,0,1.6614,-0.0001138018,24.921,0
1.6623,1.040665E-05,24.9345,0,1.6623,-8.191043E-05,24.9345,0
1.6632,-1.275654E-05,24.948,0,1.6632,-3.189136E-05,24.948,0
1.6641,-1.107805E-05,24.9615,0,1.6641,-0.0001003738,24.9615,0
1.665,9.903105E-05,24.975,0,1.665,-0.0001399863,24.975,0
1.6659,7.486076E-05,24.9885,0,1.6659,-0.0002245823,24.9885,0
1.6668,-0.000102388,25.002,0,1.6668,-0.000169192,25.002,0
1.6677,-7.016098E-05,25.0155,0,1.6677,-0.0001232013,25.0155,0
1.6686,5.404745E-05,25.029,0,1.6686,-0.0001503929,25.029,0
1.6695,-5.337606E-05,25.0425,0,1.6695,-0.0001054093,25.0425,0
1.6704,-7.418937E-05,25.056,0,1.6704,3.021286E-06,25.056,0
1.6713,-7.217517E-05,25.0695,0,1.6713,5.035477E-06,25.0695,0
1.6722,-0.0002474098,25.083,0,1.6722,7.586786E-05,25.083,0
1.6731,-0.0002517739,25.0965,0,1.6731,2.786297E-05,25.0965,0
1.674,-0.0002641947,25.11,0,1.674,0,25.11,0
1.6749,-0.0002131685,25.1235,0,1.6749,8.056763E-06,25.1235,0
1.6758,8.191043E-05,25.137,0,1.6758,-0.0001228656,25.137,0
1.6767,0.0002709087,25.1505,0,1.6767,-2.349889E-06,25.1505,0
1.6776,0.000218204,25.164,0,1.6776,5.169757E-05,25.164,0
1.6785,0.0001252155,25.1775,0,1.6785,-1.040665E-05,25.1775,0
1.6794,0.0001312581,25.191,0,1.6794,8.392462E-06,25.191,0
1.6803,-0.0001242084,25.2045,0,1.6803,6.54612E-05,25.2045,0
1.6812,-0.0001238727,25.218,0,1.6812,1.779202E-05,25.218,0
1.6821,6.076142E-05,25.2315,0,1.6821,-5.941863E-05,25.2315,0
1.683,-8.123904E-05,25.245,0,1.683,7.888914E-05,25.245,0
1.6839,3.894102E-05,25.2585,0,1.6839,5.203327E-05,25.2585,0
1.6848,0.0001842985,25.272,0,1.6848,-7.956054E-05,25.272,0
1.6857,0.0001168231,25.2855,0,1.6857,-4.39765E-05,25.2855,0
1.6866,-9.634547E-05,25.299,0,1.6866,3.961242E-05,25.299,0
1.6875,-8.82887E-05,25.3125,0,1.6875,-1.712062E-05,25.3125,0
1.6884,-2.383459E-05,25.326,0,1.6884,-3.323415E-05,25.326,0
1.6893,-1.812772E-05,25.3395,0,1.6893,-5.136187E-05,25.3395,0
1.6902,4.162661E-05,25.353,0,1.6902,3.021286E-05,25.353,0
1.6911,-5.035477E-05,25.3665,0,1.6911,2.1149E-05,25.3665,0
1.692,6.009003E-05,25.38,0,1.692,-9.936675E-05,25.38,0
1.6929,0.0001607996,25.3935,0,1.6929,-0.0001661708,25.3935,0
1.6938,-0.0001185016,25.407,0,1.6938,-1.812772E-05,25.407,0
1.6947,-0.0001668421,25.4205,0,1.6947,-5.807584E-05,25.4205,0
1.6956,4.229801E-05,25.434,0,1.6956,-0.0001215228,25.434,0
1.6965,-1.443504E-05,25.4475,0,1.6965,4.53193E-05,25.4475,0
1.6974,-7.351797E-05,25.461,0,1.6974,6.042573E-05,25.461,0
1.6983,-1.107805E-05,25.4745,0,1.6983,-7.418937E-05,25.4745,0
1.6992,-5.841154E-05,25.488,0,1.6992,-0.0001517357,25.488,0
1.7001,-0.000115816,25.5015,0,1.7001,-0.0001252155,25.5015,0
1.701,-0.0001151446,25.515,0,1.701,-0.0001436789,25.515,0
1.7019,-2.584878E-05,25.5285,0,1.7019,-7.049668E-06,25.5285,0
1.7028,6.61326E-05,25.542,0,1.7028,-0.0001134661,25.542,0
1.7037,4.733349E-05,25.5555,0,1.7037,-0.0001550927,25.5555,0
1.7046,-1.107805E-05,25.569,0,1.7046,-5.371176E-06,25.569,0
1.7055,7.284657E-05,25.5825,0,1.7055,0.0001080949,25.5825,0
1.7064,7.351797E-05,25.596,0,1.7064,2.752728E-05,25.596,0
1.7073,-9.399558E-06,25.6095,0,1.7073,0.0002118257,25.6095,0
1.7082,4.800488E-05,25.623,0,1.7082,0.0003226062,25.623,0
1.7091,5.438316E-05,25.6365,0,1.7091,0.0002232395,25.6365,0
1.71,-8.258183E-05,25.65,0,1.71,0.0001591211,25.65,0
1.7109,-0.0001765774,25.6635,0,1.7109,0.0001322652,25.6635,0
1.7118,-0.0001067521,25.677,0,1.7118,-3.726253E-05,25.677,0
1.7127,-8.023193E-05,25.6905,0,1.7127,-4.901198E-05,25.6905,0
1.7136,-0.0001560998,25.704,0,1.7136,-4.095522E-05,25.704,0
1.7145,-4.46479E-05,25.7175,0,1.7145,-9.433127E-05,25.7175,0
1.7154,-1.443504E-05,25.731,0,1.7154,-2.450599E-05,25.731,0
1.7163,8.795301E-05,25.7445,0,1.7163,-6.478981E-05,25.7445,0
1.7172,0.0001607996,25.758,0,1.7172,2.1149E-05,25.758,0
1.7181,8.69459E-05,25.7715,0,1.7181,-3.692683E-05,25.7715,0
1.719,9.768826E-05,25.785,0,1.719,-0.0001295796,25.785,0
1.7199,0.0001765774,25.7985,0,1.7199,-0.0001305867,25.7985,0
1.7208,-7.049668E-06,25.812,0,1.7208,-6.74754E-05,25.812,0
1.7217,-4.766919E-05,25.8255,0,1.7217,-0.000161471,25.8255,0
1.7226,8.560311E-05,25.839,0,1.7226,-0.0002732586,25.839,0
1.7235,-5.035477E-05,25.8525,0,1.7235,-9.768826E-05,25.8525,0
1.7244,-0.0001594568,25.866,0,1.7244,-4.599069E-05,25.866,0
1.7253,-3.692683E-05,25.8795,0,1.7253,6.378271E-06,25.8795,0
1.7262,7.351797E-05,25.893,0,1.7262,0.0001920195,25.893,0
1.7271,-0.0001574426,25.9065,0,1.7271,0.0001802701,25.9065,0
1.728,-9.097429E-05,25.92,0,1.728,7.083238E-05,25.92,0
1.7289,4.699779E-06,25.9335,0,1.7289,-3.927672E-05,25.9335,0
1.7298,1.409934E-05,25.947,0,1.7298,-0.0001332723,25.947,0
1.7307,2.719158E-05,25.9605,0,1.7307,-2.1149E-05,25.9605,0
1.7316,0.0001077592,25.974,0,1.7316,0.0001715419,25.974,0
1.7325,3.558404E-05,25.9875,0,1.7325,0.0002923934,25.9875,0
1.7334,3.390555E-05,26.001,0,1.7334,0.000164828,26.001,0
1.7343,-3.793393E-05,26.0145,0,1.7343,1.846342E-05,26.0145,0
1.7352,-7.553216E-05,26.028,0,1.7352,-8.795301E-05,26.028,0
1.7361,0.0001456931,26.0415,0,1.7361,-0.000164828,26.0415,0
1.737,8.157473E-05,26.055,0,1.737,1.007095E-06,26.055,0
1.7379,6.814679E-05,26.0685,0,1.7379,9.298848E-05,26.0685,0
1.7388,5.740444E-05,26.082,0,1.7388,-0.0001413291,26.082,0
1.7397,-9.030289E-05,26.0955,0,1.7397,-9.198138E-05,26.0955,0
1.7406,-9.399557E-05,26.109,0,1.7406,-5.606165E-05,26.109,0
1.7415,-6.61326E-05,26.1225,0,1.7415,-0.0001822843,26.1225,0
1.7424,-5.673304E-05,26.136,0,1.7424,-0.0002175326,26.136,0
1.7433,3.155566E-05,26.1495,0,1.7433,-0.0002944076,26.1495,0
1.7442,-5.941863E-05,26.163,0,1.7442,-0.0002715801,26.163,0
1.7451,-0.0001829557,26.1765,0,1.7451,-8.996719E-05,26.1765,0
1.746,-9.903105E-05,26.19,0,1.746,0.0001315938,26.19,0
1.7469,-0.0001386435,26.2035,0,1.7469,0.0001352865,26.2035,0
1.7478,-0.0001675135,26.217,0,1.7478,0.0002145113,26.217,0
1.7487,0.0001003738,26.2305,0,1.7487,0.0001765774,26.2305,0
1.7496,0.0003044785,26.244,0,1.7496,5.706874E-06,26.244,0
1.7505,9.097429E-05,26.2575,0,1.7505,4.196231E-05,26.2575,0
1.7514,9.735256E-05,26.271,0,1.7514,5.807584E-05,26.271,0
1.7523,0.0001430075,26.2845,0,1.7523,-1.443504E-05,26.2845,0
1.7532,0.0001500572,26.298,0,1.7532,5.001907E-05,26.298,0
1.7541,5.169757E-05,26.3115,0,1.7541,9.433127E-05,26.3115,0
1.755,6.982528E-05,26.325,0,1.755,3.054856E-05,26.325,0
1.7559,5.941863E-05,26.3385,0,1.7559,-3.289845E-05,26.3385,0
1.7568,0.0001185016,26.352,0,1.7568,-0.000119173,26.352,0
1.7577,3.021286E-05,26.3655,0,1.7577,-3.659113E-05,26.3655,0
1.7586,-0.0001198444,26.379,0,1.7586,-5.471885E-05,26.379,0
1.7595,-0.0001037308,26.3925,0,1.7595,-0.0001470359,26.3925,0
1.7604,-8.224613E-05,26.406,0,1.7604,-0.0001785916,26.406,0
1.7613,-0.0002212253,26.4195,0,1.7613,-8.426032E-05,26.4195,0
1.7622,-0.0003387198,26.433,0,1.7622,-0.0001151446,26.433,0
1.7631,-0.000119173,26.4465,0,1.7631,-0.0002198825,26.4465,0
1.764,-3.491264E-05,26.46,0,1.764,-0.0001426719,26.46,0
1.7649,-8.89601E-05,26.4735,0,1.7649,-0.0001658351,26.4735,0
1.7658,5.203327E-05,26.487,0,1.7658,-0.0003283131,26.487,0
1.7667,0.0001151446,26.5005,0,1.7667,-0.000267216,26.5005,0
1.7676,9.735256E-06,26.514,0,1.7676,-0.0002265965,26.514,0
1.7685,5.807584E-05,26.5275,0,1.7685,-3.659113E-05,26.5275,0
1.7694,1.376364E-05,26.541,0,1.7694,0.0002158541,26.541,0
1.7703,-3.659113E-05,26.5545,0,1.7703,0.0003853819,26.5545,0
1.7712,9.735256E-06,26.568,0,1.7712,0.0003823606,26.568,0
1.7721,-2.853437E-05,26.5815,0,1.7721,0.0003024643,26.5815,0
1.773,-9.735256E-06,26.595,0,1.773,0.0001607996,26.595,0
1.7739,-4.867628E-05,26.6085,0,1.7739,6.948959E-05,26.6085,0
1.7748,-0.000109102,26.622,0,1.7748,0.0001346151,26.622,0
1.7757,-9.097429E-05,26.6355,0,1.7757,9.164568E-05,26.6355,0
1.7766,1.342794E-06,26.649,0,1.7766,-5.471885E-05,26.649,0
1.7775,-4.33051E-05,26.6625,0,1.7775,3.994812E-05,26.6625,0
1.7784,3.256275E-05,26.676,0,1.7784,3.927672E-05,26.676,0
1.7793,4.934768E-05,26.6895,0,1.7793,-7.687495E-05,26.6895,0
1.7802,0.0001406577,26.703,0,1.7802,-0.0001060807,26.703,0
1.7811,3.256275E-05,26.7165,0,1.7811,-4.061952E-05,26.7165,0
1.782,-7.821774E-05,26.73,0,1.782,-8.123904E-05,26.73,0
1.7829,-7.721065E-05,26.7435,0,1.7829,-0.0001050736,26.7435,0
1.7838,3.692683E-05,26.757,0,1.7838,-0.0001755703,26.757,0
1.7847,-0.0001003738,26.7705,0,1.7847,-0.0001842985,26.7705,0
1.7856,-0.0001772488,26.784,0,1.7856,-0.0001916838,26.784,0
1.7865,-9.399558E-06,26.7975,0,1.7865,-0.0003132067,26.7975,0
1.7874,7.116808E-05,26.811,0,1.7874,-0.0003685969,26.811,0
1.7883,-3.894102E-05,26.8245,0,1.7883,-0.0001607996,26.8245,0
1.7892,4.800488E-05,26.838,0,1.7892,-7.956054E-05,26.838,0
1.7901,0.0002440528,26.8515,0,1.7901,7.083238E-05,26.8515,0
1.791,5.774014E-05,26.865,0,1.791,0.0003205921,26.865,0
1.7919,0,26.8785,0,1.7919,0.0001436789,26.8785,0
1.7928,7.855344E-05,26.892,0,1.7928,9.634547E-05,26.892,0
1.7937,1.376364E-05,26.9055,0,1.7937,0.0001651637,26.9055,0
1.7946,-7.821774E-05,26.919,0,1.7946,0.0001587854,26.919,0
1.7955,-5.035477E-06,26.9325,0,1.7955,0.0001618067,26.9325,0
1.7964,-1.309224E-05,26.946,0,1.7964,9.768826E-05,26.946,0
1.7973,-3.524834E-05,26.9595,0,1.7973,-6.814679E-05,26.9595,0
1.7982,-3.591974E-05,26.973,0,1.7982,2.685588E-06,26.973,0
1.7991,-0.0001698634,26.9865,0,1.7991,-3.121996E-05,26.9865,0
1.8,-0.0001507286,27,0,1.8,-0.000186984,27,0
1.8009,-1.745632E-05,27.0135,0,1.8009,-0.0002443885,27.0135,0
1.8018,-0.0001013809,27.027,0,1.8018,-0.0001185016,27.027,0
1.8027,-5.069047E-05,27.0405,0,1.8027,-0.0001258869,27.0405,0
1.8036,0.0001393149,27.054,0,1.8036,-0.0001940337,27.054,0
1.8045,5.035477E-06,27.0675,0,1.8045,-0.0001809415,27.0675,0
1.8054,-2.316319E-05,27.081,0,1.8054,-3.054856E-05,27.081,0
1.8063,7.385367E-06,27.0945,0,1.8063,-6.54612E-05,27.0945,0
1.8072,6.311131E-05,27.108,0,1.8072,7.418937E-05,27.108,0
1.8081,-2.316319E-05,27.1215,0,1.8081,0.0002796368,27.1215,0
1.809,-4.867628E-05,27.135,0,1.809,0.0003031357,27.135,0
1.8099,-1.309224E-05,27.1485,0,1.8099,0.0003477836,27.1485,0
1.8108,2.786297E-05,27.162,0,1.8108,0.0001873197,27.162,0
1.8117,1.712062E-05,27.1755,0,1.8117,0.0001030594,27.1755,0
1.8126,-0.0001440146,27.189,0,1.8126,-4.129091E-05,27.189,0
1.8135,-9.231708E-05,27.2025,0,1.8135,-0.0001386435,27.2025,0
1.8144,-1.174945E-05,27.216,0,1.8144,-0.0002151827,27.216,0
1.8153,-4.39765E-05,27.2295,0,1.8153,-0.000130251,27.2295,0
1.8162,7.653925E-05,27.243,0,1.8162,-2.719158E-05,27.243,0
1.8171,0.000119173,27.2565,0,1.8171,-1.980621E-05,27.2565,0
1.818,6.378271E-06,27.27,0,1.818,-3.155566E-05,27.27,0
1.8189,0.0001077592,27.2835,0,1.8189,2.786297E-05,27.2835,0
1.8198,8.023193E-05,27.297,0,1.8198,-7.217517E-05,27.297,0
1.8207,0.0001574426,27.3105,0,1.8207,-5.337606E-05,27.3105,0
