X[s],"Trigno IM sensor 3: EMG 3 (IM)",X[s],"Trigno IM sensor 3: Mag 3.Z (IM)",X[s],"Trigno IM sensor 4: EMG 4 (IM)",X[s],"Trigno IM sensor 4: Mag 4.Z (IM)"
0.000000,-3.994812E-05,0.000000,123,0.000000,-2.047761E-05,0.000000,-3
0.0009,-0.0001205158,0.0135,124,0.0009,-3.323415E-05,0.0135,-2
0.0018,-0.0001111162,0.027,124,0.0018,-1.712062E-05,0.027,-1
0.0027,-6.076142E-05,0.0405,123,0.0027,-2.316319E-05,0.0405,-2
0.0036,7.049668E-06,0.054,123,0.0036,-1.208515E-05,0.054,-3
0.0045,5.539025E-05,0.0675,121,0.0045,-6.478981E-05,0.0675,0
0.0054,2.685588E-06,0.081,123,0.0054,-0.0001319295,0.081,-1
0.0063,9.433127E-05,0.0945,122,0.0063,-0.0001138018,0.0945,-3
0.0072,7.385367E-06,0.108,122,0.0072,-7.150377E-05,0.108,-2
0.0081,-0.0001997406,0.1215,121,0.0081,-7.116808E-05,0.1215,-2
0.009000001,-0.0001560998,0.135,122,0.009000001,-1.510643E-05,0.135,0
0.0099,-4.968337E-05,0.1485,123,0.0099,7.452507E-05,0.1485,-1
0.0108,-2.584878E-05,0.162,122,0.0108,7.486076E-05,0.162,-4
0.0117,6.411841E-05,0.1755,122,0.0117,4.43122E-05,0.1755,-1
0.0126,0.0001607996,0.189,122,0.0126,5.069047E-05,0.189,0
0.0135,0.0001097734,0.2025,123,0.0135,4.061952E-05,0.2025,-4
0.0144,-3.692683E-06,0.216,123,0.0144,7.721065E-06,0.216,-4
0.0153,-3.994812E-05,0.2295,124,0.0153,6.713969E-07,0.2295,-1
0.0162,-0.0001426719,0.243,122,0.0162,-0.000109102,0.243,-2
0.0171,-0.0001379721,0.2565,122,0.0171,-0.0001876554,0.2565,-5
0.018,-2.484169E-05,0.27,122,0.018,-0.0001567712,0.27,-2
0.0189,5.337606E-05,0.2835,123,0.0189,-9.365987E-05,0.2835,0
0.0198,6.344701E-05,0.297,123,0.0198,6.042573E-06,0.297,-2
0.0207,5.740444E-05,0.3105,123,0.0207,0.0001151446,0.3105,-2
0.0216,5.337606E-05,0.324,123,0.0216,0.000203769,0.324,-4
0.0225,-7.452507E-05,0.3375,123,0.0225,0.0001879911,0.3375,-3
0.0234,-3.524834E-05,0.351,123,0.0234,5.001907E-05,0.351,0
0.0243,3.256275E-05,0.3645,123,0.0243,-8.056764E-05,0.3645,-4
0.0252,-6.042573E-06,0.378,122,0.0252,-0.0001503929,0.378,0
0.0261,3.021286E-06,0.3915,123,0.0261,-0.0001560998,0.3915,0
0.027,2.719158E-05,0.405,123,0.027,-0.0001238727,0.405,0
0.0279,6.378271E-06,0.4185,122,0.0279,-5.236896E-05,0.4185,-1
0.0288,-1.477073E-05,0.432,123,0.0288,5.572595E-05,0.432,-2
0.0297,-1.678492E-06,0.4455,123,0.0297,0.0001769131,0.4455,0
0.0306,-2.21561E-05,0.459,123,0.0306,8.493171E-05,0.459,-3
0.0315,-1.678492E-05,0.4725,123,0.0315,-3.659113E-05,0.4725,-4
0.0324,5.438316E-05,0.486,124,0.0324,-0.0001030594,0.486,-1
0.0333,0.000144686,0.4995,125,0.0333,-7.721065E-05,0.4995,0
0.0342,0.0001701991,0.513,124,0.0342,-9.533837E-05,0.513,-1
0.0351,7.351797E-05,0.5265,123,0.0351,-0.0001148089,0.5265,-2
0.036,2.081331E-05,0.54,123,0.036,0,0.54,-1
0.0369,-5.706874E-06,0.5535,122,0.0369,9.198138E-05,0.5535,-1
0.0378,-0.0001755703,0.567,121,0.0378,0.0001198444,0.567,-3
0.0387,-0.0002272679,0.5805,122,0.0387,6.109713E-05,0.5805,-1
0.0396,-8.761731E-05,0.594,123,0.0396,-1.242084E-05,0.594,-2
0.0405,-2.450599E-05,0.6075,122,0.0405,-2.349889E-05,0.6075,-2
0.0414,-4.733349E-05,0.621,122,0.0414,6.378271E-06,0.621,-1
0.0423,-0.0001312581,0.6345,122,0.0423,-1.913481E-05,0.6345,-6
0.0432,-9.164568E-05,0.648,122,0.0432,-2.316319E-05,0.648,-1
0.0441,5.035477E-06,0.6615,121,0.0441,-2.047761E-05,0.6615,-3
0.045,2.920577E-05,0.675,121,0.045,-0.0001077592,0.675,-3
0.0459,1.007095E-06,0.6885,121,0.0459,-0.0001430075,0.6885,-5
0.0468,2.081331E-05,0.702,119,0.0468,-9.030289E-05,0.702,-5
0.0477,3.692683E-05,0.7155,120,0.0477,-7.553216E-05,0.7155,-4
0.0486,3.121996E-05,0.729,119,0.0486,-8.627451E-05,0.729,-4
0.0495,4.39765E-05,0.7425,119,0.0495,-1.309224E-05,0.7425,0
0.0504,7.821774E-05,0.756,120,0.0504,6.411841E-05,0.756,-2
0.0513,3.894102E-05,0.7695,119,0.0513,3.189136E-05,0.7695,-3
0.0522,-3.759823E-05,0.783,122,0.0522,-1.242084E-05,0.783,-2
0.0531,-8.82887E-05,0.7965,119,0.0531,-8.392462E-06,0.7965,-3
0.054,-6.176852E-05,0.81,120,0.054,-1.913481E-05,0.81,-2
0.0549,1.309224E-05,0.8235,120,0.0549,-3.994812E-05,0.8235,-5
0.0558,6.51255E-05,0.837,119,0.0558,-3.860533E-05,0.837,-2
0.0567,4.53193E-05,0.8505,121,0.0567,-2.18204E-05,0.8505,-5
0.0576,4.49836E-05,0.864,120,0.0576,-7.385367E-05,0.864,-4
0.0585,-2.484169E-05,0.8775,120,0.0585,-0.0001151446,0.8775,-2
0.0594,-9.433127E-05,0.891,120,0.0594,-0.0001171588,0.891,-5
0.0603,-8.82887E-05,0.9045,120,0.0603,-5.539025E-05,0.9045,-5
0.0612,-7.049668E-06,0.918,120,0.0612,-3.524834E-05,0.918,-4
0.0621,0.0001574426,0.9315,120,0.0621,-1.644922E-05,0.9315,-2
0.063,0.0001923552,0.945,120,0.063,7.217517E-05,0.945,-5
0.0639,0.000148043,0.9585,121,0.0639,6.076142E-05,0.9585,-4
0.0648,-3.155566E-05,0.972,119,0.0648,4.36408E-06,0.972,-2
0.0657,-0.0001097734,0.9855,120,0.0657,2.618448E-05,0.9855,-6
0.0666,-2.786297E-05,0.999,119,0.0666,4.867628E-05,0.999,-1
0.0675,-0.000112459,1.0125,120,0.0675,7.083238E-05,1.0125,0
0.0684,-0.0001101091,1.026,121,0.0684,9.466698E-05,1.026,-4
0.0693,-9.567407E-05,1.0395,121,0.0693,5.337606E-05,1.0395,-4
0.0702,-5.807584E-05,1.053,121,0.0702,2.652018E-05,1.053,-4
0.0711,-8.627451E-05,1.0665,120,0.0711,3.692683E-06,1.0665,-3
0.072,-0.0001094377,1.08,122,0.072,-4.162661E-05,1.08,-3
0.0729,-2.584878E-05,1.0935,120,0.0729,-0.0001054093,1.0935,-5
0.07380001,6.713969E-06,1.107,120,0.07380001,-0.0001279011,1.107,-1
0.07470001,-5.102617E-05,1.1205,121,0.07470001,-0.0002239109,1.1205,-3
0.0756,-8.392462E-06,1.134,119,0.0756,-0.0002484169,1.134,-1
0.0765,-3.256275E-05,1.1475,120,0.0765,-0.0001221943,1.1475,-3
0.0774,-9.298848E-05,1.161,121,0.0774,-2.349889E-05,1.161,-2
0.0783,-2.987716E-05,1.1745,122,0.0783,7.318227E-05,1.1745,-4
0.0792,2.383459E-05,1.188,121,0.0792,0.000175906,1.188,-6
0.0801,2.752728E-05,1.2015,120,0.0801,0.000203769,1.2015,-4
0.081,1.174945E-05,1.215,120,0.081,0.0001104448,1.215,-1
0.0819,3.390555E-05,1.2285,121,0.0819,1.242084E-05,1.2285,-5
0.0828,3.189136E-05,1.242,120,0.0828,-4.129091E-05,1.242,-3
0.0837,2.1149E-05,1.2555,122,0.0837,-1.275654E-05,1.2555,-4
0.0846,2.1149E-05,1.269,120,0.0846,9.063859E-06,1.269,-1
0.0855,2.719158E-05,1.2825,122,0.0855,-1.443504E-05,1.2825,-2
0.0864,3.424125E-05,1.296,120,0.0864,-4.33051E-05,1.296,-2
0.0873,6.78111E-05,1.3095,119,0.0873,-1.141375E-05,1.3095,-3
0.0882,5.404745E-05,1.323,119,0.0882,-3.591974E-05,1.323,-2
0.0891,1.309224E-05,1.3365,120,0.0891,-6.344701E-05,1.3365,-2
0.09,-2.887007E-05,1.35,120,0.09,-4.733349E-05,1.35,-2
0.0909,6.51255E-05,1.3635,121,0.0909,-5.203327E-05,1.3635,-1
0.0918,0.0001406577,1.377,120,0.0918,-5.438316E-05,1.377,-4
0.0927,0.0001900053,1.3905,119,0.0927,2.786297E-05,1.3905,-3
0.0936,0.0001863127,1.404,120,0.0936,0.0001017166,1.404,-1
0.09450001,0.0001275654,1.4175,119,0.09450001,1.779202E-05,1.4175,-3
0.09540001,-7.687495E-05,1.431,119,0.09540001,-1.107805E-05,1.431,-1
0.09630001,-0.000249424,1.4445,121,0.09630001,-2.786297E-05,1.4445,-2
0.0972,-0.0002628519,1.458,120,0.0972,-1.846342E-05,1.458,-1
0.0981,-0.0001983978,1.4715,120,0.0981,-8.392462E-06,1.4715,0
0.099,-2.920577E-05,1.485,119,0.099,-2.954147E-05,1.485,-4
0.0999,-1.040665E-05,1.4985,120,0.0999,-5.471885E-05,1.4985,-2
0.1008,-0.0001101091,1.512,119,0.1008,-4.263371E-05,1.512,-1
0.1017,-3.558404E-05,1.5255,121,0.1017,-3.659113E-05,1.5255,-1
0.1026,6.210422E-05,1.539,120,0.1026,-7.049668E-05,1.539,-3
0.1035,-8.795301E-05,1.5525,120,0.1035,-5.136187E-05,1.5525,-1
0.1044,-0.0001339437,1.566,120,0.1044,-0.0001389792,1.566,1
0.1053,-4.733349E-05,1.5795,120,0.1053,-0.0001866484,1.5795,-1
0.1062,-5.706874E-06,1.593,119,0.1062,-0.0001258869,1.593,-4
0.1071,3.961242E-05,1.6065,120,0.1071,-6.915389E-05,1.6065,-3
0.108,9.903105E-05,1.62,119,0.108,-3.323415E-05,1.62,-2
0.1089,0.0001010452,1.6335,120,0.1089,6.71397E-05,1.6335,-2
0.1098,6.6804E-05,1.647,118,0.1098,8.291753E-05,1.647,-2
0.1107,-2.014191E-05,1.6605,120,0.1107,1.007095E-06,1.6605,-5
0.1116,-0.0001148089,1.674,121,0.1116,-1.007095E-06,1.674,-1
0.1125,-8.761731E-05,1.6875,119,0.1125,-6.042573E-06,1.6875,-2
0.1134,-4.733349E-05,1.701,119,0.1134,1.007095E-05,1.701,-2
0.1143,-2.450599E-05,1.7145,119,0.1143,6.64683E-05,1.7145,-4
0.1152,-5.035477E-06,1.728,120,0.1152,3.189136E-05,1.728,-2
0.1161,2.517739E-05,1.7415,120,0.1161,-1.947051E-05,1.7415,-1
0.117,3.390555E-05,1.755,121,0.117,-3.356985E-07,1.755,-3
0.1179,4.129091E-05,1.7685,121,0.1179,-9.735256E-06,1.7685,0
0.1188,5.471885E-05,1.782,120,0.1188,-1.376364E-05,1.782,-2
0.1197,7.553216E-05,1.7955,119,0.1197,-6.713969E-07,1.7955,0
0.1206,1.779202E-05,1.809,120,0.1206,-2.014191E-06,1.809,-1
0.1215,-4.733349E-05,1.8225,119,0.1215,-8.392462E-06,1.8225,-3
0.1224,-2.752728E-05,1.836,119,0.1224,-2.584878E-05,1.836,-1
0.1233,-4.53193E-05,1.8495,121,0.1233,-7.318227E-05,1.8495,0
0.1242,-5.438316E-05,1.863,119,0.1242,-8.493171E-05,1.863,-3
0.1251,3.591974E-05,1.8765,119,0.1251,-0.000112459,1.8765,0
0.126,7.385367E-05,1.89,120,0.126,-0.0001151446,1.89,-2
0.1269,4.028382E-05,1.9035,119,0.1269,-0.0001030594,1.9035,-3
0.1278,5.471885E-05,1.917,120,0.1278,-3.591974E-05,1.917,-3
0.1287,2.819867E-05,1.9305,118,0.1287,1.007095E-06,1.9305,0
0.1296,-4.36408E-05,1.944,120,0.1296,4.733349E-05,1.944,0
0.1305,3.390555E-05,1.9575,119,0.1305,0.0001688563,1.9575,-2
0.1314,5.807584E-05,1.971,120,0.1314,0.000112459,1.971,-1
0.1323,2.383459E-05,1.9845,119,0.1323,-2.28275E-05,1.9845,0
0.1332,3.692683E-05,1.998,118,0.1332,-2.920577E-05,1.998,-1
0.1341,-2.24918E-05,2.0115,119,0.1341,-1.409934E-05,2.0115,-2
0.135,-6.344701E-05,2.025,119,0.135,-1.107805E-05,2.025,-1
0.1359,-5.774014E-05,2.0385,119,0.1359,3.692683E-06,2.0385,-3
0.1368,-2.316319E-05,2.052,119,0.1368,-1.342794E-05,2.052,-5
0.1377,-2.887007E-05,2.0655,119,0.1377,1.275654E-05,2.0655,-2
0.1386,-4.36408E-05,2.079,118,0.1386,-2.450599E-05,2.079,-3
0.1395,-1.242084E-05,2.0925,118,0.1395,-7.754635E-05,2.0925,-5
0.1404,1.007095E-06,2.106,118,0.1404,-6.243992E-05,2.106,-2
0.1413,-5.203327E-05,2.1195,118,0.1413,-6.109713E-05,2.1195,-2
0.1422,-3.793393E-05,2.133,119,0.1422,-6.210422E-05,2.133,0
0.1431,-3.021286E-06,2.1465,119,0.1431,-8.258183E-05,2.1465,0
0.144,-1.678492E-05,2.16,120,0.144,-4.49836E-05,2.16,-2
0.1449,5.941863E-05,2.1735,118,0.1449,5.136187E-05,2.1735,-3
0.1458,0.0001178302,2.187,118,0.1458,8.92958E-05,2.187,0
0.1467,8.82887E-05,2.2005,118,0.1467,8.82887E-05,2.2005,0
0.1476,0.0001017166,2.214,119,0.1476,-1.644922E-05,2.214,-2
0.1485,3.323415E-05,2.2275,119,0.1485,-0.0001114519,2.2275,-2
0.1494,-2.28275E-05,2.241,118,0.1494,-9.130999E-05,2.241,-3
0.1503,-1.443504E-05,2.2545,117,0.1503,-0.0001242084,2.2545,-2
0.1512,-4.196231E-05,2.268,119,0.1512,-0.0001077592,2.268,-2
0.1521,-4.39765E-05,2.2815,117,0.1521,-4.46479E-05,2.2815,-2
0.153,-6.54612E-05,2.295,118,0.153,1.309224E-05,2.295,-1
0.1539,-0.0001201801,2.3085,118,0.1539,9.399557E-05,2.3085,-3
0.1548,-0.0001916838,2.322,118,0.1548,9.097429E-05,2.322,-1
0.1557,-0.0001453574,2.3355,118,0.1557,3.994812E-05,2.3355,-4
0.1566,-4.39765E-05,2.349,118,0.1566,2.584878E-05,2.349,0
0.1575,-3.491264E-05,2.3625,119,0.1575,3.860533E-05,2.3625,0
0.1584,-1.376364E-05,2.376,119,0.1584,2.1149E-05,2.376,-3
0.1593,-1.477073E-05,2.3895,121,0.1593,-2.18204E-05,2.3895,-1
0.1602,1.510643E-05,2.403,118,0.1602,-3.961242E-05,2.403,-2
0.1611,2.920577E-05,2.4165,119,0.1611,2.652018E-05,2.4165,0
0.162,3.424125E-05,2.43,119,0.162,2.18204E-05,2.43,-1
0.1629,7.150377E-05,2.4435,119,0.1629,-3.021286E-05,2.4435,-3
0.1638,9.433127E-05,2.457,119,0.1638,-6.478981E-05,2.457,-4
0.1647,4.53193E-05,2.4705,119,0.1647,-4.095522E-05,2.4705,-2
0.1656,-0.0001326009,2.484,119,0.1656,-2.450599E-05,2.484,-1
0.1665,-0.0001913481,2.4975,119,0.1665,-4.867628E-05,2.4975,-3
0.1674,-3.659113E-05,2.511,119,0.1674,-4.632639E-05,2.511,-1
0.1683,-1.644922E-05,2.5245,118,0.1683,-2.853437E-05,2.5245,0
0.1692,-3.692683E-05,2.538,118,0.1692,-5.203327E-05,2.538,-2
0.1701,-3.356985E-07,2.5515,119,0.1701,-8.69459E-05,2.5515,-4
0.171,-3.994812E-05,2.565,120,0.171,-4.36408E-05,2.565,-5
0.1719,-1.678492E-06,2.5785,119,0.1719,9.063859E-06,2.5785,0
0.1728,-1.141375E-05,2.592,118,0.1728,5.706874E-06,2.592,-4
0.1737,4.263371E-05,2.6055,119,0.1737,1.409934E-05,2.6055,1
0.1746,-2.652018E-05,2.619,119,0.1746,-1.477073E-05,2.619,-2
0.1755,2.786297E-05,2.6325,118,0.1755,-5.807584E-05,2.6325,-1
0.1764,0.0001242084,2.646,119,0.1764,-6.478981E-05,2.646,0
0.1773,5.874724E-05,2.6595,119,0.1773,-7.486076E-05,2.6595,0
0.1782,5.606165E-05,2.673,120,0.1782,-4.229801E-05,2.673,-1
0.1791,0.0001540856,2.6865,118,0.1791,-3.390555E-05,2.6865,0
0.18,0.0001597925,2.7,119,0.18,-6.982528E-05,2.7,-2
0.1809,0.0001218585,2.7135,118,0.1809,-0.0001473716,2.7135,-2
0.1818,0.0001094377,2.727,118,0.1818,-9.668116E-05,2.727,-2
0.1827,-4.733349E-05,2.7405,119,0.1827,-9.701686E-05,2.7405,-1
0.1836,-0.0002840009,2.754,120,0.1836,-8.291753E-05,2.754,-1
0.1845,-0.0003011215,2.7675,118,0.1845,1.040665E-05,2.7675,-1
0.1854,-0.000190341,2.781,119,0.1854,0.0001406577,2.781,-1
0.1863,-0.000105745,2.7945,118,0.1863,8.82887E-05,2.7945,-2
0.1872,-4.46479E-05,2.808,119,0.1872,1.443504E-05,2.808,-1
0.1881,1.007095E-06,2.8215,119,0.1881,2.484169E-05,2.8215,-6
0.189,1.208515E-05,2.835,119,0.189,4.129091E-05,2.835,-1
0.1899,3.054856E-05,2.8485,118,0.1899,7.016098E-05,2.8485,-3
0.1908,9.332418E-05,2.862,119,0.1908,0.0001003738,2.862,-3
0.1917,7.620356E-05,2.8755,120,0.1917,5.001907E-05,2.8755,-1
0.1926,2.349889E-05,2.889,119,0.1926,-1.376364E-05,2.889,-2
0.1935,-4.36408E-06,2.9025,119,0.1935,-3.524834E-05,2.9025,-1
0.1944,-1.913481E-05,2.916,118,0.1944,-7.016098E-05,2.916,-3
0.1953,-9.298848E-05,2.9295,117,0.1953,-3.457694E-05,2.9295,0
0.1962,-9.298848E-05,2.943,119,0.1962,-2.047761E-05,2.943,-1
0.1971,-1.577783E-05,2.9565,119,0.1971,-1.443504E-05,2.9565,-2
0.198,1.141375E-05,2.97,119,0.198,7.620356E-05,2.97,-1
0.1989,8.560311E-05,2.9835,120,0.1989,7.150377E-05,2.9835,-1
0.1998,0.0001171588,2.997,119,0.1998,-6.713969E-07,2.997,-1
0.2007,6.277562E-05,3.0105,119,0.2007,-3.491264E-05,3.0105,-2
0.2016,-2.987716E-05,3.024,119,0.2016,-3.155566E-05,3.024,-1
0.2025,-3.692683E-05,3.0375,118,0.2025,-4.766919E-05,3.0375,-1
0.2034,-1.443504E-05,3.051,117,0.2034,-4.901198E-05,3.051,-1
0.2043,3.994812E-05,3.0645,119,0.2043,-8.493171E-05,3.0645,-2
0.2052,6.74754E-05,3.078,0,0.2052,-7.586786E-05,3.078,0
0.2061,3.289845E-05,3.0915,0,0.2061,-3.457694E-05,3.0915,0
0.207,-7.721065E-06,3.105,0,0.207,-5.404745E-05,3.105,0
0.2079,-4.196231E-05,3.1185,0,0.2079,-9.701686E-05,3.1185,0
0.2088,-7.083238E-05,3.132,0,0.2088,-5.539025E-05,3.132,0
0.2097,-6.814679E-05,3.1455,0,0.2097,-0.000102388,3.1455,0
0.2106,-5.471885E-05,3.159,0,0.2106,-0.000133608,3.159,0
0.2115,-5.471885E-05,3.1725,0,0.2115,-6.64683E-05,3.1725,0
0.2124,-1.242084E-05,3.186,0,0.2124,-2.954147E-05,3.186,0
0.2133,3.692683E-06,3.1995,0,0.2133,-2.652018E-05,3.1995,0
0.2142,-7.385367E-06,3.213,0,0.2142,1.846342E-05,3.213,0
0.2151,1.577783E-05,3.2265,0,0.2151,0.0001339437,3.2265,0
0.216,4.46479E-05,3.24,0,0.216,0.0001107805,3.24,0
0.2169,1.678492E-05,3.2535,0,0.2169,2.081331E-05,3.2535,0
0.2178,6.042573E-06,3.267,0,0.2178,-2.1149E-05,3.267,0
0.2187,3.390555E-05,3.2805,0,0.2187,-2.24918E-05,3.2805,0
0.2196,2.047761E-05,3.294,0,0.2196,-4.028382E-06,3.294,0
0.2205,4.599069E-05,3.3075,0,0.2205,-2.24918E-05,3.3075,0
0.2214,3.591974E-05,3.321,0,0.2214,-4.29694E-05,3.321,0
0.2223,-2.24918E-05,3.3345,0,0.2223,-1.644922E-05,3.3345,0
0.2232,-6.61326E-05,3.348,0,0.2232,-1.913481E-05,3.348,0
0.2241,-5.807584E-05,3.3615,0,0.2241,-6.042573E-05,3.3615,0
0.225,-2.987716E-05,3.375,0,0.225,-6.210422E-05,3.375,0
0.2259,3.927672E-05,3.3885,0,0.2259,-7.620356E-05,3.3885,0
0.2268,5.102617E-05,3.402,0,0.2268,-0.0001211871,3.402,0
0.2277,3.524834E-05,3.4155,0,0.2277,-7.855344E-05,3.4155,0
0.2286,-8.056763E-06,3.429,0,0.2286,1.309224E-05,3.429,0
0.2295,-3.961242E-05,3.4425,0,0.2295,4.834058E-05,3.4425,0
0.2304,-7.150377E-05,3.456,0,0.2304,7.821774E-05,3.456,0
0.2313,-5.874724E-05,3.4695,0,0.2313,7.553216E-05,3.4695,0
0.2322,-3.692683E-06,3.483,0,0.2322,5.337606E-05,3.483,0
0.2331,-2.450599E-05,3.4965,0,0.2331,2.18204E-05,3.4965,0
0.234,6.378271E-06,3.51,0,0.234,-2.920577E-05,3.51,0
0.2349,1.577783E-05,3.5235,0,0.2349,-6.74754E-05,3.5235,0
0.2358,4.263371E-05,3.537,0,0.2358,-4.867628E-05,3.537,0
0.2367,8.191043E-05,3.5505,0,0.2367,-3.994812E-05,3.5505,0
0.2376,9.600977E-05,3.564,0,0.2376,-5.673304E-05,3.564,0
0.2385,5.874724E-05,3.5775,0,0.2385,-1.678492E-05,3.5775,0
0.2394,3.692683E-06,3.591,0,0.2394,1.443504E-05,3.591,0
0.2403,-4.934768E-05,3.6045,0,0.2403,9.735256E-06,3.6045,0
0.2412,-7.888914E-05,3.618,0,0.2412,4.599069E-05,3.618,0
0.2421,-0.0001661708,3.6315,0,0.2421,3.390555E-05,3.6315,0
0.243,-0.0001329366,3.645,0,0.243,-5.706874E-06,3.645,0
0.2439,-7.150377E-05,3.6585,0,0.2439,-2.450599E-05,3.6585,0
0.2448,-1.309224E-05,3.672,0,0.2448,-3.659113E-05,3.672,0
0.2457,8.728161E-06,3.6855,0,0.2457,-1.980621E-05,3.6855,0
0.2466,-3.457694E-05,3.699,0,0.2466,-3.356985E-05,3.699,0
0.2475,-3.524834E-05,3.7125,0,0.2475,-1.913481E-05,3.7125,0
0.2484,-1.913481E-05,3.726,0,0.2484,-1.242084E-05,3.726,0
0.2493,-1.309224E-05,3.7395,0,0.2493,-3.692683E-06,3.7395,0
0.2502,1.107805E-05,3.753,0,0.2502,-7.821774E-05,3.753,0
0.2511,3.121996E-05,3.7665,0,0.2511,-0.0001188373,3.7665,0
0.252,2.349889E-06,3.78,0,0.252,-5.270466E-05,3.78,0
0.2529,-1.040665E-05,3.7935,0,0.2529,-1.275654E-05,3.7935,0
0.2538,2.014191E-06,3.807,0,0.2538,-5.069047E-05,3.807,0
0.2547,-1.678492E-05,3.8205,0,0.2547,-7.385367E-05,3.8205,0
0.2556,-3.524834E-05,3.834,0,0.2556,-1.342794E-06,3.834,0
0.2565,-1.712062E-05,3.8475,0,0.2565,-1.376364E-05,3.8475,0
0.2574,-1.510643E-05,3.861,0,0.2574,-3.356985E-05,3.861,0
0.2583,6.713969E-06,3.8745,0,0.2583,-3.256275E-05,3.8745,0
0.2592,3.054856E-05,3.888,0,0.2592,-1.913481E-05,3.888,0
0.2601,1.040665E-05,3.9015,0,0.2601,-4.43122E-05,3.9015,0
0.261,-1.846342E-05,3.915,0,0.261,-0.0001117876,3.915,0
0.2619,9.063859E-06,3.9285,0,0.2619,-0.0001067521,3.9285,0
0.2628,1.242084E-05,3.942,0,0.2628,-1.745632E-05,3.942,0
0.2637,-4.129091E-05,3.9555,0,0.2637,-5.471885E-05,3.9555,0
0.2646,1.678492E-06,3.969,0,0.2646,-5.740444E-05,3.969,0
0.2655,2.1149E-05,3.9825,0,0.2655,9.466698E-05,3.9825,0
0.2664,1.007095E-06,3.996,0,0.2664,0.0001339437,3.996,0
0.2673,1.275654E-05,4.0095,0,0.2673,8.761731E-05,4.0095,0
0.2682,3.054856E-05,4.023,0,0.2682,5.404745E-05,4.023,0
0.2691,5.941863E-05,4.0365,0,0.2691,5.471885E-05,4.0365,0
0.27,9.231708E-05,4.05,0,0.27,-8.392462E-06,4.05,0
0.2709,9.634547E-05,4.0635,0,0.2709,-1.913481E-05,4.0635,0
0.2718,5.874724E-05,4.077,0,0.2718,-9.735256E-06,4.077,0
0.2727,6.54612E-05,4.0905,0,0.2727,1.510643E-05,4.0905,0
0.2736,5.337606E-05,4.104,0,0.2736,-1.644922E-05,4.104,0
0.2745,1.879912E-05,4.1175,0,0.2745,-5.270466E-05,4.1175,0
0.2754,-1.678492E-05,4.131,0,0.2754,-3.659113E-05,4.131,0
0.2763,-6.311131E-05,4.1445,0,0.2763,-7.721065E-06,4.1445,0
0.2772,-0.0001332723,4.158,0,0.2772,-2.618448E-05,4.158,0
0.2781,-7.653925E-05,4.1715,0,0.2781,-7.821774E-05,4.1715,0
0.279,-8.96315E-05,4.185,0,0.279,-7.217517E-05,4.185,0
0.2799,-0.0001144732,4.1985,0,0.2799,-6.982528E-05,4.1985,0
0.2808,-0.0001097734,4.212,0,0.2808,-9.835965E-05,4.212,0
0.2817,-0.0001087663,4.2255,0,0.2817,-7.687495E-05,4.2255,0
0.2826,-1.678492E-05,4.239,0,0.2826,-4.33051E-05,4.239,0
0.2835,2.853437E-05,4.2525,0,0.2835,1.342794E-05,4.2525,0
0.2844,5.304036E-05,4.266,0,0.2844,5.001907E-05,4.266,0
0.2853,7.956054E-05,4.2795,0,0.2853,-1.174945E-05,4.2795,0
0.2862,3.121996E-05,4.293,0,0.2862,-2.719158E-05,4.293,0
0.2871,1.544213E-05,4.3065,0,0.2871,3.558404E-05,4.3065,0
0.288,-5.807584E-05,4.32,0,0.288,5.203327E-05,4.32,0
0.2889,-3.826963E-05,4.3335,0,0.2889,1.846342E-05,4.3335,0
0.2898,-2.920577E-05,4.347,0,0.2898,-3.692683E-06,4.347,0
0.2907,-3.356985E-07,4.3605,0,0.2907,-1.376364E-05,4.3605,0
0.2916,-1.477073E-05,4.374,0,0.2916,-1.879912E-05,4.374,0
0.2925,-0.0001171588,4.3875,0,0.2925,-1.107805E-05,4.3875,0
0.2934,-0.0001373007,4.401,0,0.2934,-5.706874E-06,4.401,0
0.2943,-3.994812E-05,4.4145,0,0.2943,-3.155566E-05,4.4145,0
0.2952,4.36408E-05,4.428,0,0.2952,-3.054856E-05,4.428,0
0.2961,2.517739E-05,4.4415,0,0.2961,5.035477E-06,4.4415,0
0.297,9.735256E-06,4.455,0,0.297,-2.920577E-05,4.455,0
0.2979,-6.713969E-07,4.4685,0,0.2979,-0.0001252155,4.4685,0
0.2988,2.349889E-05,4.482,0,0.2988,-0.000256138,4.482,0
0.2997,5.337606E-05,4.4955,0,0.2997,-0.0003172351,4.4955,0
0.3006,0.0001037308,4.509,0,0.3006,-0.0002658732,4.509,0
0.3015,0.0001849699,4.5225,0,0.3015,-0.0001641566,4.5225,0
0.3024,0.0001352865,4.536,0,0.3024,-2.047761E-05,4.536,0
0.3033,4.901198E-05,4.5495,0,0.3033,0.0002628519,4.5495,0
0.3042,-2.853437E-05,4.563,0,0.3042,0.0004172732,4.563,0
0.3051,-0.0001399863,4.5765,0,0.3051,0.0002584878,4.5765,0
0.306,-0.0002678874,4.59,0,0.306,0.0001913481,4.59,0
0.3069,-0.000115816,4.6035,0,0.3069,9.298848E-05,4.6035,0
0.3078,3.659113E-05,4.617,0,0.3078,2.014191E-06,4.617,0
0.3087,5.975433E-05,4.6305,0,0.3087,6.378271E-06,4.6305,0
0.3096,9.735256E-06,4.644,0,0.3096,1.376364E-05,4.644,0
0.3105,-1.980621E-05,4.6575,0,0.3105,5.706874E-06,4.6575,0
0.3114,-4.867628E-05,4.671,0,0.3114,-2.517739E-05,4.671,0
0.3123,-0.0001033951,4.6845,0,0.3123,-4.263371E-05,4.6845,0
0.3132,-3.323415E-05,4.698,0,0.3132,-9.399558E-06,4.698,0
0.3141,-6.713969E-07,4.7115,0,0.3141,-2.1149E-05,4.7115,0
0.315,9.063859E-06,4.725,0,0.315,-3.793393E-05,4.725,0
0.3159,3.289845E-05,4.7385,0,0.3159,-6.54612E-05,4.7385,0
0.3168,3.692683E-06,4.752,0,0.3168,-4.733349E-05,4.752,0
0.3177,1.712062E-05,4.7655,0,0.3177,-4.934768E-05,4.7655,0
0.3186,0.000112459,4.779,0,0.3186,-7.016098E-05,4.779,0
0.3195,0.0001299153,4.7925,0,0.3195,-4.632639E-05,4.7925,0
0.3204,9.298848E-05,4.806,0,0.3204,-3.323415E-05,4.806,0
0.3213,1.779202E-05,4.8195,0,0.3213,-8.996719E-05,4.8195,0
0.3222,-4.934768E-05,4.833,0,0.3222,-0.0001064164,4.833,0
0.3231,-7.217517E-05,4.8465,0,0.3231,-6.478981E-05,4.8465,0
0.324,-0.000105745,4.86,0,0.324,-7.116808E-05,4.86,0
0.3249,-0.000133608,4.8735,0,0.3249,-5.807584E-05,4.8735,0
0.3258,-6.344701E-05,4.887,0,0.3258,-4.800488E-05,4.887,0
0.3267,-4.36408E-06,4.9005,0,0.3267,-1.779202E-05,4.9005,0
0.3276,-2.517739E-05,4.914,0,0.3276,2.752728E-05,4.914,0
0.3285,1.107805E-05,4.9275,0,0.3285,2.752728E-05,4.9275,0
0.3294,3.860533E-05,4.941,0,0.3294,-3.961242E-05,4.941,0
0.3303,1.174945E-05,4.9545,0,0.3303,-8.89601E-05,4.9545,0
0.3312,9.433127E-05,4.968,0,0.3312,-9.332418E-05,4.968,0
0.3321,0.0002474098,4.9815,0,0.3321,-6.411841E-05,4.9815,0
0.333,0.0001930266,4.995,0,0.333,6.713969E-06,4.995,0
0.3339,0.0001621424,5.0085,0,0.3339,3.659113E-05,5.0085,0
0.3348,3.692683E-06,5.022,0,0.3348,6.143282E-05,5.022,0
0.3357,-0.0002185397,5.0355,0,0.3357,6.6804E-05,5.0355,0
0.3366,-0.0002742657,5.049,0,0.3366,-1.678492E-05,5.049,0
0.3375,-0.000207126,5.0625,0,0.3375,-7.586786E-05,5.0625,0
0.3384,-0.0001597925,5.076,0,0.3384,-6.6804E-05,5.076,0
0.3393,-2.987716E-05,5.0895,0,0.3393,-6.378271E-05,5.0895,0
0.3402,-1.376364E-05,5.103,0,0.3402,-5.841154E-05,5.103,0
0.3411,-4.33051E-05,5.1165,0,0.3411,-1.644922E-05,5.1165,0
0.342,-8.89601E-05,5.13,0,0.342,-3.356985E-05,5.13,0
0.3429,-2.21561E-05,5.1435,0,0.3429,-3.021286E-06,5.1435,0
0.3438,1.208515E-05,5.157,0,0.3438,1.409934E-05,5.157,0
0.3447,5.001907E-05,5.1705,0,0.3447,1.913481E-05,5.1705,0
0.3456,2.887007E-05,5.184,0,0.3456,1.510643E-05,5.184,0
0.3465,7.049668E-06,5.1975,0,0.3465,9.365987E-05,5.1975,0
0.3474,-4.36408E-06,5.211,0,0.3474,8.157473E-05,5.211,0
0.3483,7.385367E-06,5.2245,0,0.3483,1.510643E-05,5.2245,0
0.3492,2.081331E-05,5.238,0,0.3492,-1.510643E-05,5.238,0
0.3501,9.399558E-06,5.2515,0,0.3501,-1.678492E-05,5.2515,0
0.351,1.007095E-05,5.265,0,0.351,-2.24918E-05,5.265,0
0.3519,5.035477E-06,5.2785,0,0.3519,-3.390555E-05,5.2785,0
0.3528,4.129091E-05,5.292,0,0.3528,-2.920577E-05,5.292,0
0.3537,1.846342E-05,5.3055,0,0.3537,-2.584878E-05,5.3055,0
0.3546,-2.719158E-05,5.319,0,0.3546,-6.076142E-05,5.319,0
0.3555,5.706874E-06,5.3325,0,0.3555,-7.083238E-05,5.3325,0
0.3564,1.007095E-06,5.346,0,0.3564,-8.560311E-05,5.346,0
0.3573,-2.014191E-06,5.3595,0,0.3573,-4.095522E-05,5.3595,0
0.3582,3.323415E-05,5.373,0,0.3582,-3.894102E-05,5.373,0
0.3591,3.323415E-05,5.3865,0,0.3591,-5.706874E-05,5.3865,0
0.36,-8.392462E-06,5.4,0,0.36,-2.853437E-05,5.4,0
0.3609,3.155566E-05,5.4135,0,0.3609,-1.477073E-05,5.4135,0
0.3618,6.344701E-05,5.427,0,0.3618,-2.786297E-05,5.427,0
0.3627,3.054856E-05,5.4405,0,0.3627,-3.021286E-05,5.4405,0
0.3636,-7.754635E-05,5.454,0,0.3636,-4.46479E-05,5.454,0
0.3645,-1.577783E-05,5.4675,0,0.3645,-3.994812E-05,5.4675,0
0.3654,2.349889E-06,5.481,0,0.3654,-3.726253E-05,5.481,0
0.3663,-3.457694E-05,5.4945,0,0.3663,-6.210422E-05,5.4945,0
0.3672,1.040665E-05,5.508,0,0.3672,2.081331E-05,5.508,0
0.3681,-1.242084E-05,5.5215,0,0.3681,6.915389E-05,5.5215,0
0.369,-1.242084E-05,5.535,0,0.369,0.0001003738,5.535,0
0.3699,2.383459E-05,5.5485,0,0.3699,3.927672E-05,5.5485,0
0.3708,-9.735256E-06,5.562,0,0.3708,-1.477073E-05,5.562,0
0.3717,-3.021286E-06,5.5755,0,0.3717,-3.759823E-05,5.5755,0
0.3726,4.028382E-05,5.589,0,0.3726,-9.735256E-05,5.589,0
0.3735,-2.081331E-05,5.6025,0,0.3735,-1.309224E-05,5.6025,0
0.3744,-4.599069E-05,5.616,0,0.3744,1.443504E-05,5.616,0
0.3753,4.39765E-05,5.6295,0,0.3753,-2.484169E-05,5.6295,0
0.3762,6.6804E-05,5.643,0,0.3762,-2.584878E-05,5.643,0
0.3771,3.692683E-06,5.6565,0,0.3771,-2.21561E-05,5.6565,0
0.378,2.316319E-05,5.67,0,0.378,-0.0001416648,5.67,0
0.3789,1.544213E-05,5.6835,0,0.3789,-0.0001426719,5.6835,0
0.3798,-0.0001131304,5.697,0,0.3798,-9.869535E-05,5.697,0
0.3807,-7.284657E-05,5.7105,0,0.3807,8.728161E-06,5.7105,0
0.3816,8.426032E-05,5.724,0,0.3816,9.634547E-05,5.724,0
0.3825,2.517739E-05,5.7375,0,0.3825,0.0001782559,5.7375,0
0.3834,-5.001907E-05,5.751,0,0.3834,0.000133608,5.751,0
0.3843,-5.740444E-05,5.7645,0,0.3843,4.565499E-05,5.7645,0
0.3852,-7.217517E-05,5.778,0,0.3852,2.383459E-05,5.778,0
0.3861,-7.251087E-05,5.7915,0,0.3861,-4.46479E-05,5.7915,0
0.387,-3.021286E-05,5.805,0,0.387,-9.399558E-06,5.805,0
0.3879,-3.524834E-05,5.8185,0,0.3879,-3.692683E-06,5.8185,0
0.3888,-1.913481E-05,5.832,0,0.3888,-3.994812E-05,5.832,0
0.3897,-4.565499E-05,5.8455,0,0.3897,-4.46479E-05,5.8455,0
0.3906,-5.471885E-05,5.859,0,0.3906,-5.975433E-05,5.859,0
0.3915,-4.733349E-05,5.8725,0,0.3915,-5.069047E-05,5.8725,0
0.3924,-2.887007E-05,5.886,0,0.3924,-3.826963E-05,5.886,0
0.3933,1.007095E-06,5.8995,0,0.3933,-9.164568E-05,5.8995,0
0.3942,3.692683E-05,5.913,0,0.3942,-8.493171E-05,5.913,0
0.3951,0.000102388,5.9265,0,0.3951,-0.0001359579,5.9265,0
0.396,0.0001406577,5.94,0,0.396,-0.0001742275,5.94,0
0.3969,0.0001017166,5.9535,0,0.3969,-0.0001628138,5.9535,0
0.3978,2.652018E-05,5.967,0,0.3978,-8.023193E-05,5.967,0
0.3987,1.107805E-05,5.9805,0,0.3987,-2.853437E-05,5.9805,0
0.3996,6.411841E-05,5.994,0,0.3996,-3.390555E-05,5.994,0
0.4005,2.887007E-05,6.0075,0,0.4005,7.049668E-05,6.0075,0
0.4014,-5.001907E-05,6.021,0,0.4014,0.0001393149,6.021,0
0.4023,-0.0001312581,6.0345,0,0.4023,2.920577E-05,6.0345,0
0.4032,-7.049668E-05,6.048,0,0.4032,7.385367E-06,6.048,0
0.4041,-0.0001487144,6.0615,0,0.4041,8.224613E-05,6.0615,0
0.405,-0.0001688563,6.075,0,0.405,0.0001054093,6.075,0
0.4059,-0.0001225299,6.0885,0,0.4059,0.0001185016,6.0885,0
0.4068,-1.342794E-05,6.102,0,0.4068,5.404745E-05,6.102,0
0.4077,-1.107805E-05,6.1155,0,0.4077,1.611353E-05,6.1155,0
0.4086,-6.076142E-05,6.129,0,0.4086,1.644922E-05,6.129,0
0.4095,-8.493171E-05,6.1425,0,0.4095,-2.685588E-06,6.1425,0
0.4104,-6.411841E-05,6.156,0,0.4104,-4.599069E-05,6.156,0
0.4113,-2.383459E-05,6.1695,0,0.4113,-2.081331E-05,6.1695,0
0.4122,1.779202E-05,6.183,0,0.4122,-2.316319E-05,6.183,0
0.4131,0.0001205158,6.1965,0,0.4131,-7.754635E-05,6.1965,0
0.414,0.0001802701,6.21,0,0.414,-7.821774E-05,6.21,0
0.4149,0.0001413291,6.2235,0,0.4149,-9.970245E-05,6.2235,0
0.4158,7.183947E-05,6.237,0,0.4158,-0.0001339437,6.237,0
0.4167,2.417029E-05,6.2505,0,0.4167,-8.157473E-05,6.2505,0
0.4176,4.36408E-06,6.264,0,0.4176,6.713969E-06,6.264,0
0.4185,-0.0001010452,6.2775,0,0.4185,1.007095E-06,6.2775,0
0.4194,-7.049668E-05,6.291,0,0.4194,-1.678492E-06,6.291,0
0.4203,-3.927672E-05,6.3045,0,0.4203,2.014191E-06,6.3045,0
0.4212,-6.881819E-05,6.318,0,0.4212,-5.035477E-06,6.318,0
0.4221,-8.72816E-05,6.3315,0,0.4221,-2.551309E-05,6.3315,0
0.423,1.846342E-05,6.345,0,0.423,-2.652018E-05,6.345,0
0.4239,2.652018E-05,6.3585,0,0.4239,-3.323415E-05,6.3585,0
0.4248,-1.040665E-05,6.372,0,0.4248,-6.378271E-06,6.372,0
0.4257,9.735256E-06,6.3855,0,0.4257,-2.014191E-05,6.3855,0
0.4266,2.349889E-06,6.399,0,0.4266,-5.539025E-05,6.399,0
0.4275,1.342794E-06,6.4125,0,0.4275,-2.047761E-05,6.4125,0
0.4284,9.063859E-06,6.426,0,0.4284,-6.378271E-06,6.426,0
0.4293,2.349889E-06,6.4395,0,0.4293,-5.841154E-05,6.4395,0
0.4302,1.040665E-05,6.453,0,0.4302,-5.505455E-05,6.453,0
0.4311,1.309224E-05,6.4665,0,0.4311,1.007095E-06,6.4665,0
0.432,3.155566E-05,6.48,0,0.432,-7.721065E-06,6.48,0
0.4329,2.652018E-05,6.4935,0,0.4329,-4.36408E-06,6.4935,0
0.4338,8.392462E-06,6.507,0,0.4338,-3.356985E-05,6.507,0
0.4347,-2.786297E-05,6.5205,0,0.4347,-2.081331E-05,6.5205,0
0.4356,-6.6804E-05,6.534,0,0.4356,1.342794E-06,6.534,0
0.4365,-3.726253E-05,6.5475,0,0.4365,-2.719158E-05,6.5475,0
0.4374,-2.18204E-05,6.561,0,0.4374,-6.210422E-05,6.561,0
0.4383,-1.443504E-05,6.5745,0,0.4383,-1.980621E-05,6.5745,0
0.4392,-1.007095E-05,6.588,0,0.4392,-2.517739E-05,6.588,0
0.4401,6.042573E-06,6.6015,0,0.4401,-4.46479E-05,6.6015,0
0.441,2.24918E-05,6.615,0,0.441,-7.049668E-06,6.615,0
0.4419,4.263371E-05,6.6285,0,0.4419,2.1149E-05,6.6285,0
0.4428,5.539025E-05,6.642,0,0.4428,-3.021286E-06,6.642,0
0.4437,-1.309224E-05,6.6555,0,0.4437,-2.047761E-05,6.6555,0
0.4446,-1.107805E-05,6.669,0,0.4446,-3.054856E-05,6.669,0
0.4455,2.786297E-05,6.6825,0,0.4455,-6.6804E-05,6.6825,0
0.4464,7.721065E-06,6.696,0,0.4464,-8.526741E-05,6.696,0
0.4473,1.779202E-05,6.7095,0,0.4473,-7.553216E-05,6.7095,0
0.4482,1.174945E-05,6.723,0,0.4482,-8.258183E-05,6.723,0
0.4491,3.323415E-05,6.7365,0,0.4491,-6.713969E-06,6.7365,0
0.45,9.399558E-06,6.75,0,0.45,5.304036E-05,6.75,0
0.4509,-1.879912E-05,6.7635,0,0.4509,6.54612E-05,6.7635,0
0.4518,-1.242084E-05,6.777,0,0.4518,6.009003E-05,6.777,0
0.4527,-9.063859E-06,6.7905,0,0.4527,3.994812E-05,6.7905,0
0.4536,-9.399558E-06,6.804,0,0.4536,-9.735256E-06,6.804,0
0.4545,-3.491264E-05,6.8175,0,0.4545,1.443504E-05,6.8175,0
0.4554,-5.941863E-05,6.831,0,0.4554,1.040665E-05,6.831,0
0.4563,-6.478981E-05,6.8445,0,0.4563,-4.129091E-05,6.8445,0
0.4572,-9.735256E-06,6.858,0,0.4572,-2.786297E-05,6.858,0
0.4581,-3.021286E-06,6.8715,0,0.4581,-7.385367E-06,6.8715,0
0.459,-7.721065E-06,6.885,0,0.459,-1.242084E-05,6.885,0
0.4599,-5.035477E-06,6.8985,0,0.4599,-1.510643E-05,6.8985,0
0.4608,1.174945E-05,6.912,0,0.4608,-1.275654E-05,6.912,0
0.4617,-5.706874E-06,6.9255,0,0.4617,1.779202E-05,6.9255,0
0.4626,1.007095E-06,6.939,0,0.4626,8.728161E-06,6.939,0
0.4635,3.189136E-05,6.9525,0,0.4635,-5.337606E-05,6.9525,0
0.4644,9.600977E-05,6.966,0,0.4644,-0.0001500572,6.966,0
0.4653,0.0001685206,6.9795,0,0.4653,-0.0002823224,6.9795,0
0.4662,0.0001275654,6.993,0,0.4662,-0.0003679255,6.993,0
0.4671,3.826963E-05,7.0065,0,0.4671,-0.0003145495,7.0065,0
0.468,-8.392462E-06,7.02,0,0.468,-0.0001386435,7.02,0
0.4689,-2.18204E-05,7.0335,0,0.4689,3.256275E-05,7.0335,0
0.4698,-0.0001134661,7.047,0,0.4698,0.0001930266,7.047,0
0.4707,-0.0002823224,7.0605,0,0.4707,0.0004078737,7.0605,0
0.4716,-0.0002487526,7.074,0,0.4716,0.0003675898,7.074,0
0.4725,-0.0001017166,7.0875,0,0.4725,0.0001950408,7.0875,0
0.4734,-4.53193E-05,7.101,0,0.4734,0.0001114519,7.101,0
0.4743,1.007095E-05,7.1145,0,0.4743,4.36408E-05,7.1145,0
0.4752,-1.678492E-06,7.128,0,0.4752,2.920577E-05,7.128,0
0.4761,2.014191E-06,7.1415,0,0.4761,2.584878E-05,7.1415,0
0.477,2.047761E-05,7.155,0,0.477,-2.618448E-05,7.155,0
0.4779,-2.047761E-05,7.1685,0,0.4779,-6.042573E-05,7.1685,0
0.4788,-2.047761E-05,7.182,0,0.4788,-1.644922E-05,7.182,0
0.4797,8.056763E-06,7.1955,0,0.4797,-2.786297E-05,7.1955,0
0.4806,1.577783E-05,7.209,0,0.4806,-6.243992E-05,7.209,0
0.4815,-1.242084E-05,7.2225,0,0.4815,-2.618448E-05,7.2225,0
0.4824,-8.392462E-06,7.236,0,0.4824,-1.779202E-05,7.236,0
0.4833,2.752728E-05,7.2495,0,0.4833,-5.371176E-05,7.2495,0
0.4842,1.812772E-05,7.263,0,0.4842,-6.311131E-05,7.263,0
0.4851,-2.484169E-05,7.2765,0,0.4851,-3.591974E-05,7.2765,0
0.486,-7.049668E-06,7.29,0,0.486,-5.807584E-05,7.29,0
0.4869,-2.349889E-06,7.3035,0,0.4869,-6.478981E-05,7.3035,0
0.4878,-3.692683E-06,7.317,0,0.4878,-6.076142E-05,7.317,0
0.4887,1.409934E-05,7.3305,0,0.4887,-3.860533E-05,7.3305,0
0.4896,3.021286E-06,7.344,0,0.4896,-1.846342E-05,7.344,0
0.4905,-5.706874E-06,7.3575,0,0.4905,-3.524834E-05,7.3575,0
0.4914,1.007095E-05,7.371,0,0.4914,-5.404745E-05,7.371,0
0.4923,-9.735256E-06,7.3845,0,0.4923,-1.879912E-05,7.3845,0
0.4932,-1.242084E-05,7.398,0,0.4932,-1.510643E-05,7.398,0
0.4941,9.735256E-06,7.4115,0,0.4941,-6.076142E-05,7.4115,0
0.495,1.745632E-05,7.425,0,0.495,-2.685588E-05,7.425,0
0.4959,6.378271E-06,7.4385,0,0.4959,-1.745632E-05,7.4385,0
0.4968,-3.356985E-07,7.452,0,0.4968,-5.874724E-05,7.452,0
0.4977,-8.392462E-06,7.4655,0,0.4977,-3.927672E-05,7.4655,0
0.4986,-1.376364E-05,7.479,0,0.4986,-9.399558E-06,7.479,0
0.4995,-1.779202E-05,7.4925,0,0.4995,-2.719158E-05,7.4925,0
0.5004,1.107805E-05,7.506,0,0.5004,-2.719158E-05,7.506,0
0.5013,2.081331E-05,7.5195,0,0.5013,-4.599069E-05,7.5195,0
0.5022,1.678492E-05,7.533,0,0.5022,-3.121996E-05,7.533,0
0.5031,1.309224E-05,7.5465,0,0.5031,-9.063859E-06,7.5465,0
0.504,-1.309224E-05,7.56,0,0.504,-2.853437E-05,7.56,0
0.5049,3.692683E-06,7.5735,0,0.5049,-4.43122E-05,7.5735,0
0.5058,1.678492E-06,7.587,0,0.5058,-5.371176E-06,7.587,0
0.5067,-3.692683E-06,7.6005,0,0.5067,-3.356985E-07,7.6005,0
0.5076,1.174945E-05,7.614,0,0.5076,-3.356985E-05,7.614,0
0.5085,-2.652018E-05,7.6275,0,0.5085,-9.399558E-06,7.6275,0
0.5094,-2.24918E-05,7.641,0,0.5094,-2.853437E-05,7.641,0
0.5103,-1.913481E-05,7.6545,0,0.5103,-6.61326E-05,7.6545,0
0.5112,2.685588E-06,7.668,0,0.5112,-4.33051E-05,7.668,0
0.5121,-1.242084E-05,7.6815,0,0.5121,1.007095E-06,7.6815,0
0.513,-5.136187E-05,7.695,0,0.513,-3.054856E-05,7.695,0
0.5139,-7.049668E-05,7.7085,0,0.5139,-2.752728E-05,7.7085,0
0.5148,1.040665E-05,7.722,0,0.5148,-7.385367E-06,7.722,0
0.5157,3.256275E-05,7.7355,0,0.5157,1.040665E-05,7.7355,0
0.5166,3.021286E-06,7.749,0,0.5166,2.1149E-05,7.749,0
0.5175,5.035477E-06,7.7625,0,0.5175,-2.719158E-05,7.7625,0
0.5184,-5.035477E-06,7.776,0,0.5184,-4.061952E-05,7.776,0
0.5193,-2.920577E-05,7.7895,0,0.5193,7.721065E-06,7.7895,0
0.5202,-2.383459E-05,7.803,0,0.5202,-8.728161E-06,7.803,0
0.5211,4.028382E-06,7.8165,0,0.5211,-4.53193E-05,7.8165,0
0.522,-5.035477E-05,7.83,0,0.522,-1.644922E-05,7.83,0
0.5229,-5.807584E-05,7.8435,0,0.5229,-6.713969E-07,7.8435,0
0.5238,-2.719158E-05,7.857,0,0.5238,-1.510643E-05,7.857,0
0.5247,-2.18204E-05,7.8705,0,0.5247,-4.36408E-06,7.8705,0
0.5256,-1.644922E-05,7.884,0,0.5256,2.517739E-05,7.884,0
0.5265,-9.063859E-06,7.8975,0,0.5265,2.316319E-05,7.8975,0
0.5274,3.390555E-05,7.911,0,0.5274,2.18204E-05,7.911,0
0.5283,4.263371E-05,7.9245,0,0.5283,-2.719158E-05,7.9245,0
0.5292,3.860533E-05,7.938,0,0.5292,-1.309224E-05,7.938,0
0.5301,0.0001111162,7.9515,0,0.5301,-1.678492E-05,7.9515,0
0.531,1.208515E-05,7.965,0,0.531,-4.699779E-05,7.965,0
0.5319,-4.36408E-06,7.9785,0,0.5319,-2.517739E-05,7.9785,0
0.5328,-1.376364E-05,7.992,0,0.5328,5.203327E-05,7.992,0
0.5337,-2.349889E-05,8.0055,0,0.5337,1.947051E-05,8.0055,0
0.5346,5.035477E-06,8.019,0,0.5346,-8.090334E-05,8.019,0
0.5355,1.947051E-05,8.0325,0,0.5355,-5.404745E-05,8.0325,0
0.5364,-4.263371E-05,8.046,0,0.5364,-1.980621E-05,8.046,0
0.5373,-1.040665E-05,8.0595,0,0.5373,-4.095522E-05,8.0595,0
0.5382,3.524834E-05,8.073,0,0.5382,-4.800488E-05,8.073,0
0.5391,-2.316319E-05,8.0865,0,0.5391,-4.095522E-05,8.0865,0
0.54,-5.270466E-05,8.1,0,0.54,3.356985E-07,8.1,0
0.5409,-4.934768E-05,8.1135,0,0.5409,-1.208515E-05,8.1135,0
0.5418,-5.740444E-05,8.127,0,0.5418,-8.426032E-05,8.127,0
0.5427,-7.016098E-05,8.1405,0,0.5427,-4.36408E-05,8.1405,0
0.5436,-3.121996E-05,8.154,0,0.5436,-1.443504E-05,8.154,0
0.5445,-2.920577E-05,8.1675,0,0.5445,5.371176E-06,8.1675,0
0.5454,-3.927672E-05,8.181,0,0.5454,6.378271E-06,8.181,0
0.5463,2.316319E-05,8.1945,0,0.5463,4.53193E-05,8.1945,0
0.5472,5.807584E-05,8.208,0,0.5472,7.486076E-05,8.208,0
0.5481,5.941863E-05,8.2215,0,0.5481,4.901198E-05,8.2215,0
0.549,1.544213E-05,8.235,0,0.549,4.263371E-05,8.235,0
0.5499,-4.699779E-05,8.2485,0,0.5499,-1.376364E-05,8.2485,0
0.5508,-4.766919E-05,8.262,0,0.5508,-7.351797E-05,8.262,0
0.5517,-1.611353E-05,8.2755,0,0.5517,-0.0001420005,8.2755,0
0.5526,-2.24918E-05,8.289,0,0.5526,-0.0001420005,8.289,0
0.5535,-4.699779E-05,8.3025,0,0.5535,-8.224613E-05,8.3025,0
0.5544,-3.054856E-05,8.316,0,0.5544,2.685588E-05,8.316,0
0.5553,-3.591974E-05,8.3295,0,0.5553,1.376364E-05,8.3295,0
0.5562,7.351797E-05,8.343,0,0.5562,8.056763E-06,8.343,0
0.5571,0.0001379721,8.3565,0,0.5571,1.712062E-05,8.3565,0
0.558,0.0001299153,8.37,0,0.558,-6.478981E-05,8.37,0
0.5589,8.224613E-05,8.3835,0,0.5589,-6.54612E-05,8.3835,0
0.5598,4.666209E-05,8.397,0,0.5598,-3.189136E-05,8.397,0
0.5607,2.752728E-05,8.4105,0,0.5607,-4.934768E-05,8.4105,0
0.5616,5.304036E-05,8.424,0,0.5616,-6.881819E-05,8.424,0
0.5625,6.042573E-05,8.4375,0,0.5625,-4.699779E-06,8.4375,0
0.5634,7.385367E-06,8.451,0,0.5634,2.014191E-06,8.451,0
0.5643,-1.644922E-05,8.4645,0,0.5643,-4.061952E-05,8.4645,0
0.5652,-0.0001171588,8.478,0,0.5652,-3.390555E-05,8.478,0
0.5661,-9.433127E-05,8.4915,0,0.5661,-1.779202E-05,8.4915,0
0.567,-4.196231E-05,8.505,0,0.567,-8.056763E-06,8.505,0
0.5679,-1.678492E-05,8.5185,0,0.5679,-1.242084E-05,8.5185,0
0.5688,-4.766919E-05,8.532,0,0.5688,-5.639734E-05,8.532,0
0.5697,-3.121996E-05,8.5455,0,0.5697,-4.599069E-05,8.5455,0
0.5706,-3.021286E-06,8.559,0,0.5706,-4.666209E-05,8.559,0
0.5715,8.728161E-06,8.5725,0,0.5715,-7.821774E-05,8.5725,0
0.5724,1.678492E-06,8.586,0,0.5724,-5.941863E-05,8.586,0
0.5733,5.035477E-06,8.5995,0,0.5733,5.706874E-05,8.5995,0
0.5742,-1.376364E-05,8.613,0,0.5742,0.0001393149,8.613,0
0.5751,-1.510643E-05,8.6265,0,0.5751,2.014191E-06,8.6265,0
0.576,-2.987716E-05,8.64,0,0.576,-4.800488E-05,8.64,0
0.5769,-7.284657E-05,8.6535,0,0.5769,-1.544213E-05,8.6535,0
0.5778,-3.927672E-05,8.667,0,0.5778,-1.342794E-05,8.667,0
0.5787,-2.987716E-05,8.6805,0,0.5787,-3.356985E-06,8.6805,0
0.5796,-6.64683E-05,8.694,0,0.5796,1.913481E-05,8.694,0
0.5805,-8.627451E-05,8.7075,0,0.5805,2.618448E-05,8.7075,0
0.5814,-5.706874E-05,8.721,0,0.5814,-5.706874E-06,8.721,0
0.5823,-7.721065E-06,8.7345,0,0.5823,-4.46479E-05,8.7345,0
0.5832,-1.342794E-06,8.748,0,0.5832,-3.692683E-06,8.748,0
0.5841,-3.390555E-05,8.7615,0,0.5841,-1.409934E-05,8.7615,0
0.585,1.712062E-05,8.775,0,0.585,-4.33051E-05,8.775,0
0.5859,4.599069E-05,8.7885,0,0.5859,-1.544213E-05,8.7885,0
0.5868,5.169757E-05,8.802,0,0.5868,6.109713E-05,8.802,0
0.5877,1.745632E-05,8.8155,0,0.5877,-2.551309E-05,8.8155,0
0.5886,2.24918E-05,8.829,0,0.5886,-8.795301E-05,8.829,0
0.5895,-8.728161E-06,8.8425,0,0.5895,-3.256275E-05,8.8425,0
0.5904,6.713969E-06,8.856,0,0.5904,-1.242084E-05,8.856,0
0.5913,1.007095E-06,8.8695,0,0.5913,-4.867628E-05,8.8695,0
0.5922,-3.021286E-05,8.883,0,0.5922,-5.404745E-05,8.883,0
0.5931,-3.692683E-05,8.8965,0,0.5931,-3.356985E-07,8.8965,0
0.594,-1.644922E-05,8.91,0,0.594,-1.443504E-05,8.91,0
0.5949,-3.256275E-05,8.9235,0,0.5949,-2.1149E-05,8.9235,0
0.5958,4.36408E-06,8.937,0,0.5958,-2.349889E-05,8.937,0
0.5967,2.349889E-06,8.9505,0,0.5967,-1.107805E-05,8.9505,0
0.5976,4.36408E-06,8.964,0,0.5976,2.18204E-05,8.964,0
0.5985,2.987716E-05,8.9775,0,0.5985,6.713969E-06,8.9775,0
0.5994,1.577783E-05,8.991,0,0.5994,-2.450599E-05,8.991,0
0.6003,-5.941863E-05,9.0045,0,0.6003,-2.752728E-05,9.0045,0
0.6012,-0.0001040665,9.018,0,0.6012,-7.116808E-05,9.018,0
0.6021,-0.0001060807,9.0315,0,0.6021,-0.0001013809,9.0315,0
0.603,-0.0001010452,9.045,0,0.603,-2.517739E-05,9.045,0
0.6039,-7.418937E-05,9.0585,0,0.6039,-3.021286E-06,9.0585,0
0.6048,-2.517739E-05,9.072001,0,0.6048,-5.035477E-06,9.072001,0
0.6057,3.826963E-05,9.0855,0,0.6057,8.392462E-06,9.0855,0
0.6066,4.53193E-05,9.099,0,0.6066,7.385367E-06,9.099,0
0.6075,6.143282E-05,9.1125,0,0.6075,-2.484169E-05,9.1125,0
0.6084,0.0001013809,9.126,0,0.6084,-3.356985E-06,9.126,0
0.6093,0.0001218585,9.1395,0,0.6093,-1.309224E-05,9.1395,0
0.6102,5.539025E-05,9.153,0,0.6102,-1.644922E-05,9.153,0
0.6111,4.53193E-05,9.1665,0,0.6111,-2.584878E-05,9.1665,0
0.612,3.692683E-05,9.18,0,0.612,-2.987716E-05,9.18,0
0.6129,2.584878E-05,9.1935,0,0.6129,-1.477073E-05,9.1935,0
0.6138,-1.678492E-06,9.207,0,0.6138,2.584878E-05,9.207,0
0.6147,-3.994812E-05,9.2205,0,0.6147,1.879912E-05,9.2205,0
0.6156,-4.666209E-05,9.234,0,0.6156,-3.256275E-05,9.234,0
0.6165,-4.33051E-05,9.2475,0,0.6165,4.028382E-06,9.2475,0
0.6174,-3.558404E-05,9.261,0,0.6174,2.28275E-05,9.261,0
0.6183,-5.404745E-05,9.2745,0,0.6183,-1.577783E-05,9.2745,0
0.6192,-7.922484E-05,9.288,0,0.6192,-3.189136E-05,9.288,0
0.6201,-4.39765E-05,9.3015,0,0.6201,5.371176E-06,9.3015,0
0.621,-4.229801E-05,9.315,0,0.621,8.392462E-06,9.315,0
0.6219,-1.913481E-05,9.3285,0,0.6219,-1.007095E-06,9.3285,0
0.6228,-1.275654E-05,9.342,0,0.6228,-6.61326E-05,9.342,0
0.6237,9.063859E-06,9.3555,0,0.6237,-4.095522E-05,9.3555,0
0.6246,2.652018E-05,9.369,0,0.6246,-9.735256E-06,9.369,0
0.6255,1.745632E-05,9.3825,0,0.6255,-3.021286E-05,9.3825,0
0.6264,2.047761E-05,9.396,0,0.6264,-3.793393E-05,9.396,0
0.6273,3.021286E-06,9.4095,0,0.6273,-7.049668E-06,9.4095,0
0.6282,2.1149E-05,9.423,0,0.6282,-9.399558E-06,9.423,0
0.6291,3.021286E-06,9.4365,0,0.6291,-5.539025E-05,9.4365,0
0.63,-2.752728E-05,9.45,0,0.63,-2.752728E-05,9.45,0
0.6309,1.309224E-05,9.4635,0,0.6309,6.713969E-06,9.4635,0
0.6318,8.996719E-05,9.477,0,0.6318,-9.735256E-06,9.477,0
0.6327,8.157473E-05,9.4905,0,0.6327,4.129091E-05,9.4905,0
0.6336,3.457694E-05,9.504,0,0.6336,0.0001044022,9.504,0
0.6345,-1.376364E-05,9.5175,0,0.6345,6.881819E-05,9.5175,0
0.6354,-5.337606E-05,9.531,0,0.6354,4.263371E-05,9.531,0
0.6363,-2.987716E-05,9.5445,0,0.6363,1.544213E-05,9.5445,0
0.6372,-0.000105745,9.558,0,0.6372,-4.33051E-05,9.558,0
0.6381,-6.076142E-05,9.5715,0,0.6381,-4.43122E-05,9.5715,0
0.639,-7.385367E-06,9.585,0,0.639,-7.888914E-05,9.585,0
0.6399,7.721065E-06,9.5985,0,0.6399,-0.0001326009,9.5985,0
0.6408,-1.913481E-05,9.612,0,0.6408,-4.061952E-05,9.612,0
0.6417,-3.323415E-05,9.6255,0,0.6417,-4.196231E-05,9.6255,0
0.6426,-2.383459E-05,9.639,0,0.6426,-7.385367E-05,9.639,0
0.6435,5.035477E-06,9.6525,0,0.6435,-1.812772E-05,9.6525,0
0.6444,-6.74754E-05,9.666,0,0.6444,-2.920577E-05,9.666,0
0.6453,-5.203327E-05,9.6795,0,0.6453,-4.666209E-05,9.6795,0
0.6462,-6.378271E-06,9.693,0,0.6462,-2.517739E-05,9.693,0
0.6471,-3.054856E-05,9.7065,0,0.6471,1.007095E-06,9.7065,0
0.648,-2.21561E-05,9.72,0,0.648,-4.599069E-05,9.72,0
0.6489,0,9.7335,0,0.6489,-5.673304E-05,9.7335,0
0.6498,2.24918E-05,9.747,0,0.6498,-6.076142E-05,9.747,0
0.6507,1.107805E-05,9.7605,0,0.6507,-5.740444E-05,9.7605,0
0.6516,5.673304E-05,9.774,0,0.6516,-5.001907E-05,9.774,0
0.6525,6.814679E-05,9.7875,0,0.6525,-4.800488E-05,9.7875,0
0.6534,4.229801E-05,9.801,0,0.6534,-1.913481E-05,9.801,0
0.6543,1.510643E-05,9.8145,0,0.6543,2.349889E-05,9.8145,0
0.6552,-8.392462E-06,9.828,0,0.6552,-8.728161E-06,9.828,0
0.6561,-3.558404E-05,9.8415,0,0.6561,-4.43122E-05,9.8415,0
0.657,-1.342794E-06,9.855,0,0.657,9.735256E-06,9.855,0
0.6579,-4.800488E-05,9.8685,0,0.6579,3.692683E-05,9.8685,0
0.6588,-6.478981E-05,9.882,0,0.6588,3.054856E-05,9.882,0
0.6597,-1.242084E-05,9.8955,0,0.6597,2.786297E-05,9.8955,0
0.6606,-1.510643E-05,9.909,0,0.6606,1.309224E-05,9.909,0
0.6615,-1.040665E-05,9.9225,0,0.6615,-1.510643E-05,9.9225,0
0.6624,-1.812772E-05,9.936,0,0.6624,-7.016098E-05,9.936,0
0.6633,0,9.9495,0,0.6633,-0.0001279011,9.9495,0
0.6642,-1.007095E-06,9.963,0,0.6642,-0.0001151446,9.963,0
0.6651,3.424125E-05,9.976501,0,0.6651,-8.291753E-05,9.976501,0
0.666,5.304036E-05,9.99,0,0.666,-0.0001007095,9.99,0
0.6669,-3.692683E-06,10.0035,0,0.6669,-1.040665E-05,10.0035,0
0.6678,-6.64683E-05,10.017,0,0.6678,0.0001752346,10.017,0
0.6687,-3.659113E-05,10.0305,0,0.6687,6.143282E-05,10.0305,0
0.6696,-1.376364E-05,10.044,0,0.6696,-5.069047E-05,10.044,0
0.6705,-2.517739E-05,10.0575,0,0.6705,-1.846342E-05,10.0575,0
0.6714,-1.510643E-05,10.071,0,0.6714,-6.713969E-07,10.071,0
0.6723,-9.735256E-06,10.0845,0,0.6723,-2.316319E-05,10.0845,0
0.6732,2.18204E-05,10.098,0,0.6732,-2.719158E-05,10.098,0
0.6741,1.409934E-05,10.1115,0,0.6741,-2.685588E-05,10.1115,0
0.675,1.644922E-05,10.125,0,0.675,-3.659113E-05,10.125,0
0.6759,-2.047761E-05,10.1385,0,0.6759,-4.632639E-05,10.1385,0
0.6768,-2.24918E-05,10.152,0,0.6768,-5.337606E-05,10.152,0
0.6777,-8.392462E-06,10.1655,0,0.6777,-4.129091E-05,10.1655,0
0.6786,-2.719158E-05,10.179,0,0.6786,-1.980621E-05,10.179,0
0.6795,-5.035477E-06,10.1925,0,0.6795,-2.24918E-05,10.1925,0
0.6804,2.652018E-05,10.206,0,0.6804,-1.510643E-05,10.206,0
0.6813,-1.745632E-05,10.2195,0,0.6813,6.948959E-05,10.2195,0
0.6822,-5.807584E-05,10.233,0,0.6822,8.291753E-05,10.233,0
0.6831,-6.378271E-06,10.2465,0,0.6831,5.874724E-05,10.2465,0
0.684,-2.786297E-05,10.26,0,0.684,8.560311E-05,10.26,0
0.6849,-1.644922E-05,10.2735,0,0.6849,3.793393E-05,10.2735,0
0.6858,6.243992E-05,10.287,0,0.6858,-5.975433E-05,10.287,0
0.6867,0.0001010452,10.3005,0,0.6867,-7.083238E-05,10.3005,0
0.6876,4.934768E-05,10.314,0,0.6876,-5.471885E-05,10.314,0
0.6885,3.524834E-05,10.3275,0,0.6885,-7.150377E-05,10.3275,0
0.6894,2.652018E-05,10.341,0,0.6894,-9.903105E-05,10.341,0
0.6903,3.021286E-06,10.3545,0,0.6903,-6.243992E-05,10.3545,0
0.6912,-3.289845E-05,10.368,0,0.6912,-2.786297E-05,10.368,0
0.6921,-6.54612E-05,10.3815,0,0.6921,-2.349889E-06,10.3815,0
0.693,-2.719158E-05,10.395,0,0.693,-3.692683E-06,10.395,0
0.6939,-2.887007E-05,10.4085,0,0.6939,-3.524834E-05,10.4085,0
0.6948,-1.577783E-05,10.422,0,0.6948,-2.987716E-05,10.422,0
0.6957,-8.728161E-06,10.4355,0,0.6957,-5.035477E-05,10.4355,0
0.6966,-5.706874E-06,10.449,0,0.6966,-7.620356E-05,10.449,0
0.6975,-4.867628E-05,10.4625,0,0.6975,-4.061952E-05,10.4625,0
0.6984,-1.577783E-05,10.476,0,0.6984,-1.879912E-05,10.476,0
0.6993,-7.721065E-06,10.4895,0,0.6993,-3.894102E-05,10.4895,0
0.7002,-1.443504E-05,10.503,0,0.7002,-2.450599E-05,10.503,0
0.7011,-2.786297E-05,10.5165,0,0.7011,3.088426E-05,10.5165,0
0.702,-5.941863E-05,10.53,0,0.702,6.143282E-05,10.53,0
0.7029,-4.33051E-05,10.5435,0,0.7029,4.46479E-05,10.5435,0
0.7038,-1.174945E-05,10.557,0,0.7038,3.356985E-07,10.557,0
0.7047,-9.735256E-06,10.5705,0,0.7047,-1.510643E-05,10.5705,0
0.7056,3.390555E-05,10.584,0,0.7056,-2.316319E-05,10.584,0
0.7065,6.311131E-05,10.5975,0,0.7065,-5.035477E-05,10.5975,0
0.7074,2.786297E-05,10.611,0,0.7074,-6.210422E-05,10.611,0
0.7083,4.028382E-05,10.6245,0,0.7083,2.21561E-05,10.6245,0
0.7092,5.807584E-05,10.638,0,0.7092,9.365987E-05,10.638,0
0.7101,5.203327E-05,10.6515,0,0.7101,4.263371E-05,10.6515,0
0.711,-5.035477E-06,10.665,0,0.711,1.376364E-05,10.665,0
0.7119,-3.591974E-05,10.6785,0,0.7119,-1.913481E-05,10.6785,0
0.7128,-4.934768E-05,10.692,0,0.7128,-5.774014E-05,10.692,0
0.7137,-6.61326E-05,10.7055,0,0.7137,-3.793393E-05,10.7055,0
0.7146,-3.256275E-05,10.719,0,0.7146,1.208515E-05,10.719,0
0.7155,-2.719158E-05,10.7325,0,0.7155,-3.021286E-06,10.7325,0
0.7164,-2.618448E-05,10.746,0,0.7164,-1.644922E-05,10.746,0
0.7173,-1.409934E-05,10.7595,0,0.7173,-3.524834E-05,10.7595,0
0.7182,-1.174945E-05,10.773,0,0.7182,-2.517739E-05,10.773,0
0.7191,-3.121996E-05,10.7865,0,0.7191,-8.056763E-06,10.7865,0
0.72,-3.793393E-05,10.8,0,0.72,-6.54612E-05,10.8,0
0.7209,-8.526741E-05,10.8135,0,0.7209,-8.493171E-05,10.8135,0
0.7218,-6.478981E-05,10.827,0,0.7218,-4.196231E-05,10.827,0
0.7227,-3.894102E-05,10.8405,0,0.7227,-2.887007E-05,10.8405,0
0.7236,-2.618448E-05,10.854,0,0.7236,-5.404745E-05,10.854,0
0.7245,-2.014191E-06,10.8675,0,0.7245,2.920577E-05,10.8675,0
0.7254,-2.316319E-05,10.881,0,0.7254,5.136187E-05,10.881,0
0.7263,5.706874E-06,10.8945,0,0.7263,-2.349889E-05,10.8945,0
0.7272,7.956054E-05,10.908,0,0.7272,-3.021286E-05,10.908,0
0.7281,9.634547E-05,10.9215,0,0.7281,-2.21561E-05,10.9215,0
0.729,7.754635E-05,10.935,0,0.729,-2.450599E-05,10.935,0
0.7299,8.325322E-05,10.9485,0,0.7299,-1.309224E-05,10.9485,0
0.7308,4.599069E-05,10.962,0,0.7308,-2.719158E-05,10.962,0
0.7317,3.457694E-05,10.9755,0,0.7317,-1.443504E-05,10.9755,0
0.7326,-6.378271E-06,10.989,0,0.7326,-2.584878E-05,10.989,0
0.7335,-1.242084E-05,11.0025,0,0.7335,-5.740444E-05,11.0025,0
0.7344,2.920577E-05,11.016,0,0.7344,-5.673304E-05,11.016,0
0.7353,2.652018E-05,11.0295,0,0.7353,-1.712062E-05,11.0295,0
0.7362,1.309224E-05,11.043,0,0.7362,-2.652018E-05,11.043,0
0.7371,1.577783E-05,11.0565,0,0.7371,-5.404745E-05,11.0565,0
0.738,-2.1149E-05,11.07,0,0.738,-3.457694E-05,11.07,0
0.7389,2.920577E-05,11.0835,0,0.7389,-1.174945E-05,11.0835,0
0.7398,-4.028382E-06,11.097,0,0.7398,-1.242084E-05,11.097,0
0.7407,-0.0001131304,11.1105,0,0.7407,-3.894102E-05,11.1105,0
0.7416,-0.0001050736,11.124,0,0.7416,-1.913481E-05,11.124,0
0.7425,-8.795301E-05,11.1375,0,0.7425,-1.074235E-05,11.1375,0
0.7434,-9.231708E-05,11.151,0,0.7434,-2.887007E-05,11.151,0
0.7443,-3.927672E-05,11.1645,0,0.7443,-5.102617E-05,11.1645,0
0.7452,-3.256275E-05,11.178,0,0.7452,-7.721065E-06,11.178,0
0.7461,-7.486076E-05,11.1915,0,0.7461,8.728161E-06,11.1915,0
0.747,-3.860533E-05,11.205,0,0.747,-2.047761E-05,11.205,0
0.7479,-2.316319E-05,11.2185,0,0.7479,-3.424125E-05,11.2185,0
0.7488,-6.143282E-05,11.232,0,0.7488,6.378271E-06,11.232,0
0.7497,-5.169757E-05,11.2455,0,0.7497,-7.721065E-06,11.2455,0
0.7506,-2.887007E-05,11.259,0,0.7506,-5.874724E-05,11.259,0
0.7515,-3.692683E-05,11.2725,0,0.7515,-2.719158E-05,11.2725,0
0.7524,2.383459E-05,11.286,0,0.7524,-5.706874E-06,11.286,0
0.7533,8.89601E-05,11.2995,0,0.7533,-3.323415E-05,11.2995,0
0.7542,7.486076E-05,11.313,0,0.7542,-2.18204E-05,11.313,0
0.7551,9.567407E-05,11.3265,0,0.7551,4.43122E-05,11.3265,0
0.756,9.298848E-05,11.34,0,0.756,4.061952E-05,11.34,0
0.7569,8.023193E-05,11.3535,0,0.7569,-2.047761E-05,11.3535,0
0.7578,2.081331E-05,11.367,0,0.7578,-3.289845E-05,11.367,0
0.7587,-1.007095E-05,11.3805,0,0.7587,-1.040665E-05,11.3805,0
0.7596,-3.189136E-05,11.394,0,0.7596,-5.706874E-06,11.394,0
0.7605,-3.457694E-05,11.4075,0,0.7605,-2.920577E-05,11.4075,0
0.7614,-1.007095E-06,11.421,0,0.7614,-5.539025E-05,11.421,0
0.7623,-2.383459E-05,11.4345,0,0.7623,-9.735256E-06,11.4345,0
0.7632,-5.035477E-05,11.448,0,0.7632,3.356985E-06,11.448,0
0.7641,-1.443504E-05,11.4615,0,0.7641,-4.53193E-05,11.4615,0
0.765,3.021286E-06,11.475,0,0.765,-8.392462E-06,11.475,0
0.7659,-4.43122E-05,11.4885,0,0.7659,1.779202E-05,11.4885,0
0.7668,-4.43122E-05,11.502,0,0.7668,-1.913481E-05,11.502,0
0.7677,-1.208515E-05,11.5155,0,0.7677,-7.049668E-06,11.5155,0
0.7686,-2.652018E-05,11.529,0,0.7686,3.524834E-05,11.529,0
0.7695,-2.920577E-05,11.5425,0,0.7695,0,11.5425,0
0.7704,-1.376364E-05,11.556,0,0.7704,-7.721065E-06,11.556,0
0.7713,-1.745632E-05,11.5695,0,0.7713,-3.356985E-07,11.5695,0
0.7722,-2.450599E-05,11.583,0,0.7722,6.61326E-05,11.583,0
0.7731,-4.33051E-05,11.5965,0,0.7731,7.721065E-05,11.5965,0
0.774,-2.618448E-05,11.61,0,0.774,-3.759823E-05,11.61,0
0.7749,8.056763E-06,11.6235,0,0.7749,-0.0001292439,11.6235,0
0.7758,4.36408E-06,11.637,0,0.7758,-0.000112459,11.637,0
0.7767,3.860533E-05,11.6505,0,0.7767,-9.231708E-05,11.6505,0
0.7776,5.841154E-05,11.664,0,0.7776,-0.0001819486,11.664,0
0.7785,5.471885E-05,11.6775,0,0.7785,-8.493171E-05,11.6775,0
0.7794,2.24918E-05,11.691,0,0.7794,2.1149E-05,11.691,0
0.7803,2.349889E-06,11.7045,0,0.7803,2.349889E-06,11.7045,0
0.7812,-4.36408E-06,11.718,0,0.7812,6.713969E-06,11.718,0
0.7821,-1.242084E-05,11.7315,0,0.7821,2.047761E-05,11.7315,0
0.783,-1.275654E-05,11.745,0,0.783,-3.826963E-05,11.745,0
0.7839,-1.913481E-05,11.7585,0,0.7839,-3.793393E-05,11.7585,0
0.7848,-5.706874E-06,11.772,0,0.7848,-2.18204E-05,11.772,0
0.7857,-3.155566E-05,11.7855,0,0.7857,-3.289845E-05,11.7855,0
0.7866,-8.627451E-05,11.799,0,0.7866,-2.853437E-05,11.799,0
0.7875,-6.54612E-05,11.8125,0,0.7875,-3.189136E-05,11.8125,0
0.7884,-3.524834E-05,11.826,0,0.7884,-2.450599E-05,11.826,0
0.7893,-3.558404E-05,11.8395,0,0.7893,3.021286E-06,11.8395,0
0.7902,-4.39765E-05,11.853,0,0.7902,7.721065E-06,11.853,0
0.7911,-1.443504E-05,11.8665,0,0.7911,4.699779E-06,11.8665,0
0.792,1.141375E-05,11.88,0,0.792,3.524834E-05,11.88,0
0.7929,5.807584E-05,11.8935,0,0.7929,1.712062E-05,11.8935,0
0.7938,8.69459E-05,11.907,0,0.7938,-5.606165E-05,11.907,0
0.7947,3.726253E-05,11.9205,0,0.7947,-5.471885E-05,11.9205,0
0.7956,6.478981E-05,11.934,0,0.7956,-3.323415E-05,11.934,0
0.7965,9.231708E-05,11.9475,0,0.7965,7.553216E-05,11.9475,0
0.7974,3.054856E-05,11.961,0,0.7974,0.0001013809,11.961,0
0.7983,3.692683E-06,11.9745,0,0.7983,-2.987716E-05,11.9745,0
0.7992,7.385367E-06,11.988,0,0.7992,1.007095E-06,11.988,0
0.8001,2.853437E-05,12.0015,0,0.8001,5.136187E-05,12.0015,0
0.801,3.189136E-05,12.015,0,0.801,-6.378271E-06,12.015,0
0.8019,3.222705E-05,12.0285,0,0.8019,-6.478981E-05,12.0285,0
0.8028,-1.007095E-05,12.042,0,0.8028,-5.404745E-05,12.042,0
0.8037,-2.18204E-05,12.0555,0,0.8037,-6.74754E-05,12.0555,0
0.8046,-4.934768E-05,12.069,0,0.8046,-9.164568E-05,12.069,0
0.8055,-7.653925E-05,12.0825,0,0.8055,-7.821774E-05,12.0825,0
0.8064,-6.881819E-05,12.096,0,0.8064,-6.74754E-05,12.096,0
0.8073,-0.0001232013,12.1095,0,0.8073,-7.754635E-05,12.1095,0
0.8082,-0.000102388,12.123,0,0.8082,-4.666209E-05,12.123,0
0.8091,-4.33051E-05,12.1365,0,0.8091,1.846342E-05,12.1365,0
0.81,-6.210422E-05,12.15,0,0.81,4.565499E-05,12.15,0
0.8109,-7.116808E-05,12.1635,0,0.8109,2.24918E-05,12.1635,0
0.8118,-5.874724E-05,12.177,0,0.8118,-2.450599E-05,12.177,0
0.8127,-1.577783E-05,12.1905,0,0.8127,1.309224E-05,12.1905,0
0.8136,1.712062E-05,12.204,0,0.8136,4.766919E-05,12.204,0
0.8145,1.779202E-05,12.2175,0,0.8145,1.007095E-06,12.2175,0
0.8154,2.349889E-05,12.231,0,0.8154,-1.644922E-05,12.231,0
0.8163,-1.812772E-05,12.2445,0,0.8163,-5.706874E-06,12.2445,0
0.8172,1.309224E-05,12.258,0,0.8172,-8.392462E-06,12.258,0
0.8181,5.069047E-05,12.2715,0,0.8181,-3.726253E-05,12.2715,0
0.819,1.443504E-05,12.285,0,0.819,7.385367E-06,12.285,0
0.8199,-2.18204E-05,12.2985,0,0.8199,5.706874E-06,12.2985,0
0.8208,4.699779E-06,12.312,0,0.8208,-3.155566E-05,12.312,0
0.8217,4.263371E-05,12.3255,0,0.8217,-3.256275E-05,12.3255,0
0.8226,1.644922E-05,12.339,0,0.8226,-2.450599E-05,12.339,0
0.8235,-2.349889E-06,12.3525,0,0.8235,-1.577783E-05,12.3525,0
0.8244,9.063859E-06,12.366,0,0.8244,-3.189136E-05,12.366,0
0.8253,1.510643E-05,12.3795,0,0.8253,-3.759823E-05,12.3795,0
0.8262,-1.040665E-05,12.393,0,0.8262,-1.074235E-05,12.393,0
0.8271,-1.275654E-05,12.4065,0,0.8271,6.713969E-07,12.4065,0
0.828,6.411841E-05,12.42,0,0.828,-1.812772E-05,12.42,0
0.8289,7.217517E-05,12.4335,0,0.8289,-3.524834E-05,12.4335,0
0.8298,3.826963E-05,12.447,0,0.8298,-9.399558E-06,12.447,0
0.8307,-3.256275E-05,12.4605,0,0.8307,-2.316319E-05,12.4605,0
0.8316,-3.021286E-06,12.474,0,0.8316,-3.994812E-05,12.474,0
0.8325,-1.846342E-05,12.4875,0,0.8325,8.728161E-06,12.4875,0
0.8334,-8.89601E-05,12.501,0,0.8334,1.980621E-05,12.501,0
0.8343,-0.0001104448,12.5145,0,0.8343,-1.745632E-05,12.5145,0
0.8352,-4.733349E-05,12.528,0,0.8352,9.063859E-06,12.528,0
0.8361,-3.323415E-05,12.5415,0,0.8361,3.189136E-05,12.5415,0
0.837,8.392462E-06,12.555,0,0.837,5.035477E-06,12.555,0
0.8379,4.263371E-05,12.5685,0,0.8379,8.392462E-06,12.5685,0
0.8388,3.457694E-05,12.582,0,0.8388,-4.39765E-05,12.582,0
0.8397,4.162661E-05,12.5955,0,0.8397,-5.706874E-05,12.5955,0
0.8406,4.800488E-05,12.609,0,0.8406,-2.18204E-05,12.609,0
0.8415,-5.706874E-06,12.6225,0,0.8415,-8.69459E-05,12.6225,0
0.8424,-9.399558E-06,12.636,0,0.8424,-8.92958E-05,12.636,0
0.8433,-3.054856E-05,12.6495,0,0.8433,-1.745632E-05,12.6495,0
0.8442,-8.392462E-06,12.663,0,0.8442,-1.779202E-05,12.663,0
0.8451,-3.356985E-07,12.6765,0,0.8451,-6.243992E-05,12.6765,0
0.846,-1.208515E-05,12.69,0,0.846,-2.081331E-05,12.69,0
0.8469,-4.061952E-05,12.7035,0,0.8469,-2.18204E-05,12.7035,0
0.8478,-6.076142E-05,12.717,0,0.8478,-5.807584E-05,12.717,0
0.8487,-2.719158E-05,12.7305,0,0.8487,-4.934768E-05,12.7305,0
0.8496,-3.256275E-05,12.744,0,0.8496,-2.517739E-05,12.744,0
0.8505,-1.174945E-05,12.7575,0,0.8505,-1.510643E-05,12.7575,0
0.8514,1.913481E-05,12.771,0,0.8514,-1.678492E-05,12.771,0
0.8523,1.443504E-05,12.7845,0,0.8523,-4.129091E-05,12.7845,0
0.8532,-1.577783E-05,12.798,0,0.8532,-2.920577E-05,12.798,0
0.8541,-2.987716E-05,12.8115,0,0.8541,1.040665E-05,12.8115,0
0.855,-5.069047E-05,12.825,0,0.855,-1.141375E-05,12.825,0
0.8559,-4.061952E-05,12.8385,0,0.8559,-1.980621E-05,12.8385,0
0.8568,-5.203327E-05,12.852,0,0.8568,1.443504E-05,12.852,0
0.8577,-5.673304E-05,12.8655,0,0.8577,5.706874E-06,12.8655,0
0.8586,1.879912E-05,12.879,0,0.8586,-2.853437E-05,12.879,0
0.8595001,5.673304E-05,12.8925,0,0.8595001,-2.584878E-05,12.8925,0
0.8604,3.390555E-05,12.906,0,0.8604,-3.927672E-05,12.906,0
0.8613,1.779202E-05,12.9195,0,0.8613,-1.376364E-05,12.9195,0
0.8622,-3.256275E-05,12.933,0,0.8622,-1.443504E-05,12.933,0
0.8631,3.356985E-07,12.9465,0,0.8631,-2.987716E-05,12.9465,0
0.864,4.129091E-05,12.96,0,0.864,1.980621E-05,12.96,0
0.8649,3.189136E-05,12.9735,0,0.8649,4.666209E-05,12.9735,0
0.8658,3.390555E-05,12.987,0,0.8658,3.021286E-06,12.987,0
0.8667,2.450599E-05,13.0005,0,0.8667,-1.477073E-05,13.0005,0
0.8676,-1.309224E-05,13.014,0,0.8676,-9.399558E-06,13.014,0
0.8685,-6.042573E-06,13.0275,0,0.8685,-2.652018E-05,13.0275,0
0.8694,3.457694E-05,13.041,0,0.8694,-5.102617E-05,13.041,0
0.8703,-7.721065E-06,13.0545,0,0.8703,-2.652018E-05,13.0545,0
0.8712,-1.409934E-05,13.068,0,0.8712,-1.779202E-05,13.068,0
0.8721,2.652018E-05,13.0815,0,0.8721,-4.834058E-05,13.0815,0
0.873,-6.042573E-06,13.095,0,0.873,-2.450599E-05,13.095,0
0.8739,-3.323415E-05,13.1085,0,0.8739,7.049668E-06,13.1085,0
0.8748,-1.309224E-05,13.122,0,0.8748,-3.323415E-05,13.122,0
0.8757,-2.786297E-05,13.1355,0,0.8757,-2.450599E-05,13.1355,0
0.8766,-7.452507E-05,13.149,0,0.8766,3.356985E-06,13.149,0
0.8775,-6.478981E-05,13.1625,0,0.8775,-9.735256E-06,13.1625,0
0.8784,-5.706874E-06,13.176,0,0.8784,-3.021286E-06,13.176,0
0.8793,-1.510643E-05,13.1895,0,0.8793,-3.054856E-05,13.1895,0
0.8802,6.378271E-06,13.203,0,0.8802,-1.040665E-05,13.203,0
0.8811,8.392462E-06,13.2165,0,0.8811,6.378271E-06,13.2165,0
0.882,-2.18204E-05,13.23,0,0.882,-3.826963E-05,13.23,0
0.8829,-2.18204E-05,13.2435,0,0.8829,-7.351797E-05,13.2435,0
0.8838,1.242084E-05,13.257,0,0.8838,1.040665E-05,13.257,0
0.8847,1.174945E-05,13.2705,0,0.8847,6.6804E-05,13.2705,0
0.8856,2.987716E-05,13.284,0,0.8856,3.692683E-05,13.284,0
0.8865,1.577783E-05,13.2975,0,0.8865,-8.392462E-06,13.2975,0
0.8874,3.155566E-05,13.311,0,0.8874,-7.754635E-05,13.311,0
0.8883,2.652018E-05,13.3245,0,0.8883,-0.0001312581,13.3245,0
0.8892,-1.644922E-05,13.338,0,0.8892,-0.000119173,13.338,0
0.8901,-3.356985E-07,13.3515,0,0.8901,-5.337606E-05,13.3515,0
0.891,7.989624E-05,13.365,0,0.891,-6.814679E-05,13.365,0
0.8919,7.855344E-05,13.3785,0,0.8919,-6.009003E-05,13.3785,0
0.8928,4.43122E-05,13.392,0,0.8928,-5.807584E-05,13.392,0
0.8937,1.712062E-05,13.4055,0,0.8937,-3.625543E-05,13.4055,0
0.8946,-2.517739E-05,13.419,0,0.8946,-5.035477E-06,13.419,0
0.8955,-4.39765E-05,13.4325,0,0.8955,4.699779E-06,13.4325,0
0.8964,-0.0001305867,13.446,0,0.8964,-3.692683E-06,13.446,0
0.8973,-0.0001550927,13.4595,0,0.8973,5.874724E-05,13.4595,0
0.8982,-7.150377E-05,13.473,0,0.8982,6.344701E-05,13.473,0
0.8991,-2.316319E-05,13.4865,0,0.8991,1.141375E-05,13.4865,0
0.9,-2.887007E-05,13.5,0,0.9,5.169757E-05,13.5,0
0.9009,-2.853437E-05,13.5135,0,0.9009,5.539025E-05,13.5135,0
0.9018,-3.524834E-05,13.527,0,0.9018,3.692683E-06,13.527,0
0.9027,-3.793393E-05,13.5405,0,0.9027,1.846342E-05,13.5405,0
0.9036,-3.155566E-05,13.554,0,0.9036,4.666209E-05,13.554,0
0.9045,4.699779E-06,13.5675,0,0.9045,3.054856E-05,13.5675,0
0.9054,1.174945E-05,13.581,0,0.9054,-1.342794E-05,13.581,0
0.9063,6.378271E-06,13.5945,0,0.9063,-7.586786E-05,13.5945,0
0.9072,8.392462E-06,13.608,0,0.9072,-4.733349E-05,13.608,0
0.9081,-8.392462E-06,13.6215,0,0.9081,-1.544213E-05,13.6215,0
0.909,-2.618448E-05,13.635,0,0.909,-3.961242E-05,13.635,0
0.9099,-7.385367E-06,13.6485,0,0.9099,-4.33051E-05,13.6485,0
0.9108,-1.242084E-05,13.662,0,0.9108,-6.713969E-07,13.662,0
0.9117,-3.659113E-05,13.6755,0,0.9117,-5.371176E-06,13.6755,0
0.9126,1.678492E-06,13.689,0,0.9126,-3.994812E-05,13.689,0
0.9135,0,13.7025,0,0.9135,-2.047761E-05,13.7025,0
0.9144,-9.063859E-06,13.716,0,0.9144,-5.706874E-06,13.716,0
0.9153,2.584878E-05,13.7295,0,0.9153,-4.867628E-05,13.7295,0
0.9162,4.43122E-05,13.743,0,0.9162,-1.712062E-05,13.743,0
0.9171,6.109713E-05,13.7565,0,0.9171,-5.706874E-06,13.7565,0
0.918,8.291753E-05,13.77,0,0.918,-1.980621E-05,13.77,0
0.9189,8.090334E-05,13.7835,0,0.9189,-5.706874E-06,13.7835,0
0.9198,7.217517E-05,13.797,0,0.9198,-3.726253E-05,13.797,0
0.9207,-1.913481E-05,13.8105,0,0.9207,-3.860533E-05,13.8105,0
0.9216,-7.049668E-05,13.824,0,0.9216,-3.726253E-05,13.824,0
0.9225,-1.107805E-05,13.8375,0,0.9225,-4.901198E-05,13.8375,0
0.9234,-1.242084E-05,13.851,0,0.9234,-4.53193E-05,13.851,0
0.9243,-1.409934E-05,13.8645,0,0.9243,-6.378271E-06,13.8645,0
0.9252,-7.049668E-06,13.878,0,0.9252,-2.014191E-05,13.878,0
0.9261,2.014191E-06,13.8915,0,0.9261,-6.243992E-05,13.8915,0
0.927,1.007095E-06,13.905,0,0.927,-2.853437E-05,13.905,0
0.9279,-3.189136E-05,13.9185,0,0.9279,-2.786297E-05,13.9185,0
0.9288,-6.042573E-05,13.932,0,0.9288,-7.318227E-05,13.932,0
0.9297,-1.242084E-05,13.9455,0,0.9297,-9.097429E-05,13.9455,0
0.9306,-2.18204E-05,13.959,0,0.9306,-6.076142E-05,13.959,0
0.9315,-4.129091E-05,13.9725,0,0.9315,-4.33051E-05,13.9725,0
0.9324,-6.042573E-06,13.986,0,0.9324,-1.040665E-05,13.986,0
0.9333,-2.786297E-05,13.9995,0,0.9333,-4.095522E-05,13.9995,0
0.9342,-3.390555E-05,14.013,0,0.9342,-4.901198E-05,14.013,0
0.9351,-6.848249E-05,14.0265,0,0.9351,-2.1149E-05,14.0265,0
0.936,-3.927672E-05,14.04,0,0.936,3.021286E-06,14.04,0
0.9369,4.028382E-06,14.0535,0,0.9369,2.551309E-05,14.0535,0
0.9378,1.846342E-05,14.067,0,0.9378,2.954147E-05,14.067,0
0.9387,-9.735256E-06,14.0805,0,0.9387,1.007095E-06,14.0805,0
0.9396001,5.706874E-06,14.094,0,0.9396001,-1.007095E-06,14.094,0
0.9405,6.713969E-07,14.1075,0,0.9405,4.699779E-05,14.1075,0
0.9414001,2.316319E-05,14.121,0,0.9414001,3.289845E-05,14.121,0
0.9423,1.409934E-05,14.1345,0,0.9423,1.376364E-05,14.1345,0
0.9432001,-2.517739E-05,14.148,0,0.9432001,2.18204E-05,14.148,0
0.9441,-3.793393E-05,14.1615,0,0.9441,7.049668E-06,14.1615,0
0.9450001,-1.812772E-05,14.175,0,0.9450001,-4.766919E-05,14.175,0
0.9459,-2.853437E-05,14.1885,0,0.9459,-5.975433E-05,14.1885,0
0.9468,1.040665E-05,14.202,0,0.9468,-7.486076E-05,14.202,0
0.9477,1.275654E-05,14.2155,0,0.9477,-1.376364E-05,14.2155,0
0.9486,5.706874E-06,14.229,0,0.9486,5.069047E-05,14.229,0
0.9495,-1.275654E-05,14.2425,0,0.9495,3.121996E-05,14.2425,0
0.9504,-1.309224E-05,14.256,0,0.9504,-4.934768E-05,14.256,0
0.9513,6.378271E-06,14.2695,0,0.9513,-4.53193E-05,14.2695,0
0.9522,5.035477E-06,14.283,0,0.9522,-2.786297E-05,14.283,0
0.9531,2.719158E-05,14.2965,0,0.9531,-5.606165E-05,14.2965,0
0.954,2.719158E-05,14.31,0,0.954,1.376364E-05,14.31,0
0.9549,1.879912E-05,14.3235,0,0.9549,3.121996E-05,14.3235,0
0.9558,5.270466E-05,14.337,0,0.9558,-1.510643E-05,14.337,0
0.9567,4.263371E-05,14.3505,0,0.9567,-2.920577E-05,14.3505,0
0.9576,-4.061952E-05,14.364,0,0.9576,-4.766919E-05,14.364,0
0.9585,-5.337606E-05,14.3775,0,0.9585,-8.82887E-05,14.3775,0
0.9594,-1.577783E-05,14.391,0,0.9594,-6.982528E-05,14.391,0
0.9603,3.054856E-05,14.4045,0,0.9603,-3.054856E-05,14.4045,0
0.9612,8.392462E-06,14.418,0,0.9612,2.21561E-05,14.418,0
0.9621,1.779202E-05,14.4315,0,0.9621,5.337606E-05,14.4315,0
0.963,2.920577E-05,14.445,0,0.963,-1.007095E-06,14.445,0
0.9639,-6.713969E-07,14.4585,0,0.9639,-3.457694E-05,14.4585,0
0.9648,-4.834058E-05,14.472,0,0.9648,-1.544213E-05,14.472,0
0.9657,-9.735256E-06,14.4855,0,0.9657,-2.786297E-05,14.4855,0
0.9666,5.706874E-06,14.499,0,0.9666,-7.016098E-05,14.499,0
0.9675,-3.155566E-05,14.5125,0,0.9675,-3.189136E-05,14.5125,0
0.9684,-2.719158E-05,14.526,0,0.9684,-1.544213E-05,14.526,0
0.9693,-3.726253E-05,14.5395,0,0.9693,-5.874724E-05,14.5395,0
0.9702,1.174945E-05,14.553,0,0.9702,-3.625543E-05,14.553,0
0.9711,-1.779202E-05,14.5665,0,0.9711,-1.577783E-05,14.5665,0
0.972,-1.947051E-05,14.58,0,0.972,2.920577E-05,14.58,0
0.9729,7.049668E-06,14.5935,0,0.9729,1.174945E-05,14.5935,0
0.9738,-1.443504E-05,14.607,0,0.9738,-6.210422E-05,14.607,0
0.9747,-1.107805E-05,14.6205,0,0.9747,-1.309224E-05,14.6205,0
0.9756,-5.673304E-05,14.634,0,0.9756,2.21561E-05,14.634,0
0.9765,-5.404745E-05,14.6475,0,0.9765,2.349889E-06,14.6475,0
0.9774,-2.786297E-05,14.661,0,0.9774,-3.457694E-05,14.661,0
0.9783,-2.316319E-05,14.6745,0,0.9783,3.021286E-06,14.6745,0
0.9792,-2.719158E-05,14.688,0,0.9792,-8.392462E-06,14.688,0
0.9801,-2.618448E-05,14.7015,0,0.9801,-6.042573E-05,14.7015,0
0.981,-5.706874E-06,14.715,0,0.981,-2.652018E-05,14.715,0
0.9819,7.586786E-05,14.7285,0,0.9819,-1.812772E-05,14.7285,0
0.9828,6.814679E-05,14.742,0,0.9828,-4.53193E-05,14.742,0
0.9837,9.735256E-06,14.7555,0,0.9837,-2.853437E-05,14.7555,0
0.9846,-2.383459E-05,14.769,0,0.9846,5.035477E-06,14.769,0
0.9855,-2.987716E-05,14.7825,0,0.9855,-4.36408E-06,14.7825,0
0.9864,-4.599069E-05,14.796,0,0.9864,-1.107805E-05,14.796,0
0.9873,-4.49836E-05,14.8095,0,0.9873,-2.349889E-05,14.8095,0
0.9882,-3.021286E-06,14.823,0,0.9882,5.035477E-06,14.823,0
0.9891,-3.894102E-05,14.8365,0,0.9891,-2.1149E-05,14.8365,0
0.99,-4.632639E-05,14.85,0,0.99,-3.323415E-05,14.85,0
0.9909,4.36408E-06,14.8635,0,0.9909,-3.390555E-05,14.8635,0
0.9918,-3.659113E-05,14.877,0,0.9918,-8.392462E-06,14.877,0
0.9927,-5.136187E-05,14.8905,0,0.9927,-2.18204E-05,14.8905,0
0.9936,-2.081331E-05,14.904,0,0.9936,-4.33051E-05,14.904,0
0.9945,-1.947051E-05,14.9175,0,0.9945,1.174945E-05,14.9175,0
0.9954,6.378271E-06,14.931,0,0.9954,3.726253E-05,14.931,0
0.9963,3.994812E-05,14.9445,0,0.9963,1.107805E-05,14.9445,0
0.9972,8.392462E-06,14.958,0,0.9972,-1.208515E-05,14.958,0
0.9981,1.510643E-05,14.9715,0,0.9981,1.846342E-05,14.9715,0
0.999,6.378271E-06,14.985,0,0.999,-8.392462E-06,14.985,0
0.9999,-1.141375E-05,14.9985,0,0.9999,-1.678492E-05,14.9985,0
1.0008,9.399558E-06,15.012,0,1.0008,-2.752728E-05,15.012,0
1.0017,2.584878E-05,15.0255,0,1.0017,-1.409934E-05,15.0255,0
1.0026,3.625543E-05,15.039,0,1.0026,1.846342E-05,15.039,0
1.0035,-2.349889E-06,15.0525,0,1.0035,-3.021286E-05,15.0525,0
1.0044,-2.887007E-05,15.066,0,1.0044,-5.941863E-05,15.066,0
1.0053,-2.853437E-05,15.0795,0,1.0053,-1.107805E-05,15.0795,0
1.0062,1.913481E-05,15.093,0,1.0062,-1.208515E-05,15.093,0
1.0071,-1.174945E-05,15.1065,0,1.0071,-6.54612E-05,15.1065,0
1.008,-3.289845E-05,15.12,0,1.008,-2.24918E-05,15.12,0
1.0089,3.457694E-05,15.1335,0,1.0089,-1.913481E-05,15.1335,0
1.0098,3.894102E-05,15.147,0,1.0098,-4.39765E-05,15.147,0
1.0107,-3.424125E-05,15.1605,0,1.0107,-2.987716E-05,15.1605,0
1.0116,-0.0001010452,15.174,0,1.0116,-5.035477E-06,15.174,0
1.0125,-7.922484E-05,15.1875,0,1.0125,1.007095E-06,15.1875,0
1.0134,-4.33051E-05,15.201,0,1.0134,-5.706874E-06,15.201,0
1.0143,1.510643E-05,15.2145,0,1.0143,-2.987716E-05,15.2145,0
1.0152,1.107805E-05,15.228,0,1.0152,-1.174945E-05,15.228,0
1.0161,3.457694E-05,15.2415,0,1.0161,-1.342794E-05,15.2415,0
1.017,2.853437E-05,15.255,0,1.017,-2.887007E-05,15.255,0
1.0179,4.766919E-05,15.2685,0,1.0179,-5.304036E-05,15.2685,0
1.0188,7.553216E-05,15.282,0,1.0188,-8.056763E-06,15.282,0
1.0197,4.33051E-05,15.2955,0,1.0197,-9.399558E-06,15.2955,0
1.0206,1.040665E-05,15.309,0,1.0206,-3.424125E-05,15.309,0
1.0215,-1.376364E-05,15.3225,0,1.0215,1.309224E-05,15.3225,0
1.0224,1.477073E-05,15.336,0,1.0224,-2.014191E-06,15.336,0
1.0233,3.994812E-05,15.3495,0,1.0233,-5.941863E-05,15.3495,0
1.0242,9.399558E-06,15.363,0,1.0242,-4.867628E-05,15.363,0
1.0251,-3.356985E-07,15.3765,0,1.0251,-3.927672E-05,15.3765,0
1.026,-3.021286E-06,15.39,0,1.026,-6.915389E-05,15.39,0
1.0269,-3.256275E-05,15.4035,0,1.0269,-5.035477E-06,15.4035,0
1.0278,-2.786297E-05,15.417,0,1.0278,8.392462E-06,15.417,0
1.0287,-3.021286E-06,15.4305,0,1.0287,-5.706874E-06,15.4305,0
1.0296,-2.584878E-05,15.444,0,1.0296,-2.450599E-05,15.444,0
1.0305,-2.349889E-06,15.4575,0,1.0305,-2.652018E-05,15.4575,0
1.0314,-3.256275E-05,15.471,0,1.0314,-1.980621E-05,15.471,0
1.0323,-6.881819E-05,15.4845,0,1.0323,3.054856E-05,15.4845,0
1.0332,-8.560311E-05,15.498,0,1.0332,2.18204E-05,15.498,0
1.0341,-6.54612E-05,15.5115,0,1.0341,-7.721065E-06,15.5115,0
1.035,-5.673304E-05,15.525,0,1.035,7.721065E-06,15.525,0
1.0359,-6.54612E-05,15.5385,0,1.0359,-3.591974E-05,15.5385,0
1.0368,-9.198138E-05,15.552,0,1.0368,-0.0001178302,15.552,0
1.0377,-5.539025E-05,15.5655,0,1.0377,-0.0001054093,15.5655,0
1.0386,-1.644922E-05,15.579,0,1.0386,-5.874724E-05,15.579,0
1.0395,7.888914E-05,15.5925,0,1.0395,-3.692683E-06,15.5925,0
1.0404,7.016098E-05,15.606,0,1.0404,7.956054E-05,15.606,0
1.0413,6.64683E-05,15.6195,0,1.0413,6.243992E-05,15.6195,0
1.0422,2.584878E-05,15.633,0,1.0422,-1.678492E-06,15.633,0
1.0431,2.652018E-05,15.6465,0,1.0431,-2.081331E-05,15.6465,0
1.044,5.203327E-05,15.66,0,1.044,-1.074235E-05,15.66,0
1.0449,1.712062E-05,15.6735,0,1.0449,-3.927672E-05,15.6735,0
1.0458,-5.035477E-06,15.687,0,1.0458,-4.36408E-06,15.687,0
1.0467,-3.021286E-06,15.7005,0,1.0467,-2.450599E-05,15.7005,0
1.0476,-4.36408E-06,15.714,0,1.0476,-6.814679E-05,15.714,0
1.0485,-8.392462E-06,15.7275,0,1.0485,-1.779202E-05,15.7275,0
1.0494,1.007095E-06,15.741,0,1.0494,1.242084E-05,15.741,0
1.0503,-7.049668E-06,15.7545,0,1.0503,-2.047761E-05,15.7545,0
1.0512,-3.021286E-05,15.768,0,1.0512,-4.33051E-05,15.768,0
1.0521,1.141375E-05,15.7815,0,1.0521,-1.510643E-05,15.7815,0
1.053,1.376364E-05,15.795,0,1.053,-2.853437E-05,15.795,0
1.0539,-2.584878E-05,15.8085,0,1.0539,-3.659113E-05,15.8085,0
1.0548,-1.678492E-05,15.822,0,1.0548,-2.24918E-05,15.822,0
1.0557,0,15.8355,0,1.0557,1.644922E-05,15.8355,0
1.0566,-3.323415E-05,15.849,0,1.0566,6.042573E-06,15.849,0
1.0575,-3.793393E-05,15.8625,0,1.0575,-2.450599E-05,15.8625,0
1.0584,-1.644922E-05,15.876,0,1.0584,-1.980621E-05,15.876,0
1.0593,-4.599069E-05,15.8895,0,1.0593,2.853437E-05,15.8895,0
1.0602,-1.107805E-05,15.903,0,1.0602,1.107805E-05,15.903,0
1.0611,-4.699779E-06,15.9165,0,1.0611,-3.524834E-05,15.9165,0
1.062,-4.49836E-05,15.93,0,1.062,2.21561E-05,15.93,0
1.0629,8.392462E-06,15.9435,0,1.0629,3.994812E-05,15.9435,0
1.0638,2.517739E-05,15.957,0,1.0638,-5.807584E-05,15.957,0
1.0647,3.121996E-05,15.9705,0,1.0647,-8.69459E-05,15.9705,0
1.0656,3.323415E-05,15.984,0,1.0656,-5.236896E-05,15.984,0
1.0665,2.652018E-05,15.9975,0,1.0665,-6.076142E-05,15.9975,0
1.0674,2.517739E-05,16.011,0,1.0674,-0.0001245441,16.011,0
1.0683,8.056763E-06,16.0245,0,1.0683,-7.855344E-05,16.0245,0
1.0692,-3.356985E-07,16.038,0,1.0692,-3.491264E-05,16.038,0
1.0701,-2.618448E-05,16.0515,0,1.0701,-3.692683E-06,16.0515,0
1.071,-7.821774E-05,16.065,0,1.071,-2.920577E-05,16.065,0
1.0719,-6.61326E-05,16.0785,0,1.0719,-4.061952E-05,16.0785,0
1.0728,-2.517739E-05,16.092,0,1.0728,6.378271E-06,16.092,0
1.0737,-3.457694E-05,16.1055,0,1.0737,-8.392462E-06,16.1055,0
1.0746,-5.740444E-05,16.119,0,1.0746,-6.51255E-05,16.119,0
1.0755,-3.323415E-05,16.1325,0,1.0755,-1.477073E-05,16.1325,0
1.0764,3.121996E-05,16.146,0,1.0764,2.652018E-05,16.146,0
1.0773,6.411841E-05,16.1595,0,1.0773,5.035477E-06,16.1595,0
1.0782,3.961242E-05,16.173,0,1.0782,1.712062E-05,16.173,0
1.0791,4.733349E-05,16.1865,0,1.0791,4.36408E-05,16.1865,0
1.08,3.591974E-05,16.2,0,1.08,4.599069E-05,16.2,0
1.0809,1.745632E-05,16.2135,0,1.0809,1.510643E-05,16.2135,0
1.0818,2.584878E-05,16.227,0,1.0818,-2.18204E-05,16.227,0
1.0827,-2.047761E-05,16.2405,0,1.0827,-2.584878E-05,16.2405,0
1.0836,-4.800488E-05,16.254,0,1.0836,-5.706874E-06,16.254,0
1.0845,-3.457694E-05,16.2675,0,1.0845,-1.007095E-05,16.2675,0
1.0854,-5.404745E-05,16.281,0,1.0854,-3.927672E-05,16.281,0
1.0863,-6.009003E-05,16.2945,0,1.0863,4.699779E-06,16.2945,0
1.0872,-1.376364E-05,16.308,0,1.0872,2.484169E-05,16.308,0
1.0881,9.735256E-06,16.3215,0,1.0881,-3.021286E-06,16.3215,0
1.089,-1.712062E-05,16.335,0,1.089,-1.678492E-06,16.335,0
1.0899,6.378271E-06,16.3485,0,1.0899,-1.779202E-05,16.3485,0
1.0908,2.652018E-05,16.362,0,1.0908,-4.46479E-05,16.362,0
1.0917,-1.577783E-05,16.3755,0,1.0917,-2.652018E-05,16.3755,0
1.0926,-4.632639E-05,16.389,0,1.0926,6.378271E-06,16.389,0
1.0935,-3.390555E-05,16.4025,0,1.0935,-1.376364E-05,16.4025,0
1.0944,-1.544213E-05,16.416,0,1.0944,-2.652018E-05,16.416,0
1.0953,1.309224E-05,16.4295,0,1.0953,-3.793393E-05,16.4295,0
1.0962,2.383459E-05,16.443,0,1.0962,-1.544213E-05,16.443,0
1.0971,-2.450599E-05,16.4565,0,1.0971,-1.007095E-05,16.4565,0
1.098,2.349889E-05,16.47,0,1.098,-2.349889E-05,16.47,0
1.0989,1.846342E-05,16.4835,0,1.0989,-3.793393E-05,16.4835,0
1.0998,-4.53193E-05,16.497,0,1.0998,-6.042573E-06,16.497,0
1.1007,-2.517739E-05,16.5105,0,1.1007,-1.141375E-05,16.5105,0
1.1016,1.376364E-05,16.524,0,1.1016,-3.726253E-05,16.524,0
1.1025,-1.174945E-05,16.5375,0,1.1025,3.021286E-06,16.5375,0
1.1034,2.618448E-05,16.551,0,1.1034,-2.014191E-06,16.551,0
1.1043,3.054856E-05,16.5645,0,1.1043,-4.263371E-05,16.5645,0
1.1052,3.860533E-05,16.578,0,1.1052,-5.874724E-05,16.578,0
1.1061,-5.706874E-06,16.5915,0,1.1061,-1.779202E-05,16.5915,0
1.107,-2.719158E-05,16.605,0,1.107,-4.46479E-05,16.605,0
1.1079,-1.007095E-06,16.6185,0,1.1079,-3.424125E-05,16.6185,0
1.1088,4.699779E-06,16.632,0,1.1088,-4.666209E-05,16.632,0
1.1097,-3.256275E-05,16.6455,0,1.1097,-3.927672E-05,16.6455,0
1.1106,-3.927672E-05,16.659,0,1.1106,-1.678492E-05,16.659,0
1.1115,-3.155566E-05,16.6725,0,1.1115,-3.927672E-05,16.6725,0
1.1124,-2.584878E-05,16.686,0,1.1124,-5.539025E-05,16.686,0
1.1133,-3.994812E-05,16.6995,0,1.1133,1.342794E-06,16.6995,0
1.1142,-2.484169E-05,16.713,0,1.1142,-5.706874E-06,16.713,0
1.1151,-7.452507E-05,16.7265,0,1.1151,-7.754635E-05,16.7265,0
1.116,-1.879912E-05,16.74,0,1.116,-3.021286E-06,16.74,0
1.1169,-3.356985E-07,16.7535,0,1.1169,6.713969E-06,16.7535,0
1.1178,-1.712062E-05,16.767,0,1.1178,-2.584878E-05,16.767,0
1.1187,2.383459E-05,16.7805,0,1.1187,-2.014191E-06,16.7805,0
1.1196,1.980621E-05,16.794,0,1.1196,2.1149E-05,16.794,0
1.1205,-1.510643E-05,16.8075,0,1.1205,1.040665E-05,16.8075,0
1.1214,-1.913481E-05,16.821,0,1.1214,2.014191E-06,16.821,0
1.1223,3.692683E-06,16.8345,0,1.1223,-4.36408E-06,16.8345,0
1.1232,-2.1149E-05,16.848,0,1.1232,9.735256E-06,16.848,0
1.1241,-2.652018E-05,16.8615,0,1.1241,-8.056763E-06,16.8615,0
1.125,-8.728161E-06,16.875,0,1.125,-4.162661E-05,16.875,0
1.1259,1.577783E-05,16.8885,0,1.1259,-5.304036E-05,16.8885,0
1.1268,1.544213E-05,16.902,0,1.1268,-1.208515E-05,16.902,0
1.1277,5.069047E-05,16.9155,0,1.1277,-1.007095E-05,16.9155,0
1.1286,2.24918E-05,16.929,0,1.1286,-7.754635E-05,16.929,0
1.1295,-1.544213E-05,16.9425,0,1.1295,-5.001907E-05,16.9425,0
1.1304,-2.383459E-05,16.956,0,1.1304,-3.390555E-05,16.956,0
1.1313,-2.18204E-05,16.9695,0,1.1313,-5.874724E-05,16.9695,0
1.1322,-6.6804E-05,16.983,0,1.1322,-5.539025E-05,16.983,0
1.1331,-7.217517E-05,16.9965,0,1.1331,-1.376364E-05,16.9965,0
1.134,-2.417029E-05,17.01,0,1.134,2.081331E-05,17.01,0
1.1349,-2.014191E-05,17.0235,0,1.1349,2.584878E-05,17.0235,0
1.1358,5.035477E-05,17.037,0,1.1358,-1.678492E-06,17.037,0
1.1367,8.291753E-05,17.0505,0,1.1367,1.477073E-05,17.0505,0
1.1376,8.92958E-05,17.064,0,1.1376,4.43122E-05,17.064,0
1.1385,6.814679E-05,17.0775,0,1.1385,-6.713969E-06,17.0775,0
1.1394,5.572595E-05,17.091,0,1.1394,-5.404745E-05,17.091,0
1.1403,2.1149E-05,17.1045,0,1.1403,-5.371176E-06,17.1045,0
1.1412,-3.021286E-06,17.118,0,1.1412,2.652018E-05,17.118,0
1.1421,3.189136E-05,17.1315,0,1.1421,-3.256275E-05,17.1315,0
1.143,1.443504E-05,17.145,0,1.143,-1.644922E-05,17.145,0
1.1439,-2.719158E-05,17.1585,0,1.1439,-1.409934E-05,17.1585,0
1.1448,-2.719158E-05,17.172,0,1.1448,-5.807584E-05,17.172,0
1.1457,-2.349889E-06,17.1855,0,1.1457,-4.129091E-05,17.1855,0
1.1466,-2.383459E-05,17.199,0,1.1466,-1.141375E-05,17.199,0
1.1475,-4.834058E-05,17.2125,0,1.1475,-6.210422E-05,17.2125,0
1.1484,-3.860533E-05,17.226,0,1.1484,-5.203327E-05,17.226,0
1.1493,-1.510643E-05,17.2395,0,1.1493,-1.107805E-05,17.2395,0
1.1502,-4.53193E-05,17.253,0,1.1502,4.061952E-05,17.253,0
1.1511,-6.277562E-05,17.2665,0,1.1511,5.874724E-05,17.2665,0
1.152,-3.088426E-05,17.28,0,1.152,7.385367E-06,17.28,0
1.1529,-1.779202E-05,17.2935,0,1.1529,-3.524834E-05,17.2935,0
1.1538,-1.107805E-05,17.307,0,1.1538,-1.477073E-05,17.307,0
1.1547,3.356985E-07,17.3205,0,1.1547,-2.853437E-05,17.3205,0
1.1556,2.047761E-05,17.334,0,1.1556,-5.236896E-05,17.334,0
1.1565,6.378271E-06,17.3475,0,1.1565,-1.007095E-05,17.3475,0
1.1574,2.517739E-05,17.361,0,1.1574,-5.371176E-06,17.361,0
1.1583,-1.007095E-06,17.3745,0,1.1583,-2.24918E-05,17.3745,0
1.1592,6.378271E-06,17.388,0,1.1592,-6.378271E-06,17.388,0
1.1601,-5.404745E-05,17.4015,0,1.1601,-1.779202E-05,17.4015,0
1.161,-4.733349E-05,17.415,0,1.161,-2.652018E-05,17.415,0
1.1619,-3.726253E-05,17.4285,0,1.1619,-3.692683E-05,17.4285,0
1.1628,-3.826963E-05,17.442,0,1.1628,-6.243992E-05,17.442,0
1.1637,-1.174945E-05,17.4555,0,1.1637,1.242084E-05,17.4555,0
1.1646,-9.063859E-06,17.469,0,1.1646,1.644922E-05,17.469,0
1.1655,-2.584878E-05,17.4825,0,1.1655,-3.256275E-05,17.4825,0
1.1664,-1.544213E-05,17.496,0,1.1664,-3.256275E-05,17.496,0
1.1673,-2.383459E-05,17.5095,0,1.1673,1.577783E-05,17.5095,0
1.1682,1.577783E-05,17.523,0,1.1682,-7.049668E-06,17.523,0
1.1691,3.189136E-05,17.5365,0,1.1691,-9.970245E-05,17.5365,0
1.17,-1.107805E-05,17.55,0,1.17,-7.016098E-05,17.55,0
1.1709,-2.18204E-05,17.5635,0,1.1709,-3.189136E-05,17.5635,0
1.1718,-5.706874E-06,17.577,0,1.1718,-5.304036E-05,17.577,0
1.1727,-1.174945E-05,17.5905,0,1.1727,-4.43122E-05,17.5905,0
1.1736,-2.584878E-05,17.604,0,1.1736,-1.846342E-05,17.604,0
1.1745,-2.316319E-05,17.6175,0,1.1745,-2.349889E-05,17.6175,0
1.1754,-3.356985E-07,17.631,0,1.1754,-1.510643E-05,17.631,0
1.1763,3.692683E-06,17.6445,0,1.1763,-3.692683E-05,17.6445,0
1.1772,-2.417029E-05,17.658,0,1.1772,-2.987716E-05,17.658,0
1.1781,-1.174945E-05,17.6715,0,1.1781,-5.706874E-06,17.6715,0
1.179,-6.378271E-06,17.685,0,1.179,-1.947051E-05,17.685,0
1.1799,6.378271E-06,17.6985,0,1.1799,-2.383459E-05,17.6985,0
1.1808,-3.826963E-05,17.712,0,1.1808,1.007095E-06,17.712,0
1.1817,-1.309224E-05,17.7255,0,1.1817,-3.356985E-07,17.7255,0
1.1826,3.323415E-05,17.739,0,1.1826,-3.927672E-05,17.739,0
1.1835,5.673304E-05,17.7525,0,1.1835,-9.063859E-06,17.7525,0
1.1844,9.063859E-06,17.766,0,1.1844,-8.392462E-06,17.766,0
1.1853,-2.349889E-05,17.7795,0,1.1853,-3.256275E-05,17.7795,0
1.1862,3.356985E-07,17.793,0,1.1862,-1.812772E-05,17.793,0
1.1871,1.577783E-05,17.8065,0,1.1871,1.040665E-05,17.8065,0
1.188,1.309224E-05,17.82,0,1.188,-1.678492E-06,17.82,0
1.1889,1.879912E-05,17.8335,0,1.1889,-3.054856E-05,17.8335,0
1.1898,2.1149E-05,17.847,0,1.1898,-2.987716E-05,17.847,0
1.1907,-2.014191E-06,17.8605,0,1.1907,-7.721065E-06,17.8605,0
1.1916,-2.987716E-05,17.874,0,1.1916,4.699779E-06,17.874,0
1.1925,-1.712062E-05,17.8875,0,1.1925,-1.544213E-05,17.8875,0
1.1934,3.692683E-06,17.901,0,1.1934,-1.208515E-05,17.901,0
1.1943,-1.644922E-05,17.9145,0,1.1943,1.409934E-05,17.9145,0
1.1952,-1.376364E-05,17.928,0,1.1952,-3.256275E-05,17.928,0
1.1961,6.57969E-05,17.9415,0,1.1961,-3.793393E-05,17.9415,0
1.197,2.920577E-05,17.955,0,1.197,1.678492E-06,17.955,0
1.1979,9.063859E-06,17.9685,0,1.1979,3.692683E-06,17.9685,0
1.1988,-4.196231E-05,17.982,0,1.1988,-3.625543E-05,17.982,0
1.1997,-3.927672E-05,17.9955,0,1.1997,-8.392462E-06,17.9955,0
1.2006,-7.351797E-05,18.009,0,1.2006,-1.376364E-05,18.009,0
1.2015,-6.74754E-05,18.0225,0,1.2015,-2.21561E-05,18.0225,0
1.2024,-4.599069E-05,18.036,0,1.2024,-2.081331E-05,18.036,0
1.2033,-4.36408E-06,18.0495,0,1.2033,-4.061952E-05,18.0495,0
1.2042,6.713969E-07,18.063,0,1.2042,-6.378271E-06,18.063,0
1.2051,1.040665E-05,18.0765,0,1.2051,-6.378271E-06,18.0765,0
1.206,2.1149E-05,18.09,0,1.206,-3.524834E-05,18.09,0
1.2069,-9.063859E-06,18.1035,0,1.2069,-3.692683E-05,18.1035,0
1.2078,-2.853437E-05,18.117,0,1.2078,4.36408E-06,18.117,0
1.2087,-1.007095E-06,18.1305,0,1.2087,-1.107805E-05,18.1305,0
1.2096,3.121996E-05,18.144,0,1.2096,-4.43122E-05,18.144,0
1.2105,1.712062E-05,18.1575,0,1.2105,-7.049668E-06,18.1575,0
1.2114,7.385367E-06,18.171,0,1.2114,1.409934E-05,18.171,0
1.2123,-6.378271E-06,18.1845,0,1.2123,-2.21561E-05,18.1845,0
1.2132,-3.692683E-06,18.198,0,1.2132,-4.53193E-05,18.198,0
1.2141,-3.726253E-05,18.2115,0,1.2141,-1.409934E-05,18.2115,0
1.215,-1.242084E-05,18.225,0,1.215,-2.014191E-05,18.225,0
1.2159,9.063859E-06,18.2385,0,1.2159,-7.721065E-06,18.2385,0
1.2168,-3.692683E-06,18.252,0,1.2168,-2.786297E-05,18.252,0
1.2177,8.392462E-06,18.2655,0,1.2177,-3.356985E-07,18.2655,0
1.2186,-1.510643E-05,18.279,0,1.2186,2.14847E-05,18.279,0
1.2195,-2.21561E-05,18.2925,0,1.2195,-9.063859E-06,18.2925,0
1.2204,-6.042573E-06,18.306,0,1.2204,-1.577783E-05,18.306,0
1.2213,-1.174945E-05,18.3195,0,1.2213,2.28275E-05,18.3195,0
1.2222,2.584878E-05,18.333,0,1.2222,1.577783E-05,18.333,0
1.2231,1.443504E-05,18.3465,0,1.2231,-4.095522E-05,18.3465,0
1.224,1.980621E-05,18.36,0,1.224,-3.356985E-06,18.36,0
1.2249,-1.007095E-06,18.3735,0,1.2249,-9.399558E-06,18.3735,0
1.2258,-3.323415E-05,18.387,0,1.2258,-7.452507E-05,18.387,0
1.2267,-5.404745E-05,18.4005,0,1.2267,-7.284657E-05,18.4005,0
1.2276,-8.157473E-05,18.414,0,1.2276,-1.443504E-05,18.414,0
1.2285,-4.834058E-05,18.4275,0,1.2285,-1.544213E-05,18.4275,0
1.2294,-3.793393E-05,18.441,0,1.2294,-2.417029E-05,18.441,0
1.2303,-6.848249E-05,18.4545,0,1.2303,-5.001907E-05,18.4545,0
1.2312,-2.786297E-05,18.468,0,1.2312,-3.121996E-05,18.468,0
1.2321,-1.678492E-05,18.4815,0,1.2321,-1.577783E-05,18.4815,0
1.233,-6.74754E-05,18.495,0,1.233,-4.934768E-05,18.495,0
1.2339,-6.814679E-05,18.5085,0,1.2339,-4.061952E-05,18.5085,0
1.2348,-2.853437E-05,18.522,0,1.2348,-8.392462E-06,18.522,0
1.2357,5.035477E-06,18.5355,0,1.2357,-6.74754E-05,18.5355,0
1.2366,5.539025E-05,18.549,0,1.2366,-9.735256E-05,18.549,0
1.2375,0.0001037308,18.5625,0,1.2375,-3.356985E-07,18.5625,0
1.2384,6.814679E-05,18.576,0,1.2384,6.076142E-05,18.576,0
1.2393,2.584878E-05,18.5895,0,1.2393,-4.699779E-06,18.5895,0
1.2402,2.987716E-05,18.603,0,1.2402,-1.980621E-05,18.603,0
1.2411,-9.063859E-06,18.6165,0,1.2411,5.606165E-05,18.6165,0
1.242,-1.913481E-05,18.63,0,1.242,1.443504E-05,18.63,0
1.2429,5.035477E-06,18.6435,0,1.2429,-3.021286E-05,18.6435,0
1.2438,1.913481E-05,18.657,0,1.2438,-4.699779E-05,18.657,0
1.2447,1.644922E-05,18.6705,0,1.2447,-2.081331E-05,18.6705,0
1.2456,2.517739E-05,18.684,0,1.2456,1.174945E-05,18.684,0
1.2465,3.054856E-05,18.6975,0,1.2465,-2.047761E-05,18.6975,0
1.2474,3.927672E-05,18.711,0,1.2474,-3.121996E-05,18.711,0
1.2483,-6.713969E-07,18.7245,0,1.2483,-5.706874E-06,18.7245,0
1.2492,6.042573E-06,18.738,0,1.2492,-5.035477E-06,18.738,0
1.2501,3.356985E-05,18.7515,0,1.2501,-3.558404E-05,18.7515,0
1.251,-2.584878E-05,18.765,0,1.251,5.706874E-06,18.765,0
1.2519,-4.599069E-05,18.7785,0,1.2519,2.316319E-05,18.7785,0
1.2528,1.007095E-06,18.792,0,1.2528,-1.107805E-05,18.792,0
1.2537,1.712062E-05,18.8055,0,1.2537,-1.007095E-06,18.8055,0
1.2546,-3.021286E-05,18.819,0,1.2546,-6.713969E-06,18.819,0
1.2555,-4.599069E-05,18.8325,0,1.2555,-6.881819E-05,18.8325,0
1.2564,-3.793393E-05,18.846,0,1.2564,-7.519646E-05,18.846,0
1.2573,-5.236896E-05,18.8595,0,1.2573,-6.814679E-05,18.8595,0
1.2582,-3.759823E-05,18.873,0,1.2582,-2.1149E-05,18.873,0
1.2591,-3.256275E-05,18.8865,0,1.2591,-2.047761E-05,18.8865,0
1.26,-2.987716E-05,18.9,0,1.26,-7.049668E-06,18.9,0
1.2609,-1.644922E-05,18.9135,0,1.2609,-4.43122E-05,18.9135,0
1.2618,1.947051E-05,18.927,0,1.2618,-1.644922E-05,18.927,0
1.2627,1.913481E-05,18.9405,0,1.2627,-1.510643E-05,18.9405,0
1.2636,1.846342E-05,18.954,0,1.2636,-4.934768E-05,18.954,0
1.2645,1.309224E-05,18.9675,0,1.2645,1.678492E-06,18.9675,0
1.2654,8.728161E-06,18.981,0,1.2654,1.678492E-06,18.981,0
1.2663,-1.107805E-05,18.9945,0,1.2663,-4.162661E-05,18.9945,0
1.2672,-4.53193E-05,19.008,0,1.2672,-2.719158E-05,19.008,0
1.2681,-2.584878E-05,19.0215,0,1.2681,2.014191E-06,19.0215,0
1.269,-3.256275E-05,19.035,0,1.269,-2.014191E-06,19.035,0
1.2699,-2.517739E-05,19.0485,0,1.2699,-2.786297E-05,19.0485,0
1.2708,4.599069E-05,19.062,0,1.2708,-2.719158E-05,19.062,0
1.2717,3.323415E-05,19.0755,0,1.2717,-6.713969E-07,19.0755,0
1.2726,4.061952E-05,19.089,0,1.2726,2.1149E-05,19.089,0
1.2735,2.24918E-05,19.1025,0,1.2735,-1.309224E-05,19.1025,0
1.2744,-2.752728E-05,19.116,0,1.2744,-3.591974E-05,19.116,0
1.2753,-3.994812E-05,19.1295,0,1.2753,1.275654E-05,19.1295,0
1.2762,-1.812772E-05,19.143,0,1.2762,1.342794E-06,19.143,0
1.2771,-1.644922E-05,19.1565,0,1.2771,-4.129091E-05,19.1565,0
1.278,-5.471885E-05,19.17,0,1.278,2.349889E-06,19.17,0
1.2789,-5.136187E-05,19.1835,0,1.2789,1.107805E-05,19.1835,0
1.2798,4.867628E-05,19.197,0,1.2798,-1.577783E-05,19.197,0
1.2807,3.256275E-05,19.2105,0,1.2807,-2.28275E-05,19.2105,0
1.2816,-2.987716E-05,19.224,0,1.2816,-2.450599E-05,19.224,0
1.2825,-3.659113E-05,19.2375,0,1.2825,-2.719158E-05,19.2375,0
1.2834,-1.577783E-05,19.251,0,1.2834,-6.713969E-06,19.251,0
1.2843,5.035477E-06,19.2645,0,1.2843,-2.450599E-05,19.2645,0
1.2852,-1.678492E-06,19.278,0,1.2852,-1.745632E-05,19.278,0
1.2861,-3.256275E-05,19.2915,0,1.2861,-1.141375E-05,19.2915,0
1.287,-3.121996E-05,19.305,0,1.287,-3.524834E-05,19.305,0
1.2879,-1.678492E-05,19.3185,0,1.2879,-5.001907E-05,19.3185,0
1.2888,-2.316319E-05,19.332,0,1.2888,-1.712062E-05,19.332,0
1.2897,-1.779202E-05,19.3455,0,1.2897,-1.712062E-05,19.3455,0
1.2906,-1.779202E-05,19.359,0,1.2906,-6.848249E-05,19.359,0
1.2915,-4.36408E-06,19.3725,0,1.2915,-2.14847E-05,19.3725,0
1.2924,1.174945E-05,19.386,0,1.2924,-1.342794E-06,19.386,0
1.2933,5.136187E-05,19.3995,0,1.2933,-2.786297E-05,19.3995,0
1.2942,5.941863E-05,19.413,0,1.2942,-1.342794E-05,19.413,0
1.2951,1.007095E-06,19.4265,0,1.2951,-8.728161E-06,19.4265,0
1.296,-7.049668E-06,19.44,0,1.296,-1.947051E-05,19.44,0
1.2969,3.692683E-06,19.4535,0,1.2969,-3.692683E-06,19.4535,0
1.2978,-3.121996E-05,19.467,0,1.2978,-6.042573E-06,19.467,0
1.2987,-2.1149E-05,19.4805,0,1.2987,-1.007095E-06,19.4805,0
1.2996,1.309224E-05,19.494,0,1.2996,2.584878E-05,19.494,0
1.3005,-2.685588E-06,19.5075,0,1.3005,-3.356985E-06,19.5075,0
1.3014,-2.584878E-05,19.521,0,1.3014,-4.263371E-05,19.521,0
1.3023,-1.678492E-06,19.5345,0,1.3023,1.040665E-05,19.5345,0
1.3032,-1.040665E-05,19.548,0,1.3032,-4.36408E-06,19.548,0
1.3041,-7.385367E-06,19.5615,0,1.3041,-4.39765E-05,19.5615,0
1.305,2.1149E-05,19.575,0,1.305,1.544213E-05,19.575,0
1.3059,-1.846342E-05,19.5885,0,1.3059,-6.378271E-06,19.5885,0
1.3068,-3.994812E-05,19.602,0,1.3068,-5.807584E-05,19.602,0
1.3077,-4.196231E-05,19.6155,0,1.3077,-3.390555E-05,19.6155,0
1.3086,-4.229801E-05,19.629,0,1.3086,-2.719158E-05,19.629,0
1.3095,-5.337606E-05,19.6425,0,1.3095,-2.18204E-05,19.6425,0
1.3104,-3.793393E-05,19.656,0,1.3104,-2.14847E-05,19.656,0
1.3113,-1.376364E-05,19.6695,0,1.3113,-4.934768E-05,19.6695,0
1.3122,-1.242084E-05,19.683,0,1.3122,-5.001907E-05,19.683,0
1.3131,-2.786297E-05,19.6965,0,1.3131,-1.812772E-05,19.6965,0
1.314,-8.056763E-06,19.71,0,1.314,-1.980621E-05,19.71,0
1.3149,-3.356985E-06,19.7235,0,1.3149,-3.826963E-05,19.7235,0
1.3158,-8.056763E-06,19.737,0,1.3158,-7.049668E-06,19.737,0
1.3167,2.584878E-05,19.7505,0,1.3167,-1.443504E-05,19.7505,0
1.3176,6.6804E-05,19.764,0,1.3176,-5.069047E-05,19.764,0
1.3185,5.606165E-05,19.7775,0,1.3185,-1.174945E-05,19.7775,0
1.3194,5.807584E-05,19.791,0,1.3194,-3.021286E-06,19.791,0
1.3203,2.920577E-05,19.8045,0,1.3203,-4.666209E-05,19.8045,0
1.3212,-2.417029E-05,19.818,0,1.3212,-5.740444E-05,19.818,0
1.3221,-2.920577E-05,19.8315,0,1.3221,-4.43122E-05,19.8315,0
1.323,-2.18204E-05,19.845,0,1.323,-2.551309E-05,19.845,0
1.3239,-4.733349E-05,19.8585,0,1.3239,4.36408E-06,19.8585,0
1.3248,-3.726253E-05,19.872,0,1.3248,-2.014191E-06,19.872,0
1.3257,-3.356985E-07,19.8855,0,1.3257,6.311131E-05,19.8855,0
1.3266,9.735256E-06,19.899,0,1.3266,5.069047E-05,19.899,0
1.3275,-1.779202E-05,19.9125,0,1.3275,-1.846342E-05,19.9125,0
1.3284,8.056763E-06,19.926,0,1.3284,-5.001907E-05,19.926,0
1.3293,-1.376364E-05,19.9395,0,1.3293,-5.035477E-06,19.9395,0
1.3302,-5.706874E-06,19.953,0,1.3302,9.063859E-06,19.953,0
1.3311,3.390555E-05,19.9665,0,1.3311,8.392462E-06,19.9665,0
1.332,2.887007E-05,19.98,0,1.332,2.349889E-05,19.98,0
1.3329,-1.712062E-05,19.9935,0,1.3329,-3.457694E-05,19.9935,0
1.3338,-1.376364E-05,20.007,0,1.3338,-6.277562E-05,20.007,0
1.3347,-1.007095E-06,20.0205,0,1.3347,-4.129091E-05,20.0205,0
1.3356,-2.28275E-05,20.034,0,1.3356,-9.735256E-06,20.034,0
1.3365,-3.524834E-05,20.0475,0,1.3365,-4.196231E-05,20.0475,0
1.3374,-2.786297E-05,20.061,0,1.3374,-5.270466E-05,20.061,0
1.3383,7.385367E-06,20.0745,0,1.3383,-5.169757E-05,20.0745,0
1.3392,-7.721065E-06,20.088,0,1.3392,-3.121996E-05,20.088,0
1.3401,-3.356985E-05,20.1015,0,1.3401,-3.558404E-05,20.1015,0
1.341,-1.007095E-05,20.115,0,1.341,-4.733349E-05,20.115,0
1.3419,2.1149E-05,20.1285,0,1.3419,-5.169757E-05,20.1285,0
1.3428,-2.652018E-05,20.142,0,1.3428,-3.088426E-05,20.142,0
1.3437,-1.376364E-05,20.1555,0,1.3437,-3.021286E-05,20.1555,0
1.3446,-1.779202E-05,20.169,0,1.3446,-3.961242E-05,20.169,0
1.3455,-2.349889E-05,20.1825,0,1.3455,1.611353E-05,20.1825,0
1.3464,-3.692683E-06,20.196,0,1.3464,3.054856E-05,20.196,0
1.3473,2.584878E-05,20.2095,0,1.3473,7.049668E-06,20.2095,0
1.3482,3.121996E-05,20.223,0,1.3482,-2.484169E-05,20.223,0
1.3491,-2.887007E-05,20.2365,0,1.3491,-3.121996E-05,20.2365,0
1.35,-3.692683E-06,20.25,0,1.35,-5.035477E-06,20.25,0
1.3509,3.424125E-05,20.2635,0,1.3509,3.356985E-07,20.2635,0
1.3518,5.673304E-05,20.277,0,1.3518,-2.349889E-05,20.277,0
1.3527,1.947051E-05,20.2905,0,1.3527,-7.721065E-06,20.2905,0
1.3536,-2.853437E-05,20.304,0,1.3536,5.706874E-06,20.304,0
1.3545,1.342794E-06,20.3175,0,1.3545,-1.275654E-05,20.3175,0
1.3554,3.323415E-05,20.331,0,1.3554,-4.699779E-06,20.331,0
1.3563,-3.659113E-05,20.3445,0,1.3563,1.007095E-05,20.3445,0
1.3572,-5.203327E-05,20.358,0,1.3572,-1.409934E-05,20.358,0
1.3581,-4.46479E-05,20.3715,0,1.3581,-5.572595E-05,20.3715,0
1.359,-2.316319E-05,20.385,0,1.359,-2.014191E-06,20.385,0
1.3599,2.584878E-05,20.3985,0,1.3599,2.652018E-05,20.3985,0
1.3608,2.786297E-05,20.412,0,1.3608,-3.424125E-05,20.412,0
1.3617,-2.383459E-05,20.4255,0,1.3617,-3.021286E-05,20.4255,0
1.3626,-3.390555E-05,20.439,0,1.3626,2.047761E-05,20.439,0
1.3635,-6.210422E-05,20.4525,0,1.3635,-1.644922E-05,20.4525,0
1.3644,-5.941863E-05,20.466,0,1.3644,-4.33051E-05,20.466,0
1.3653,-3.054856E-05,20.4795,0,1.3653,-3.121996E-05,20.4795,0
1.3662,0,20.493,0,1.3662,-1.376364E-05,20.493,0
1.3671,-2.014191E-06,20.5065,0,1.3671,-1.342794E-06,20.5065,0
1.368,-1.577783E-05,20.52,0,1.368,-2.18204E-05,20.52,0
1.3689,-1.309224E-05,20.5335,0,1.3689,-4.968337E-05,20.5335,0
1.3698,-2.719158E-05,20.547,0,1.3698,-1.107805E-05,20.547,0
1.3707,-1.913481E-05,20.5605,0,1.3707,-1.812772E-05,20.5605,0
1.3716,1.846342E-05,20.574,0,1.3716,-5.807584E-05,20.574,0
1.3725,2.1149E-05,20.5875,0,1.3725,-1.577783E-05,20.5875,0
1.3734,-1.443504E-05,20.601,0,1.3734,-1.712062E-05,20.601,0
1.3743,-1.443504E-05,20.6145,0,1.3743,-5.169757E-05,20.6145,0
1.3752,4.39765E-05,20.628,0,1.3752,-3.054856E-05,20.628,0
1.3761,1.342794E-06,20.6415,0,1.3761,-7.049668E-06,20.6415,0
1.377,-1.779202E-05,20.655,0,1.377,-1.141375E-05,20.655,0
1.3779,-6.713969E-07,20.6685,0,1.3779,-1.107805E-05,20.6685,0
1.3788,-7.721065E-06,20.682,0,1.3788,-3.726253E-05,20.682,0
1.3797,-4.33051E-05,20.6955,0,1.3797,-1.409934E-05,20.6955,0
1.3806,-4.129091E-05,20.709,0,1.3806,-2.316319E-05,20.709,0
1.3815,2.014191E-06,20.7225,0,1.3815,-3.659113E-05,20.7225,0
1.3824,1.712062E-05,20.736,0,1.3824,-4.129091E-05,20.736,0
1.3833,2.047761E-05,20.7495,0,1.3833,3.356985E-07,20.7495,0
1.3842,2.920577E-05,20.763,0,1.3842,-1.107805E-05,20.763,0
1.3851,1.980621E-05,20.7765,0,1.3851,-4.599069E-05,20.7765,0
1.386,-3.692683E-06,20.79,0,1.386,-8.728161E-06,20.79,0
1.3869,-3.356985E-07,20.8035,0,1.3869,1.107805E-05,20.8035,0
1.3878,-6.378271E-06,20.817,0,1.3878,-3.659113E-05,20.817,0
1.3887,-4.196231E-05,20.8305,0,1.3887,-2.450599E-05,20.8305,0
1.3896,-5.774014E-05,20.844,0,1.3896,-1.678492E-06,20.844,0
1.3905,-2.618448E-05,20.8575,0,1.3905,1.678492E-06,20.8575,0
1.3914,-3.088426E-05,20.871,0,1.3914,-6.713969E-06,20.871,0
1.3923,-1.913481E-05,20.8845,0,1.3923,-4.095522E-05,20.8845,0
1.3932,-6.378271E-06,20.898,0,1.3932,-2.014191E-05,20.898,0
1.3941,-3.524834E-05,20.9115,0,1.3941,7.385367E-06,20.9115,0
1.395,1.376364E-05,20.925,0,1.395,-1.712062E-05,20.925,0
1.3959,3.659113E-05,20.9385,0,1.3959,-2.987716E-05,20.9385,0
1.3968,-3.021286E-05,20.952,0,1.3968,3.021286E-06,20.952,0
1.3977,-3.256275E-05,20.9655,0,1.3977,3.021286E-06,20.9655,0
1.3986,3.591974E-05,20.979,0,1.3986,-1.846342E-05,20.979,0
1.3995,3.524834E-05,20.9925,0,1.3995,9.735256E-06,20.9925,0
1.4004,1.309224E-05,21.006,0,1.4004,-6.042573E-06,21.006,0
1.4013,1.846342E-05,21.0195,0,1.4013,-4.162661E-05,21.0195,0
1.4022,1.040665E-05,21.033,0,1.4022,-3.860533E-05,21.033,0
1.4031,8.056763E-06,21.0465,0,1.4031,-7.049668E-06,21.0465,0
1.404,2.24918E-05,21.06,0,1.404,7.049668E-06,21.06,0
1.4049,-4.699779E-06,21.0735,0,1.4049,-2.21561E-05,21.0735,0
1.4058,-1.409934E-05,21.087,0,1.4058,-4.49836E-05,21.087,0
1.4067,-2.349889E-05,21.1005,0,1.4067,-1.846342E-05,21.1005,0
1.4076,-3.826963E-05,21.114,0,1.4076,4.699779E-06,21.114,0
1.4085,-4.53193E-05,21.1275,0,1.4085,-3.121996E-05,21.1275,0
1.4094,-3.356985E-07,21.141,0,1.4094,-4.53193E-05,21.141,0
1.4103,1.443504E-05,21.1545,0,1.4103,4.028382E-06,21.1545,0
1.4112,-7.721065E-06,21.168,0,1.4112,-9.735256E-06,21.168,0
1.4121,-4.028382E-06,21.1815,0,1.4121,-4.867628E-05,21.1815,0
1.413,7.721065E-06,21.195,0,1.413,-1.174945E-05,21.195,0
1.4139,-1.007095E-05,21.2085,0,1.4139,-9.735256E-06,21.2085,0
1.4148,-1.174945E-05,21.222,0,1.4148,-3.256275E-05,21.222,0
1.4157,-6.713969E-06,21.2355,0,1.4157,-4.39765E-05,21.2355,0
1.4166,-2.18204E-05,21.249,0,1.4166,-4.129091E-05,21.249,0
1.4175,9.735256E-06,21.2625,0,1.4175,-3.121996E-05,21.2625,0
1.4184,2.786297E-05,21.276,0,1.4184,-3.256275E-05,21.276,0
1.4193,-3.021286E-06,21.2895,0,1.4193,-6.277562E-05,21.2895,0
1.4202,6.713969E-07,21.303,0,1.4202,2.450599E-05,21.303,0
1.4211,-1.678492E-06,21.3165,0,1.4211,3.424125E-05,21.3165,0
1.422,-6.042573E-06,21.33,0,1.422,-4.46479E-05,21.33,0
1.4229,-2.551309E-05,21.3435,0,1.4229,-6.411841E-05,21.3435,0
1.4238,-4.599069E-05,21.357,0,1.4238,-1.208515E-05,21.357,0
1.4247,-4.599069E-05,21.3705,0,1.4247,-1.577783E-05,21.3705,0
1.4256,-1.544213E-05,21.384,0,1.4256,-6.176852E-05,21.384,0
1.4265,-1.510643E-05,21.3975,0,1.4265,-2.383459E-05,21.3975,0
1.4274,-7.049668E-06,21.411,0,1.4274,1.510643E-05,21.411,0
1.4283,1.913481E-05,21.4245,0,1.4283,-2.584878E-05,21.4245,0
1.4292,4.162661E-05,21.438,0,1.4292,-2.417029E-05,21.438,0
1.4301,-1.443504E-05,21.4515,0,1.4301,7.385367E-06,21.4515,0
1.431,-2.014191E-05,21.465,0,1.431,2.349889E-06,21.465,0
1.4319,-9.063859E-06,21.4785,0,1.4319,-1.443504E-05,21.4785,0
1.4328,1.040665E-05,21.492,0,1.4328,-4.162661E-05,21.492,0
1.4337,1.712062E-05,21.5055,0,1.4337,-7.049668E-06,21.5055,0
1.4346,8.392462E-06,21.519,0,1.4346,2.18204E-05,21.519,0
1.4355,-7.721065E-06,21.5325,0,1.4355,0,21.5325,0
1.4364,-7.049668E-06,21.546,0,1.4364,-8.728161E-06,21.546,0
1.4373,-1.644922E-05,21.5595,0,1.4373,1.275654E-05,21.5595,0
1.4382,-1.678492E-06,21.573,0,1.4382,-3.692683E-06,21.573,0
1.4391,1.678492E-05,21.5865,0,1.4391,-4.29694E-05,21.5865,0
1.44,-9.399558E-06,21.6,0,1.44,-2.652018E-05,21.6,0
1.4409,-1.678492E-06,21.6135,0,1.4409,-1.577783E-05,21.6135,0
1.4418,4.196231E-05,21.627,0,1.4418,1.544213E-05,21.627,0
1.4427,-5.539025E-05,21.6405,0,1.4427,4.39765E-05,21.6405,0
1.4436,-9.298848E-05,21.654,0,1.4436,9.399558E-06,21.654,0
1.4445,-4.733349E-05,21.6675,0,1.4445,-6.109713E-05,21.6675,0
1.4454,-4.095522E-05,21.681,0,1.4454,-5.505455E-05,21.681,0
1.4463,-4.53193E-05,21.6945,0,1.4463,-2.719158E-05,21.6945,0
1.4472,-1.678492E-05,21.708,0,1.4472,-3.424125E-05,21.708,0
1.4481,-3.356985E-07,21.7215,0,1.4481,-2.450599E-05,21.7215,0
1.449,-3.356985E-07,21.735,0,1.449,-4.39765E-05,21.735,0
1.4499,2.853437E-05,21.7485,0,1.4499,-7.016098E-05,21.7485,0
1.4508,-1.242084E-05,21.762,0,1.4508,-3.121996E-05,21.762,0
1.4517,-1.275654E-05,21.7755,0,1.4517,-1.242084E-05,21.7755,0
1.4526,2.349889E-06,21.789,0,1.4526,-7.855344E-05,21.789,0
1.4535,-7.049668E-06,21.8025,0,1.4535,-3.189136E-05,21.8025,0
1.4544,-2.987716E-05,21.816,0,1.4544,-1.678492E-06,21.816,0
1.4553,-5.136187E-05,21.8295,0,1.4553,-3.054856E-05,21.8295,0
1.4562,-2.887007E-05,21.843,0,1.4562,-1.879912E-05,21.843,0
1.4571,-1.275654E-05,21.8565,0,1.4571,1.577783E-05,21.8565,0
1.458,-2.920577E-05,21.87,0,1.458,-2.349889E-06,21.87,0
1.4589,-6.713969E-06,21.8835,0,1.4589,1.007095E-06,21.8835,0
1.4598,5.975433E-05,21.897,0,1.4598,-2.18204E-05,21.897,0
1.4607,4.162661E-05,21.9105,0,1.4607,-1.275654E-05,21.9105,0
1.4616,-6.713969E-07,21.924,0,1.4616,-5.706874E-06,21.924,0
1.4625,2.081331E-05,21.9375,0,1.4625,-2.316319E-05,21.9375,0
1.4634,2.819867E-05,21.951,0,1.4634,-3.155566E-05,21.951,0
1.4643,7.721065E-06,21.9645,0,1.4643,-1.275654E-05,21.9645,0
1.4652,1.208515E-05,21.978,0,1.4652,-2.719158E-05,21.978,0
1.4661,-1.007095E-06,21.9915,0,1.4661,-5.706874E-05,21.9915,0
1.467,-1.242084E-05,22.005,0,1.467,-2.014191E-05,22.005,0
1.4679,-9.735256E-06,22.0185,0,1.4679,-1.242084E-05,22.0185,0
1.4688,1.007095E-06,22.032,0,1.4688,-4.632639E-05,22.032,0
1.4697,-2.349889E-05,22.0455,0,1.4697,-3.659113E-05,22.0455,0
1.4706,-3.524834E-05,22.059,0,1.4706,-3.356985E-06,22.059,0
1.4715,3.692683E-06,22.0725,0,1.4715,-8.392462E-06,22.0725,0
1.4724,-3.356985E-07,22.086,0,1.4724,1.342794E-06,22.086,0
1.4733,-2.517739E-05,22.0995,0,1.4733,-2.450599E-05,22.0995,0
1.4742,-1.846342E-05,22.113,0,1.4742,5.035477E-06,22.113,0
1.4751,-3.625543E-05,22.1265,0,1.4751,2.517739E-05,22.1265,0
1.476,2.21561E-05,22.14,0,1.476,-1.107805E-05,22.14,0
1.4769,4.53193E-05,22.1535,0,1.4769,-4.733349E-05,22.1535,0
1.4778,-4.028382E-06,22.167,0,1.4778,-2.685588E-06,22.167,0
1.4787,-1.275654E-05,22.1805,0,1.4787,-6.713969E-06,22.1805,0
1.4796,2.349889E-06,22.194,0,1.4796,-3.692683E-05,22.194,0
1.4805,-3.256275E-05,22.2075,0,1.4805,0,22.2075,0
1.4814,3.390555E-05,22.221,0,1.4814,1.644922E-05,22.221,0
1.4823,3.021286E-05,22.2345,0,1.4823,-1.376364E-05,22.2345,0
1.4832,1.007095E-06,22.248,0,1.4832,-3.289845E-05,22.248,0
1.4841,-2.24918E-05,22.2615,0,1.4841,3.692683E-06,22.2615,0
1.485,-2.584878E-05,22.275,0,1.485,-1.779202E-05,22.275,0
1.4859,3.356985E-07,22.2885,0,1.4859,-2.349889E-05,22.2885,0
1.4868,-1.007095E-05,22.302,0,1.4868,-4.061952E-05,22.302,0
1.4877,-1.040665E-05,22.3155,0,1.4877,-1.242084E-05,22.3155,0
1.4886,-1.846342E-05,22.329,0,1.4886,-6.042573E-06,22.329,0
1.4895,-2.719158E-05,22.3425,0,1.4895,-1.779202E-05,22.3425,0
1.4904,4.028382E-06,22.356,0,1.4904,-6.713969E-06,22.356,0
1.4913,-9.399558E-06,22.3695,0,1.4913,1.174945E-05,22.3695,0
1.4922,-4.33051E-05,22.383,0,1.4922,-2.887007E-05,22.383,0
1.4931,1.510643E-05,22.3965,0,1.4931,-5.404745E-05,22.3965,0
1.494,3.356985E-07,22.41,0,1.494,-9.063859E-06,22.41,0
1.4949,2.517739E-05,22.4235,0,1.4949,1.846342E-05,22.4235,0
1.4958,2.887007E-05,22.437,0,1.4958,-1.409934E-05,22.437,0
1.4967,-1.007095E-06,22.4505,0,1.4967,-2.954147E-05,22.4505,0
1.4976,-1.644922E-05,22.464,0,1.4976,-1.678492E-05,22.464,0
1.4985,-1.846342E-05,22.4775,0,1.4985,-2.584878E-05,22.4775,0
1.4994,-2.047761E-05,22.491,0,1.4994,-3.726253E-05,22.491,0
1.5003,-3.356985E-07,22.5045,0,1.5003,-5.774014E-05,22.5045,0
1.5012,-2.383459E-05,22.518,0,1.5012,-3.189136E-05,22.518,0
1.5021,-4.699779E-06,22.5315,0,1.5021,-1.779202E-05,22.5315,0
1.503,3.121996E-05,22.545,0,1.503,-5.035477E-06,22.545,0
1.5039,2.014191E-05,22.5585,0,1.5039,6.713969E-07,22.5585,0
1.5048,-7.721065E-06,22.572,0,1.5048,-2.484169E-05,22.572,0
1.5057,-3.356985E-05,22.5855,0,1.5057,-3.457694E-05,22.5855,0
1.5066,-3.424125E-05,22.599,0,1.5066,-5.539025E-05,22.599,0
1.5075,-5.606165E-05,22.6125,0,1.5075,-1.644922E-05,22.6125,0
1.5084,-3.860533E-05,22.626,0,1.5084,8.392462E-06,22.626,0
1.5093,-2.081331E-05,22.6395,0,1.5093,-2.987716E-05,22.6395,0
1.5102,-1.577783E-05,22.653,0,1.5102,-1.644922E-05,22.653,0
1.5111,1.712062E-05,22.6665,0,1.5111,8.728161E-06,22.6665,0
1.512,-2.014191E-06,22.68,0,1.512,3.356985E-07,22.68,0
1.5129,-2.450599E-05,22.6935,0,1.5129,-7.721065E-06,22.6935,0
1.5138,1.712062E-05,22.707,0,1.5138,4.36408E-06,22.707,0
1.5147,2.887007E-05,22.7205,0,1.5147,8.728161E-06,22.7205,0
1.5156,-7.721065E-06,22.734,0,1.5156,-1.208515E-05,22.734,0
1.5165,-3.121996E-05,22.7475,0,1.5165,-6.344701E-05,22.7475,0
1.5174,-2.584878E-05,22.761,0,1.5174,-6.042573E-05,22.761,0
1.5183,-2.24918E-05,22.7745,0,1.5183,-1.107805E-05,22.7745,0
1.5192,-9.399558E-06,22.788,0,1.5192,-1.107805E-05,22.788,0
1.5201,4.733349E-05,22.8015,0,1.5201,-4.49836E-05,22.8015,0
1.521,2.853437E-05,22.815,0,1.521,-7.049668E-06,22.815,0
1.5219,-2.24918E-05,22.8285,0,1.5219,1.577783E-05,22.8285,0
1.5228,-1.678492E-06,22.842,0,1.5228,-2.887007E-05,22.842,0
1.5237,-3.659113E-05,22.8555,0,1.5237,2.618448E-05,22.8555,0
1.5246,-6.076142E-05,22.869,0,1.5246,3.256275E-05,22.869,0
1.5255,-3.927672E-05,22.8825,0,1.5255,-8.392462E-06,22.8825,0
1.5264,-1.141375E-05,22.896,0,1.5264,-2.719158E-05,22.896,0
1.5273,-5.136187E-05,22.9095,0,1.5273,-6.814679E-05,22.9095,0
1.5282,-9.735256E-06,22.923,0,1.5282,-7.385367E-05,22.923,0
1.5291,2.349889E-06,22.9365,0,1.5291,-5.606165E-05,22.9365,0
1.53,-2.24918E-05,22.95,0,1.53,-3.222705E-05,22.95,0
1.5309,-9.063859E-06,22.9635,0,1.5309,5.706874E-06,22.9635,0
1.5318,-1.577783E-05,22.977,0,1.5318,1.812772E-05,22.977,0
1.5327,9.735256E-06,22.9905,0,1.5327,-5.706874E-06,22.9905,0
1.5336,3.558404E-05,23.004,0,1.5336,-3.793393E-05,23.004,0
1.5345,2.954147E-05,23.0175,0,1.5345,-1.409934E-05,23.0175,0
1.5354,3.390555E-05,23.031,0,1.5354,-1.846342E-05,23.031,0
1.5363,1.040665E-05,23.0445,0,1.5363,-5.001907E-05,23.0445,0
1.5372,-5.706874E-06,23.058,0,1.5372,-2.719158E-05,23.058,0
1.5381,-1.376364E-05,23.0715,0,1.5381,3.021286E-06,23.0715,0
1.539,-2.014191E-06,23.085,0,1.539,-4.36408E-06,23.085,0
1.5399,-2.349889E-06,23.0985,0,1.5399,-2.1149E-05,23.0985,0
1.5408,-5.371176E-06,23.112,0,1.5408,-5.069047E-05,23.112,0
1.5417,3.927672E-05,23.1255,0,1.5417,-1.846342E-05,23.1255,0
1.5426,1.443504E-05,23.139,0,1.5426,-1.342794E-06,23.139,0
1.5435,0,23.1525,0,1.5435,-3.491264E-05,23.1525,0
1.5444,-1.275654E-05,23.166,0,1.5444,-5.471885E-05,23.166,0
1.5453,-5.136187E-05,23.1795,0,1.5453,-2.349889E-05,23.1795,0
1.5462,-1.779202E-05,23.193,0,1.5462,-1.913481E-05,23.193,0
1.5471,-2.014191E-06,23.2065,0,1.5471,-4.061952E-05,23.2065,0
1.548,-2.551309E-05,23.22,0,1.548,-3.692683E-06,23.22,0
1.5489,-2.28275E-05,23.2335,0,1.5489,-1.141375E-05,23.2335,0
1.5498,2.014191E-06,23.247,0,1.5498,-3.961242E-05,23.247,0
1.5507,-2.517739E-05,23.2605,0,1.5507,-1.577783E-05,23.2605,0
1.5516,-6.54612E-05,23.274,0,1.5516,-1.611353E-05,23.274,0
1.5525,-4.867628E-05,23.2875,0,1.5525,-3.524834E-05,23.2875,0
1.5534,1.510643E-05,23.301,0,1.5534,-2.18204E-05,23.301,0
1.5543,-3.692683E-06,23.3145,0,1.5543,-4.39765E-05,23.3145,0
1.5552,2.24918E-05,23.328,0,1.5552,-1.544213E-05,23.328,0
1.5561,3.524834E-05,23.3415,0,1.5561,-1.712062E-05,23.3415,0
1.557,7.721065E-06,23.355,0,1.557,-3.323415E-05,23.355,0
1.5579,2.18204E-05,23.3685,0,1.5579,-3.961242E-05,23.3685,0
1.5588,6.042573E-06,23.382,0,1.5588,-8.392462E-06,23.382,0
1.5597,3.021286E-06,23.3955,0,1.5597,-1.644922E-05,23.3955,0
1.5606,2.719158E-05,23.409,0,1.5606,-5.001907E-05,23.409,0
1.5615,4.129091E-05,23.4225,0,1.5615,1.275654E-05,23.4225,0
1.5624,1.309224E-05,23.436,0,1.5624,2.383459E-05,23.436,0
1.5633,-2.685588E-06,23.4495,0,1.5633,-2.417029E-05,23.4495,0
1.5642,-1.242084E-05,23.463,0,1.5642,-2.752728E-05,23.463,0
1.5651,-4.33051E-05,23.4765,0,1.5651,-1.342794E-06,23.4765,0
1.566,-3.390555E-05,23.49,0,1.566,-1.007095E-06,23.49,0
1.5669,-5.706874E-06,23.5035,0,1.5669,-1.242084E-05,23.5035,0
1.5678,2.24918E-05,23.517,0,1.5678,-3.121996E-05,23.517,0
1.5687,1.678492E-05,23.5305,0,1.5687,9.735256E-06,23.5305,0
1.5696,-1.409934E-05,23.544,0,1.5696,3.927672E-05,23.544,0
1.5705,-3.256275E-05,23.5575,0,1.5705,-9.399558E-06,23.5575,0
1.5714,-4.934768E-05,23.571,0,1.5714,-1.242084E-05,23.571,0
1.5723,-6.009003E-05,23.5845,0,1.5723,1.577783E-05,23.5845,0
1.5732,-3.390555E-05,23.598,0,1.5732,-4.36408E-06,23.598,0
1.5741,-2.014191E-06,23.6115,0,1.5741,-2.652018E-05,23.6115,0
1.575,-4.46479E-05,23.625,0,1.575,-2.349889E-06,23.625,0
1.5759,-3.457694E-05,23.6385,0,1.5759,-2.752728E-05,23.6385,0
1.5768,-1.174945E-05,23.652,0,1.5768,-3.793393E-05,23.652,0
1.5777,-4.49836E-05,23.6655,0,1.5777,-1.846342E-05,23.6655,0
1.5786,-1.342794E-06,23.679,0,1.5786,4.699779E-06,23.679,0
1.5795,5.706874E-06,23.6925,0,1.5795,-1.242084E-05,23.6925,0
1.5804,-3.189136E-05,23.706,0,1.5804,-2.047761E-05,23.706,0
1.5813,3.692683E-06,23.7195,0,1.5813,-1.577783E-05,23.7195,0
1.5822,3.390555E-05,23.733,0,1.5822,-8.392462E-06,23.733,0
1.5831,2.349889E-06,23.7465,0,1.5831,-3.256275E-05,23.7465,0
1.584,2.014191E-06,23.76,0,1.584,-3.726253E-05,23.76,0
1.5849,-1.678492E-06,23.7735,0,1.5849,-6.915389E-05,23.7735,0
1.5858,-7.049668E-06,23.787,0,1.5858,-2.819867E-05,23.787,0
1.5867,3.356985E-06,23.8005,0,1.5867,-2.014191E-05,23.8005,0
1.5876,2.652018E-05,23.814,0,1.5876,-6.277562E-05,23.814,0
1.5885,3.356985E-06,23.8275,0,1.5885,-2.24918E-05,23.8275,0
1.5894,9.399558E-06,23.841,0,1.5894,3.726253E-05,23.841,0
1.5903,2.584878E-05,23.8545,0,1.5903,-2.28275E-05,23.8545,0
1.5912,-2.450599E-05,23.868,0,1.5912,-5.874724E-05,23.868,0
1.5921,-3.323415E-05,23.8815,0,1.5921,-2.450599E-05,23.8815,0
1.593,-3.692683E-06,23.895,0,1.593,-2.047761E-05,23.895,0
1.5939,-4.33051E-05,23.9085,0,1.5939,-2.450599E-05,23.9085,0
1.5948,-2.786297E-05,23.922,0,1.5948,-3.591974E-05,23.922,0
1.5957,1.510643E-05,23.9355,0,1.5957,-1.376364E-05,23.9355,0
1.5966,3.356985E-07,23.949,0,1.5966,-1.007095E-05,23.949,0
1.5975,-4.36408E-05,23.9625,0,1.5975,-2.920577E-05,23.9625,0
1.5984,-2.316319E-05,23.976,0,1.5984,-5.136187E-05,23.976,0
1.5993,-2.719158E-05,23.9895,0,1.5993,-2.081331E-05,23.9895,0
1.6002,-1.443504E-05,24.003,0,1.6002,-3.524834E-05,24.003,0
1.6011,1.846342E-05,24.0165,0,1.6011,-4.867628E-05,24.0165,0
1.602,7.721065E-06,24.03,0,1.602,1.510643E-05,24.03,0
1.6029,1.007095E-05,24.0435,0,1.6029,5.069047E-05,24.0435,0
1.6038,9.063859E-06,24.057,0,1.6038,4.39765E-05,24.057,0
1.6047,3.390555E-05,24.0705,0,1.6047,2.551309E-05,24.0705,0
1.6056,1.208515E-05,24.084,0,1.6056,1.242084E-05,24.084,0
1.6065,-2.014191E-06,24.0975,0,1.6065,1.040665E-05,24.0975,0
1.6074,-9.735256E-06,24.111,0,1.6074,-1.040665E-05,24.111,0
1.6083,-8.728161E-06,24.1245,0,1.6083,-6.478981E-05,24.1245,0
1.6092,-3.256275E-05,24.138,0,1.6092,-3.659113E-05,24.138,0
1.6101,-1.409934E-05,24.1515,0,1.6101,-1.577783E-05,24.1515,0
1.611,-6.042573E-06,24.165,0,1.611,-2.719158E-05,24.165,0
1.6119,-2.014191E-06,24.1785,0,1.6119,-5.069047E-05,24.1785,0
1.6128,-9.399558E-06,24.192,0,1.6128,-2.14847E-05,24.192,0
1.6137,-3.356985E-07,24.2055,0,1.6137,-7.721065E-06,24.2055,0
1.6146,1.712062E-05,24.219,0,1.6146,-5.606165E-05,24.219,0
1.6155,2.618448E-05,24.2325,0,1.6155,-1.007095E-05,24.2325,0
1.6164,7.721065E-06,24.246,0,1.6164,1.443504E-05,24.246,0
1.6173,-1.007095E-06,24.2595,0,1.6173,-2.21561E-05,24.2595,0
1.6182,-6.713969E-07,24.273,0,1.6182,-3.155566E-05,24.273,0
1.6191,-2.987716E-05,24.2865,0,1.6191,2.685588E-06,24.2865,0
1.62,-3.021286E-05,24.3,0,1.62,4.36408E-06,24.3,0
1.6209,-2.316319E-05,24.3135,0,1.6209,-9.399558E-06,24.3135,0
1.6218,2.349889E-06,24.327,0,1.6218,-1.611353E-05,24.327,0
1.6227,5.035477E-06,24.3405,0,1.6227,3.289845E-05,24.3405,0
1.6236,-3.692683E-06,24.354,0,1.6236,1.846342E-05,24.354,0
1.6245,-2.517739E-05,24.3675,0,1.6245,-5.673304E-05,24.3675,0
1.6254,1.678492E-06,24.381,0,1.6254,-8.023193E-05,24.381,0
1.6263,-1.644922E-05,24.3945,0,1.6263,-1.678492E-06,24.3945,0
1.6272,-3.625543E-05,24.408,0,1.6272,-4.599069E-05,24.408,0
1.6281,-2.484169E-05,24.4215,0,1.6281,-0.0001315938,24.4215,0
1.629,-3.189136E-05,24.435,0,1.629,-6.64683E-05,24.435,0
1.6299,-4.33051E-05,24.4485,0,1.6299,-3.894102E-05,24.4485,0
1.6308,6.713969E-07,24.462,0,1.6308,-8.191043E-05,24.462,0
1.6317,2.383459E-05,24.4755,0,1.6317,-3.390555E-05,24.4755,0
1.6326,5.035477E-06,24.489,0,1.6326,4.129091E-05,24.489,0
1.6335,2.1149E-05,24.5025,0,1.6335,3.356985E-05,24.5025,0
1.6344,-2.450599E-05,24.516,0,1.6344,-1.275654E-05,24.516,0
1.6353,-3.659113E-05,24.5295,0,1.6353,-1.678492E-05,24.5295,0
1.6362,-4.196231E-05,24.543,0,1.6362,-7.049668E-06,24.543,0
1.6371,-3.994812E-05,24.5565,0,1.6371,2.349889E-06,24.5565,0
1.638,-3.457694E-05,24.57,0,1.638,-2.14847E-05,24.57,0
1.6389,-1.208515E-05,24.5835,0,1.6389,-5.270466E-05,24.5835,0
1.6398,3.323415E-05,24.597,0,1.6398,-1.644922E-05,24.597,0
1.6407,3.054856E-05,24.6105,0,1.6407,-1.107805E-05,24.6105,0
1.6416,3.189136E-05,24.624,0,1.6416,-4.36408E-05,24.624,0
1.6425,-6.713969E-07,24.6375,0,1.6425,-7.721065E-06,24.6375,0
1.6434,-1.947051E-05,24.651,0,1.6434,9.399558E-06,24.651,0
1.6443,-1.510643E-05,24.6645,0,1.6443,-3.189136E-05,24.6645,0
1.6452,-3.054856E-05,24.678,0,1.6452,-1.510643E-05,24.678,0
1.6461,-4.53193E-05,24.6915,0,1.6461,1.678492E-06,24.6915,0
1.647,-4.061952E-05,24.705,0,1.647,6.713969E-07,24.705,0
1.6479,-2.584878E-05,24.7185,0,1.6479,-2.081331E-05,24.7185,0
1.6488,1.275654E-05,24.732,0,1.6488,-4.766919E-05,24.732,0
1.6497,2.014191E-05,24.7455,0,1.6497,-9.399558E-06,24.7455,0
1.6506,3.994812E-05,24.759,0,1.6506,0,24.759,0
1.6515,3.961242E-05,24.7725,0,1.6515,-2.987716E-05,24.7725,0
1.6524,-3.021286E-06,24.786,0,1.6524,-3.692683E-05,24.786,0
1.6533,-5.706874E-06,24.7995,0,1.6533,8.728161E-06,24.7995,0
1.6542,2.450599E-05,24.813,0,1.6542,1.678492E-06,24.813,0
1.6551,1.846342E-05,24.8265,0,1.6551,-3.424125E-05,24.8265,0
1.656,1.242084E-05,24.84,0,1.656,-3.021286E-06,24.84,0
1.6569,2.417029E-05,24.8535,0,1.6569,1.443504E-05,24.8535,0
1.6578,3.054856E-05,24.867,0,1.6578,-3.088426E-05,24.867,0
1.6587,-1.376364E-05,24.8805,0,1.6587,-2.920577E-05,24.8805,0
1.6596,-1.107805E-05,24.894,0,1.6596,-3.356985E-07,24.894,0
1.6605,9.735256E-06,24.9075,0,1.6605,-2.450599E-05,24.9075,0
1.6614,-5.001907E-05,24.921,0,1.6614,-3.323415E-05,24.921,0
1.6623,-0.0001040665,24.9345,0,1.6623,-1.779202E-05,24.9345,0
1.6632,-0.0001258869,24.948,0,1.6632,2.1149E-05,24.948,0
1.6641,-5.404745E-05,24.9615,0,1.6641,4.095522E-05,24.9615,0
1.665,3.189136E-05,24.975,0,1.665,-1.309224E-05,24.975,0
1.6659,7.083238E-05,24.9885,0,1.6659,-5.874724E-05,24.9885,0
1.6668,3.860533E-05,25.002,0,1.6668,-1.007095E-06,25.002,0
1.6677,1.779202E-05,25.0155,0,1.6677,-1.242084E-05,25.0155,0
1.6686,5.136187E-05,25.029,0,1.6686,-5.673304E-05,25.029,0
1.6695,-1.040665E-05,25.0425,0,1.6695,-1.242084E-05,25.0425,0
1.6704,-4.33051E-05,25.056,0,1.6704,5.035477E-06,25.056,0
1.6713,-2.383459E-05,25.0695,0,1.6713,-2.349889E-05,25.0695,0
1.6722,5.706874E-06,25.083,0,1.6722,-2.685588E-05,25.083,0
1.6731,2.014191E-06,25.0965,0,1.6731,-2.349889E-06,25.0965,0
1.674,1.309224E-05,25.11,0,1.674,-1.107805E-05,25.11,0
1.6749,2.1149E-05,25.1235,0,1.6749,-1.712062E-05,25.1235,0
1.6758,-1.644922E-05,25.137,0,1.6758,-4.263371E-05,25.137,0
1.6767,-2.652018E-05,25.1505,0,1.6767,-2.987716E-05,25.1505,0
1.6776,1.443504E-05,25.164,0,1.6776,-1.678492E-06,25.164,0
1.6785,-3.659113E-05,25.1775,0,1.6785,-5.069047E-05,25.1775,0
1.6794,-6.713969E-07,25.191,0,1.6794,-4.666209E-05,25.191,0
1.6803,-6.378271E-06,25.2045,0,1.6803,-1.510643E-05,25.2045,0
1.6812,1.376364E-05,25.218,0,1.6812,-4.36408E-06,25.218,0
1.6821,3.323415E-05,25.2315,0,1.6821,-4.599069E-05,25.2315,0
1.683,-1.107805E-05,25.245,0,1.683,-4.095522E-05,25.245,0
1.6839,3.356985E-06,25.2585,0,1.6839,-4.867628E-05,25.2585,0
1.6848,7.721065E-06,25.272,0,1.6848,-6.344701E-05,25.272,0
1.6857,1.309224E-05,25.2855,0,1.6857,-4.29694E-05,25.2855,0
1.6866,-1.040665E-05,25.299,0,1.6866,4.36408E-06,25.299,0
1.6875,-3.524834E-05,25.3125,0,1.6875,5.404745E-05,25.3125,0
1.6884,-4.36408E-05,25.326,0,1.6884,2.752728E-05,25.326,0
1.6893,-2.349889E-05,25.3395,0,1.6893,-3.021286E-05,25.3395,0
1.6902,-3.189136E-05,25.353,0,1.6902,-1.107805E-05,25.353,0
1.6911,-7.586786E-05,25.3665,0,1.6911,1.577783E-05,25.3665,0
1.692,-5.740444E-05,25.38,0,1.692,-3.256275E-05,25.38,0
1.6929,-3.591974E-05,25.3935,0,1.6929,-4.800488E-05,25.3935,0
1.6938,-2.786297E-05,25.407,0,1.6938,4.699779E-06,25.407,0
1.6947,8.728161E-06,25.4205,0,1.6947,8.728161E-06,25.4205,0
1.6956,2.349889E-05,25.434,0,1.6956,-3.323415E-05,25.434,0
1.6965,-3.524834E-05,25.4475,0,1.6965,-7.721065E-06,25.4475,0
1.6974,-3.021286E-06,25.461,0,1.6974,-1.309224E-05,25.461,0
1.6983,4.229801E-05,25.4745,0,1.6983,-4.599069E-05,25.4745,0
1.6992,-2.618448E-05,25.488,0,1.6992,-1.242084E-05,25.488,0
1.7001,-3.826963E-05,25.5015,0,1.7001,-1.678492E-06,25.5015,0
1.701,2.1149E-05,25.515,0,1.701,2.014191E-06,25.515,0
1.7019,4.867628E-05,25.5285,0,1.7019,-1.947051E-05,25.5285,0
1.7028,2.349889E-06,25.542,0,1.7028,-4.33051E-05,25.542,0
1.7037,-9.063859E-06,25.5555,0,1.7037,-1.376364E-05,25.5555,0
1.7046,-1.644922E-05,25.569,0,1.7046,-5.035477E-06,25.569,0
1.7055,-1.745632E-05,25.5825,0,1.7055,-4.129091E-05,25.5825,0
1.7064,-2.685588E-06,25.596,0,1.7064,-8.258183E-05,25.596,0
1.7073,-1.879912E-05,25.6095,0,1.7073,-5.035477E-05,25.6095,0
1.7082,-1.745632E-05,25.623,0,1.7082,-5.337606E-05,25.623,0
1.7091,1.409934E-05,25.6365,0,1.7091,-6.277562E-05,25.6365,0
1.71,9.063859E-06,25.65,0,1.71,-1.678492E-06,25.65,0
1.7109,1.678492E-05,25.6635,0,1.7109,-6.713969E-07,25.6635,0
1.7118,3.356985E-06,25.677,0,1.7118,-3.256275E-05,25.677,0
1.7127,4.36408E-06,25.6905,0,1.7127,-5.169757E-05,25.6905,0
1.7136,-1.779202E-05,25.704,0,1.7136,-1.309224E-05,25.704,0
1.7145,-1.141375E-05,25.7175,0,1.7145,4.699779E-06,25.7175,0
1.7154,-1.174945E-05,25.731,0,1.7154,-8.392462E-06,25.731,0
1.7163,-9.399558E-06,25.7445,0,1.7163,-4.666209E-05,25.7445,0
1.7172,2.081331E-05,25.758,0,1.7172,-1.879912E-05,25.758,0
1.7181,5.404745E-05,25.7715,0,1.7181,1.007095E-06,25.7715,0
1.719,1.846342E-05,25.785,0,1.719,-3.558404E-05,25.785,0
1.7199,3.088426E-05,25.7985,0,1.7199,-5.404745E-05,25.7985,0
1.7208,1.342794E-05,25.812,0,1.7208,9.735256E-06,25.812,0
1.7217,-3.121996E-05,25.8255,0,1.7217,-7.721065E-06,25.8255,0
1.7226,2.584878E-05,25.839,0,1.7226,-3.591974E-05,25.839,0
1.7235,1.208515E-05,25.8525,0,1.7235,-2.047761E-05,25.8525,0
1.7244,-1.510643E-05,25.866,0,1.7244,0,25.866,0
1.7253,-3.356985E-06,25.8795,0,1.7253,-7.721065E-06,25.8795,0
1.7262,7.721065E-06,25.893,0,1.7262,-3.692683E-06,25.893,0
1.7271,-1.107805E-05,25.9065,0,1.7271,3.088426E-05,25.9065,0
1.728,-2.887007E-05,25.92,0,1.728,2.14847E-05,25.92,0
1.7289,-2.316319E-05,25.9335,0,1.7289,7.721065E-06,25.9335,0
1.7298,-3.088426E-05,25.947,0,1.7298,-5.337606E-05,25.947,0
1.7307,-3.121996E-05,25.9605,0,1.7307,-7.620356E-05,25.9605,0
1.7316,-3.424125E-05,25.974,0,1.7316,-2.652018E-05,25.974,0
1.7325,-1.007095E-05,25.9875,0,1.7325,-4.46479E-05,25.9875,0
1.7334,-1.376364E-05,26.001,0,1.7334,-5.069047E-05,26.001,0
1.7343,4.36408E-06,26.0145,0,1.7343,3.021286E-05,26.0145,0
1.7352,3.491264E-05,26.028,0,1.7352,6.210422E-05,26.028,0
1.7361,1.409934E-05,26.0415,0,1.7361,2.349889E-06,26.0415,0
1.737,-6.61326E-05,26.055,0,1.737,1.174945E-05,26.055,0
1.7379,-9.063859E-05,26.0685,0,1.7379,3.088426E-05,26.0685,0
1.7388,-7.687495E-05,26.082,0,1.7388,-7.385367E-06,26.082,0
1.7397,-2.1149E-05,26.0955,0,1.7397,-3.021286E-06,26.0955,0
1.7406,-2.081331E-05,26.109,0,1.7406,1.812772E-05,26.109,0
1.7415,-2.752728E-05,26.1225,0,1.7415,-5.035477E-06,26.1225,0
1.7424,1.947051E-05,26.136,0,1.7424,-1.644922E-05,26.136,0
1.7433,3.591974E-05,26.1495,0,1.7433,-2.484169E-05,26.1495,0
1.7442,2.349889E-06,26.163,0,1.7442,-1.779202E-05,26.163,0
1.7451,-3.256275E-05,26.1765,0,1.7451,-2.349889E-05,26.1765,0
1.746,-3.457694E-05,26.19,0,1.746,-2.920577E-05,26.19,0
1.7469,-2.047761E-05,26.2035,0,1.7469,-5.102617E-05,26.2035,0
1.7478,-7.721065E-06,26.217,0,1.7478,-9.399558E-06,26.217,0
1.7487,5.203327E-05,26.2305,0,1.7487,8.056763E-06,26.2305,0
1.7496,7.687495E-05,26.244,0,1.7496,-5.471885E-05,26.244,0
1.7505,-5.706874E-06,26.2575,0,1.7505,-5.136187E-05,26.2575,0
1.7514,-2.853437E-05,26.271,0,1.7514,-8.056763E-06,26.271,0
1.7523,-1.879912E-05,26.2845,0,1.7523,-4.733349E-05,26.2845,0
1.7532,-2.987716E-05,26.298,0,1.7532,-5.740444E-05,26.298,0
1.7541,-4.095522E-05,26.3115,0,1.7541,-2.21561E-05,26.3115,0
1.755,-2.450599E-05,26.325,0,1.755,-2.24918E-05,26.325,0
1.7559,-2.920577E-05,26.3385,0,1.7559,-4.46479E-05,26.3385,0
1.7568,2.685588E-06,26.352,0,1.7568,-5.102617E-05,26.352,0
1.7577,2.349889E-06,26.3655,0,1.7577,-1.107805E-05,26.3655,0
1.7586,2.383459E-05,26.379,0,1.7586,2.652018E-05,26.379,0
1.7595,1.309224E-05,26.3925,0,1.7595,-1.376364E-05,26.3925,0
1.7604,-8.392462E-06,26.406,0,1.7604,-2.484169E-05,26.406,0
1.7613,-7.385367E-06,26.4195,0,1.7613,1.846342E-05,26.4195,0
1.7622,4.36408E-06,26.433,0,1.7622,2.517739E-05,26.433,0
1.7631,1.712062E-05,26.4465,0,1.7631,-3.021286E-06,26.4465,0
1.764,1.040665E-05,26.46,0,1.764,9.735256E-06,26.46,0
1.7649,-1.107805E-05,26.4735,0,1.7649,-9.399558E-06,26.4735,0
1.7658,-2.18204E-05,26.487,0,1.7658,-7.183947E-05,26.487,0
1.7667,-8.392462E-06,26.5005,0,1.7667,-6.61326E-05,26.5005,0
1.7676,-1.644922E-05,26.514,0,1.7676,-5.069047E-05,26.514,0
1.7685,-4.196231E-05,26.5275,0,1.7685,-5.270466E-05,26.5275,0
1.7694,-3.659113E-05,26.541,0,1.7694,-3.289845E-05,26.541,0
1.7703,-1.141375E-05,26.5545,0,1.7703,-3.659113E-05,26.5545,0
1.7712,-1.040665E-05,26.568,0,1.7712,-3.692683E-06,26.568,0
1.7721,-6.042573E-06,26.5815,0,1.7721,3.692683E-06,26.5815,0
1.773,-1.309224E-05,26.595,0,1.773,-4.666209E-05,26.595,0
1.7739,1.913481E-05,26.6085,0,1.7739,-4.666209E-05,26.6085,0
1.7748,-1.577783E-05,26.622,0,1.7748,3.021286E-06,26.622,0
1.7757,-5.035477E-06,26.6355,0,1.7757,-1.443504E-05,26.6355,0
1.7766,1.846342E-05,26.649,0,1.7766,-7.486076E-05,26.649,0
1.7775,3.356985E-07,26.6625,0,1.7775,-4.229801E-05,26.6625,0
1.7784,9.063859E-06,26.676,0,1.7784,-3.692683E-06,26.676,0
1.7793,1.477073E-05,26.6895,0,1.7793,-3.289845E-05,26.6895,0
1.7802,-4.162661E-05,26.703,0,1.7802,-1.443504E-05,26.703,0
1.7811,-5.337606E-05,26.7165,0,1.7811,8.426032E-05,26.7165,0
1.782,-2.18204E-05,26.73,0,1.782,4.666209E-05,26.73,0
1.7829,-3.121996E-05,26.7435,0,1.7829,-1.779202E-05,26.7435,0
1.7838,-2.584878E-05,26.757,0,1.7838,-3.256275E-05,26.757,0
1.7847,9.735256E-06,26.7705,0,1.7847,-7.721065E-06,26.7705,0
1.7856,2.652018E-05,26.784,0,1.7856,-1.913481E-05,26.784,0
1.7865,3.054856E-05,26.7975,0,1.7865,-2.316319E-05,26.7975,0
1.7874,3.390555E-05,26.811,0,1.7874,-3.793393E-05,26.811,0
1.7883,2.349889E-06,26.8245,0,1.7883,-8.056763E-06,26.8245,0
1.7892,1.913481E-05,26.838,0,1.7892,-1.477073E-05,26.838,0
1.7901,4.968337E-05,26.8515,0,1.7901,-4.766919E-05,26.8515,0
1.791,3.021286E-06,26.865,0,1.791,1.007095E-06,26.865,0
1.7919,-3.356985E-07,26.8785,0,1.7919,4.699779E-06,26.8785,0
1.7928,5.035477E-06,26.892,0,1.7928,-3.994812E-05,26.892,0
1.7937,-3.021286E-05,26.9055,0,1.7937,-4.061952E-05,26.9055,0
1.7946,-5.740444E-05,26.919,0,1.7946,-5.706874E-06,26.919,0
1.7955,-4.766919E-05,26.9325,0,1.7955,-9.735256E-06,26.9325,0
1.7964,-3.692683E-05,26.946,0,1.7964,-1.174945E-05,26.946,0
1.7973,-2.719158E-05,26.9595,0,1.7973,-4.53193E-05,26.9595,0
1.7982,-1.107805E-05,26.973,0,1.7982,-7.049668E-06,26.973,0
1.7991,2.383459E-05,26.9865,0,1.7991,1.577783E-05,26.9865,0
1.8,4.867628E-05,27,0,1.8,-1.846342E-05,27,0
1.8009,4.39765E-05,27.0135,0,1.8009,-1.812772E-05,27.0135,0
1.8018,3.323415E-05,27.027,0,1.8018,1.107805E-05,27.027,0
1.8027,5.740444E-05,27.0405,0,1.8027,1.342794E-06,27.0405,0
1.8036,5.874724E-05,27.054,0,1.8036,-3.558404E-05,27.054,0
1.8045,1.007095E-06,27.0675,0,1.8045,-2.652018E-05,27.0675,0
1.8054,1.678492E-06,27.081,0,1.8054,-9.735256E-06,27.081,0
1.8063,-3.356985E-07,27.0945,0,1.8063,-2.14847E-05,27.0945,0
1.8072,-2.584878E-05,27.108,0,1.8072,-4.095522E-05,27.108,0
1.8081,-8.291753E-05,27.1215,0,1.8081,-4.162661E-05,27.1215,0
1.809,-6.915389E-05,27.135,0,1.809,-3.155566E-05,27.135,0
1.8099,-1.745632E-05,27.1485,0,1.8099,-2.987716E-05,27.1485,0
1.8108,-1.678492E-05,27.162,0,1.8108,-3.390555E-05,27.162,0
1.8117,-3.189136E-05,27.1755,0,1.8117,4.36408E-06,27.1755,0
1.8126,-5.706874E-06,27.189,0,1.8126,4.46479E-05,27.189,0
1.8135,-1.107805E-05,27.2025,0,1.8135,1.443504E-05,27.2025,0
1.8144,-1.779202E-05,27.216,0,1.8144,-3.323415E-05,27.216,0
1.8153,-3.591974E-05,27.2295,0,1.8153,-1.141375E-05,27.2295,0
