X[s],"Trigno IM sensor 3: EMG 3 (IM)",X[s],"Trigno IM sensor 3: Mag 3.Z (IM)",X[s],"Trigno IM sensor 4: EMG 4 (IM)",X[s],"Trigno IM sensor 4: Mag 4.Z (IM)"
0.000000,6.378271E-06,0.000000,46,0.000000,-0.0001144732,0.000000,103
0.0009,-1.913481E-05,0.0135,48,0.0009,-0.0001087663,0.0135,104
0.0018,-4.867628E-05,0.027,48,0.0018,-8.761731E-05,0.027,101
0.0027,1.980621E-05,0.0405,47,0.0027,-6.915389E-05,0.0405,105
0.0036,7.821774E-05,0.054,47,0.0036,-7.083238E-05,0.054,102
0.0045,1.846342E-05,0.0675,46,0.0045,-6.74754E-05,0.0675,101
0.0054,-4.33051E-05,0.081,48,0.0054,-5.404745E-05,0.081,103
0.0063,-1.376364E-05,0.0945,47,0.0063,-5.606165E-05,0.0945,102
0.0072,-1.040665E-05,0.108,48,0.0072,-4.263371E-05,0.108,105
0.0081,-5.941863E-05,0.1215,47,0.0081,-2.316319E-05,0.1215,99
0.009000001,-2.584878E-05,0.135,47,0.009000001,-2.014191E-06,0.135,101
0.0099,-3.390555E-05,0.1485,47,0.0099,-5.371176E-06,0.1485,100
0.0108,-4.49836E-05,0.162,47,0.0108,2.349889E-06,0.162,101
0.0117,-8.090334E-05,0.1755,46,0.0117,1.577783E-05,0.1755,103
0.0126,-5.069047E-05,0.189,46,0.0126,3.356985E-06,0.189,102
0.0135,-5.404745E-05,0.2025,46,0.0135,-5.035477E-06,0.2025,101
0.0144,-9.735256E-06,0.216,46,0.0144,-9.735256E-06,0.216,100
0.0153,-3.927672E-05,0.2295,47,0.0153,5.706874E-06,0.2295,101
0.0162,1.443504E-05,0.243,47,0.0162,-8.728161E-06,0.243,102
0.0171,3.860533E-05,0.2565,48,0.0171,-2.28275E-05,0.2565,102
0.018,2.752728E-05,0.27,47,0.018,-2.719158E-05,0.27,102
0.0189,2.752728E-05,0.2835,47,0.0189,-2.719158E-05,0.2835,102
0.0198,1.846342E-05,0.297,48,0.0198,-2.18204E-05,0.297,104
0.0207,5.706874E-05,0.3105,48,0.0207,-1.107805E-05,0.3105,103
0.0216,3.155566E-05,0.324,49,0.0216,-2.349889E-05,0.324,103
0.0225,-3.256275E-05,0.3375,47,0.0225,-4.53193E-05,0.3375,103
0.0234,-5.471885E-05,0.351,49,0.0234,-3.793393E-05,0.351,100
0.0243,-4.53193E-05,0.3645,48,0.0243,-5.606165E-05,0.3645,102
0.0252,-8.493171E-05,0.378,48,0.0252,-6.6804E-05,0.378,103
0.0261,-4.934768E-05,0.3915,47,0.0261,-9.231708E-05,0.3915,99
0.027,2.887007E-05,0.405,48,0.027,-0.0001188373,0.405,105
0.0279,-2.652018E-05,0.4185,48,0.0279,-0.0001292439,0.4185,103
0.0288,3.155566E-05,0.432,47,0.0288,-0.0001497215,0.432,101
0.0297,8.560311E-05,0.4455,48,0.0297,-9.903105E-05,0.4455,103
0.0306,-2.920577E-05,0.459,47,0.0306,-9.701686E-05,0.459,104
0.0315,-4.229801E-05,0.4725,48,0.0315,-9.869535E-05,0.4725,100
0.0324,6.277562E-05,0.486,46,0.0324,-7.116808E-05,0.486,102
0.0333,7.049668E-06,0.4995,47,0.0333,-1.141375E-05,0.4995,104
0.0342,-9.063859E-06,0.513,48,0.0342,-3.927672E-05,0.513,99
0.0351,0.0001077592,0.5265,47,0.0351,-6.61326E-05,0.5265,102
0.036,4.699779E-06,0.54,46,0.036,1.443504E-05,0.54,102
0.0369,3.894102E-05,0.5535,48,0.0369,2.383459E-05,0.5535,102
0.0378,8.157473E-05,0.567,48,0.0378,1.141375E-05,0.567,101
0.0387,7.486076E-05,0.5805,47,0.0387,7.284657E-05,0.5805,101
0.0396,-4.229801E-05,0.594,47,0.0396,0.000105745,0.594,99
0.0405,-4.196231E-05,0.6075,47,0.0405,0.0001037308,0.6075,102
0.0414,1.040665E-05,0.621,47,0.0414,9.298848E-05,0.621,103
0.0423,5.203327E-05,0.6345,47,0.0423,3.860533E-05,0.6345,101
0.0432,-1.242084E-05,0.648,46,0.0432,7.586786E-05,0.648,99
0.0441,-5.404745E-05,0.6615,46,0.0441,8.224613E-05,0.6615,101
0.045,-2.450599E-05,0.675,47,0.045,6.009003E-05,0.675,103
0.0459,4.632639E-05,0.6885,46,0.0459,2.719158E-05,0.6885,101
0.0468,1.040665E-05,0.702,45,0.0468,7.486076E-05,0.702,101
0.0477,-1.007095E-05,0.7155,45,0.0477,5.270466E-05,0.7155,98
0.0486,5.606165E-05,0.729,42,0.0486,-2.450599E-05,0.729,100
0.0495,-1.007095E-05,0.7425,42,0.0495,2.752728E-05,0.7425,102
0.0504,9.735256E-06,0.756,43,0.0504,-8.392462E-06,0.756,101
0.0513,6.143282E-05,0.7695,44,0.0513,-4.901198E-05,0.7695,99
0.0522,5.404745E-05,0.783,42,0.0522,-3.692683E-06,0.783,103
0.0531,-7.721065E-06,0.7965,42,0.0531,2.349889E-05,0.7965,102
0.054,1.812772E-05,0.81,41,0.054,-7.721065E-06,0.81,102
0.0549,1.577783E-05,0.8235,40,0.0549,8.056763E-06,0.8235,100
0.0558,9.634547E-05,0.837,41,0.0558,-9.063859E-06,0.837,100
0.0567,-1.007095E-06,0.8505,43,0.0567,3.860533E-05,0.8505,99
0.0576,-0.000133608,0.864,44,0.0576,4.43122E-05,0.864,100
0.0585,-1.577783E-05,0.8775,45,0.0585,8.056763E-06,0.8775,98
0.0594,4.733349E-05,0.891,44,0.0594,-1.208515E-05,0.891,99
0.0603,-0.0001050736,0.9045,44,0.0603,1.980621E-05,0.9045,105
0.0612,-6.71397E-05,0.918,45,0.0612,-1.846342E-05,0.918,99
0.0621,9.500267E-05,0.9315,45,0.0621,-7.217517E-05,0.9315,102
0.063,-7.418937E-05,0.945,43,0.063,-1.510643E-05,0.945,103
0.0639,-2.954147E-05,0.9585,44,0.0639,-3.558404E-05,0.9585,100
0.0648,8.493171E-05,0.972,44,0.0648,-9.030289E-05,0.972,100
0.0657,-1.376364E-05,0.9855,44,0.0657,-7.721065E-05,0.9855,101
0.0666,-9.097429E-05,0.999,43,0.0666,-5.539025E-05,0.999,99
0.0675,-3.356985E-05,1.0125,43,0.0675,-6.57969E-05,1.0125,101
0.0684,-4.162661E-05,1.026,43,0.0684,-5.438316E-05,1.026,98
0.0693,-3.927672E-05,1.0395,43,0.0693,-6.478981E-05,1.0395,103
0.0702,-9.735256E-06,1.053,43,0.0702,-4.36408E-06,1.053,99
0.0711,-1.913481E-05,1.0665,45,0.0711,1.913481E-05,1.0665,101
0.072,-2.24918E-05,1.08,43,0.072,-1.678492E-06,1.08,103
0.0729,1.174945E-05,1.0935,42,0.0729,-1.443504E-05,1.0935,101
0.07380001,-3.121996E-05,1.107,42,0.07380001,3.222705E-05,1.107,101
0.07470001,-5.471885E-05,1.1205,42,0.07470001,1.141375E-05,1.1205,101
0.0756,1.712062E-05,1.134,41,0.0756,-5.505455E-05,1.134,104
0.0765,-6.344701E-05,1.1475,41,0.0765,2.316319E-05,1.1475,101
0.0774,-0.0001097734,1.161,42,0.0774,1.779202E-05,1.161,102
0.0783,-1.913481E-05,1.1745,42,0.0783,-3.759823E-05,1.1745,102
0.0792,9.600977E-05,1.188,41,0.0792,9.735256E-06,1.188,100
0.0801,-9.970245E-05,1.2015,42,0.0801,1.577783E-05,1.2015,101
0.081,-4.800488E-05,1.215,41,0.081,5.035477E-06,1.215,104
0.0819,4.666209E-05,1.2285,40,0.0819,-1.779202E-05,1.2285,103
0.0828,1.510643E-05,1.242,41,0.0828,-4.49836E-05,1.242,101
0.0837,-2.383459E-05,1.2555,40,0.0837,-9.735256E-06,1.2555,97
0.0846,-3.121996E-05,1.269,40,0.0846,-1.913481E-05,1.269,102
0.0855,1.913481E-05,1.2825,40,0.0855,-6.848249E-05,1.2825,101
0.0864,4.46479E-05,1.296,41,0.0864,-7.150377E-05,1.296,103
0.0873,-7.418937E-05,1.3095,41,0.0873,-1.409934E-05,1.3095,103
0.0882,-3.289845E-05,1.323,42,0.0882,-3.860533E-05,1.323,103
0.0891,6.076142E-05,1.3365,43,0.0891,-5.404745E-05,1.3365,102
0.09,-1.644922E-05,1.35,43,0.09,8.392462E-06,1.35,105
0.0909,1.913481E-05,1.3635,40,0.0909,-7.049668E-06,1.3635,99
0.0918,1.477073E-05,1.377,42,0.0918,-5.001907E-05,1.377,99
0.0927,-6.71397E-05,1.3905,39,0.0927,-2.652018E-05,1.3905,100
0.0936,-3.256275E-05,1.404,41,0.0936,-1.745632E-05,1.404,101
0.09450001,-3.659113E-05,1.4175,41,0.09450001,-4.867628E-05,1.4175,100
0.09540001,-3.826963E-05,1.431,40,0.09540001,-4.229801E-05,1.431,106
0.09630001,2.1149E-05,1.4445,40,0.09630001,-7.620356E-05,1.4445,102
0.0972,2.719158E-05,1.458,41,0.0972,-4.733349E-05,1.458,102
0.0981,2.014191E-05,1.4715,41,0.0981,-3.356985E-05,1.4715,106
0.099,1.846342E-05,1.485,41,0.099,-6.881819E-05,1.485,101
0.0999,8.090334E-05,1.4985,41,0.0999,-7.553216E-05,1.4985,100
0.1008,-3.860533E-05,1.512,41,0.1008,-1.174945E-05,1.512,104
0.1017,-2.920577E-05,1.5255,41,0.1017,-2.450599E-05,1.5255,98
0.1026,0.0001017166,1.539,41,0.1026,-7.687495E-05,1.539,103
0.1035,-1.275654E-05,1.5525,42,0.1035,5.035477E-06,1.5525,101
0.1044,-6.848249E-05,1.566,41,0.1044,2.484169E-05,1.566,102
0.1053,3.726253E-05,1.5795,41,0.1053,-6.009003E-05,1.5795,104
0.1062,0.0001245441,1.593,42,0.1062,-5.203327E-05,1.593,104
0.1071,-4.666209E-05,1.6065,41,0.1071,-9.063859E-06,1.6065,106
0.108,3.021286E-06,1.62,41,0.108,-1.779202E-05,1.62,101
0.1089,1.947051E-05,1.6335,41,0.1089,-1.242084E-05,1.6335,102
0.1098,4.666209E-05,1.647,42,0.1098,-1.040665E-05,1.647,101
0.1107,1.309224E-05,1.6605,42,0.1107,5.001907E-05,1.6605,102
0.1116,7.721065E-06,1.674,42,0.1116,5.606165E-05,1.674,102
0.1125,1.779202E-05,1.6875,43,0.1125,2.24918E-05,1.6875,101
0.1134,1.443504E-05,1.701,42,0.1134,-3.356985E-07,1.701,103
0.1143,-2.786297E-05,1.7145,42,0.1143,3.323415E-05,1.7145,106
0.1152,-7.721065E-06,1.728,42,0.1152,4.36408E-06,1.728,103
0.1161,4.834058E-05,1.7415,42,0.1161,-5.337606E-05,1.7415,102
0.117,-2.719158E-05,1.755,42,0.117,1.510643E-05,1.755,103
0.1179,-0.0001027237,1.7685,42,0.1179,1.678492E-06,1.7685,103
0.1188,-5.606165E-05,1.782,42,0.1188,-7.083238E-05,1.782,101
0.1197,-4.699779E-06,1.7955,41,0.1197,-6.009003E-05,1.7955,104
0.1206,-0.0001312581,1.809,42,0.1206,-3.121996E-05,1.809,105
0.1215,-0.0001164874,1.8225,41,0.1215,-6.78111E-05,1.8225,103
0.1224,-7.821774E-05,1.836,41,0.1224,-7.586786E-05,1.836,105
0.1233,-1.577783E-05,1.8495,41,0.1233,-8.996719E-05,1.8495,103
0.1242,-6.713969E-07,1.863,40,0.1242,-2.484169E-05,1.863,105
0.1251,-4.49836E-05,1.8765,40,0.1251,1.846342E-05,1.8765,101
0.126,-3.021286E-06,1.89,41,0.126,-1.577783E-05,1.89,104
0.1269,3.692683E-05,1.9035,41,0.1269,-1.947051E-05,1.9035,105
0.1278,-7.049668E-05,1.917,41,0.1278,1.913481E-05,1.917,104
0.1287,-7.049668E-06,1.9305,39,0.1287,0,1.9305,105
0.1296,3.860533E-05,1.944,42,0.1296,-5.069047E-05,1.944,104
0.1305,-4.666209E-05,1.9575,40,0.1305,9.735256E-06,1.9575,104
0.1314,-1.107805E-05,1.971,40,0.1314,9.063859E-06,1.971,105
0.1323,3.457694E-05,1.9845,40,0.1323,-7.016098E-05,1.9845,106
0.1332,-0.0001030594,1.998,40,0.1332,-3.826963E-05,1.998,103
0.1341,-0.0001047379,2.0115,41,0.1341,2.685588E-06,2.0115,107
0.135,1.007095E-06,2.025,41,0.135,-5.706874E-06,2.025,101
0.1359,-4.901198E-05,2.0385,40,0.1359,-9.063859E-06,2.0385,103
0.1368,1.208515E-05,2.052,40,0.1368,-3.927672E-05,2.052,103
0.1377,6.61326E-05,2.0655,40,0.1377,-2.887007E-05,2.0655,103
0.1386,-4.766919E-05,2.079,39,0.1386,-4.196231E-05,2.079,103
0.1395,-3.558404E-05,2.0925,40,0.1395,-5.136187E-05,2.0925,103
0.1404,7.452507E-05,2.106,40,0.1404,-3.054856E-05,2.106,104
0.1413,-2.719158E-05,2.1195,40,0.1413,1.376364E-05,2.1195,104
0.1422,-4.867628E-05,2.133,40,0.1422,-3.356985E-07,2.133,103
0.1431,7.586786E-05,2.1465,40,0.1431,-2.21561E-05,2.1465,102
0.144,-3.189136E-05,2.16,40,0.144,4.934768E-05,2.16,104
0.1449,3.457694E-05,2.1735,40,0.1449,6.210422E-05,2.1735,99
0.1458,7.821774E-05,2.187,40,0.1458,1.510643E-05,2.187,101
0.1467,2.517739E-05,2.2005,41,0.1467,5.001907E-05,2.2005,104
0.1476,-7.486076E-05,2.214,39,0.1476,7.016098E-05,2.214,103
0.1485,-4.33051E-05,2.2275,39,0.1485,4.43122E-05,2.2275,103
0.1494,4.028382E-06,2.241,39,0.1494,2.786297E-05,2.241,104
0.1503,3.189136E-05,2.2545,39,0.1503,3.021286E-06,2.2545,102
0.1512,9.399558E-06,2.268,40,0.1512,2.450599E-05,2.268,104
0.1521,3.994812E-05,2.2815,40,0.1521,2.584878E-05,2.2815,105
0.153,3.591974E-05,2.295,39,0.153,-1.107805E-05,2.295,108
0.1539,6.915389E-05,2.3085,40,0.1539,-4.53193E-05,2.3085,105
0.1548,3.189136E-05,2.322,39,0.1548,3.356985E-07,2.322,101
0.1557,-2.18204E-05,2.3355,39,0.1557,-1.812772E-05,2.3355,103
0.1566,8.493171E-05,2.349,39,0.1566,-8.661021E-05,2.349,101
0.1575,-4.36408E-06,2.3625,39,0.1575,-2.887007E-05,2.3625,104
0.1584,4.028382E-06,2.376,38,0.1584,-3.289845E-05,2.376,104
0.1593,6.143282E-05,2.3895,39,0.1593,-9.634547E-05,2.3895,104
0.1602,1.644922E-05,2.403,40,0.1602,-4.061952E-05,2.403,103
0.1611,-4.33051E-05,2.4165,38,0.1611,-1.174945E-05,2.4165,102
0.162,-3.659113E-05,2.43,40,0.162,-2.349889E-05,2.43,108
0.1629,-2.517739E-05,2.4435,40,0.1629,-5.706874E-06,2.4435,104
0.1638,7.418937E-05,2.457,40,0.1638,-3.994812E-05,2.457,101
0.1647,-3.524834E-05,2.4705,39,0.1647,9.399558E-06,2.4705,105
0.1656,-0.0001456931,2.484,38,0.1656,-2.349889E-06,2.484,102
0.1665,-6.378271E-06,2.4975,39,0.1665,-2.517739E-05,2.4975,100
0.1674,1.510643E-05,2.511,40,0.1674,-2.786297E-05,2.511,103
0.1683,-0.0001017166,2.5245,40,0.1683,2.349889E-06,2.5245,103
0.1692,-5.706874E-05,2.538,39,0.1692,-1.812772E-05,2.538,103
0.1701,8.82887E-05,2.5515,40,0.1701,-4.934768E-05,2.5515,100
0.171,-6.277562E-05,2.565,39,0.171,1.745632E-05,2.565,103
0.1719,-2.14847E-05,2.5785,39,0.1719,2.349889E-05,2.5785,101
0.1728,8.69459E-05,2.592,40,0.1728,-1.779202E-05,2.592,101
0.1737,8.023193E-05,2.6055,40,0.1737,-1.342794E-05,2.6055,102
0.1746,-4.36408E-06,2.619,39,0.1746,1.947051E-05,2.619,100
0.1755,4.901198E-05,2.6325,39,0.1755,-1.007095E-05,2.6325,103
0.1764,5.035477E-06,2.646,41,0.1764,-2.517739E-05,2.646,102
0.1773,3.390555E-05,2.6595,41,0.1773,-7.116808E-05,2.6595,100
0.1782,6.378271E-06,2.673,40,0.1782,-4.129091E-05,2.673,100
0.1791,-0.0001252155,2.6865,41,0.1791,-1.007095E-05,2.6865,100
0.18,-7.284657E-05,2.7,41,0.18,-3.826963E-05,2.7,100
0.1809,6.713969E-06,2.7135,40,0.1809,-5.471885E-05,2.7135,101
0.1818,-3.524834E-05,2.727,39,0.1818,2.081331E-05,2.727,102
0.1827,-8.090334E-05,2.7405,40,0.1827,1.745632E-05,2.7405,106
0.1836,7.083238E-05,2.754,40,0.1836,-5.136187E-05,2.754,103
0.1845,1.846342E-05,2.7675,39,0.1845,1.443504E-05,2.7675,103
0.1854,2.920577E-05,2.781,40,0.1854,-2.28275E-05,2.781,102
0.1863,5.606165E-05,2.7945,40,0.1863,-8.023193E-05,2.7945,104
0.1872,2.383459E-05,2.808,39,0.1872,-3.491264E-05,2.808,101
0.1881,-7.351797E-05,2.8215,40,0.1881,-3.591974E-05,2.8215,103
0.189,-2.920577E-05,2.835,40,0.189,-7.183947E-05,2.835,103
0.1899,4.061952E-05,2.8485,40,0.1899,-6.6804E-05,2.8485,103
0.1908,1.577783E-05,2.862,40,0.1908,-9.365987E-05,2.862,104
0.1917,-2.24918E-05,2.8755,40,0.1917,-5.673304E-05,2.8755,106
0.1926,-7.418937E-05,2.889,41,0.1926,-6.948959E-05,2.889,104
0.1935,4.36408E-06,2.9025,40,0.1935,-8.69459E-05,2.9025,102
0.1944,1.678492E-06,2.916,41,0.1944,-7.553216E-05,2.916,100
0.1953,-9.164568E-05,2.9295,42,0.1953,-1.779202E-05,2.9295,103
0.1962,-5.035477E-05,2.943,41,0.1962,-1.779202E-05,2.943,100
0.1971,4.36408E-06,2.9565,41,0.1971,-7.318227E-05,2.9565,100
0.198,-7.821774E-05,2.97,41,0.198,-2.450599E-05,2.97,101
0.1989,-3.256275E-05,2.9835,40,0.1989,-4.028382E-06,2.9835,102
0.1998,-1.242084E-05,2.997,0,0.1998,-5.874724E-05,2.997,0
0.2007,-2.24918E-05,3.0105,0,0.2007,-4.196231E-05,3.0105,0
0.2016,-2.24918E-05,3.024,0,0.2016,-1.644922E-05,3.024,0
0.2025,-3.323415E-05,3.0375,0,0.2025,-4.229801E-05,3.0375,0
0.2034,-9.063859E-06,3.051,0,0.2034,-3.793393E-05,3.051,0
0.2043,7.217517E-05,3.0645,0,0.2043,-5.069047E-05,3.0645,0
0.2052,7.721065E-06,3.078,0,0.2052,-9.735256E-06,3.078,0
0.2061,-0.0001520714,3.0915,0,0.2061,6.042573E-06,3.0915,0
0.207,-5.236896E-05,3.105,0,0.207,-2.28275E-05,3.105,0
0.2079,2.853437E-05,3.1185,0,0.2079,-1.678492E-05,3.1185,0
0.2088,-0.0001104448,3.132,0,0.2088,4.196231E-05,3.132,0
0.2097,-5.874724E-05,3.1455,0,0.2097,4.36408E-06,3.1455,0
0.2106,0.0001003738,3.159,0,0.2106,-2.349889E-05,3.159,0
0.2115,-6.378271E-06,3.1725,0,0.2115,3.356985E-05,3.1725,0
0.2124,5.975433E-05,3.186,0,0.2124,2.28275E-05,3.186,0
0.2133,0.0001393149,3.1995,0,0.2133,-2.752728E-05,3.1995,0
0.2142,6.344701E-05,3.213,0,0.2142,2.18204E-05,3.213,0
0.2151,-3.356985E-07,3.2265,0,0.2151,4.061952E-05,3.2265,0
0.216,9.735256E-06,3.24,0,0.216,1.443504E-05,3.24,0
0.2169,3.994812E-05,3.2535,0,0.2169,-5.035477E-06,3.2535,0
0.2178,4.36408E-05,3.267,0,0.2178,-3.659113E-05,3.267,0
0.2187,3.323415E-05,3.2805,0,0.2187,3.021286E-06,3.2805,0
0.2196,-2.987716E-05,3.294,0,0.2196,-6.378271E-06,3.294,0
0.2205,1.846342E-05,3.3075,0,0.2205,-2.887007E-05,3.3075,0
0.2214,9.869535E-05,3.321,0,0.2214,-5.169757E-05,3.321,0
0.2223,-3.256275E-05,3.3345,0,0.2223,2.24918E-05,3.3345,0
0.2232,-5.035477E-05,3.348,0,0.2232,2.920577E-05,3.348,0
0.2241,7.687495E-05,3.3615,0,0.2241,2.349889E-06,3.3615,0
0.225,-1.812772E-05,3.375,0,0.225,5.236896E-05,3.375,0
0.2259,-0.0001322652,3.3885,0,0.2259,4.666209E-05,3.3885,0
0.2268,-4.666209E-05,3.402,0,0.2268,7.721065E-06,3.402,0
0.2277,9.063859E-06,3.4155,0,0.2277,5.035477E-06,3.4155,0
0.2286,-4.800488E-05,3.429,0,0.2286,-6.713969E-07,3.429,0
0.2295,-6.009003E-05,3.4425,0,0.2295,-5.304036E-05,3.4425,0
0.2304,-3.726253E-05,3.456,0,0.2304,-7.016098E-05,3.456,0
0.2313,5.035477E-06,3.4695,0,0.2313,-0.0001087663,3.4695,0
0.2322,-4.934768E-05,3.483,0,0.2322,-7.351797E-05,3.483,0
0.2331,-0.0001430075,3.4965,0,0.2331,-6.848249E-05,3.4965,0
0.234,-6.076142E-05,3.51,0,0.234,-0.0001007095,3.51,0
0.2349,-3.390555E-05,3.5235,0,0.2349,-9.097429E-05,3.5235,0
0.2358,-8.358892E-05,3.537,0,0.2358,-2.584878E-05,3.537,0
0.2367,-1.678492E-06,3.5505,0,0.2367,-1.510643E-05,3.5505,0
0.2376,1.980621E-05,3.564,0,0.2376,-5.136187E-05,3.564,0
0.2385,-5.069047E-05,3.5775,0,0.2385,1.141375E-05,3.5775,0
0.2394,-1.544213E-05,3.591,0,0.2394,3.894102E-05,3.591,0
0.2403,3.457694E-05,3.6045,0,0.2403,3.356985E-07,3.6045,0
0.2412,9.600977E-05,3.618,0,0.2412,1.947051E-05,3.618,0
0.2421,-1.040665E-05,3.6315,0,0.2421,6.143282E-05,3.6315,0
0.243,1.779202E-05,3.645,0,0.243,4.599069E-05,3.645,0
0.2439,-2.047761E-05,3.6585,0,0.2439,5.337606E-05,3.6585,0
0.2448,3.625543E-05,3.672,0,0.2448,2.719158E-05,3.672,0
0.2457,5.203327E-05,3.6855,0,0.2457,4.263371E-05,3.6855,0
0.2466,-7.049668E-05,3.699,0,0.2466,5.337606E-05,3.699,0
0.2475,-4.028382E-06,3.7125,0,0.2475,6.713969E-07,3.7125,0
0.2484,7.452507E-05,3.726,0,0.2484,-9.735256E-06,3.726,0
0.2493,-4.733349E-05,3.7395,0,0.2493,1.242084E-05,3.7395,0
0.2502,-2.450599E-05,3.753,0,0.2502,-1.980621E-05,3.753,0
0.2511,8.224613E-05,3.7665,0,0.2511,-7.016098E-05,3.7665,0
0.252,-5.035477E-05,3.78,0,0.252,-1.242084E-05,3.78,0
0.2529,-0.0001117876,3.7935,0,0.2529,-3.961242E-05,3.7935,0
0.2538,-4.599069E-05,3.807,0,0.2538,-9.936675E-05,3.807,0
0.2547,2.517739E-05,3.8205,0,0.2547,-6.54612E-05,3.8205,0
0.2556,-0.0001111162,3.834,0,0.2556,-3.424125E-05,3.834,0
0.2565,-5.606165E-05,3.8475,0,0.2565,-4.162661E-05,3.8475,0
0.2574,3.021286E-06,3.861,0,0.2574,-7.989624E-05,3.861,0
0.2583,1.980621E-05,3.8745,0,0.2583,-8.392462E-05,3.8745,0
0.2592,1.275654E-05,3.888,0,0.2592,-1.174945E-05,3.888,0
0.2601,4.129091E-05,3.9015,0,0.2601,1.107805E-05,3.9015,0
0.261,2.652018E-05,3.915,0,0.261,-2.484169E-05,3.915,0
0.2619,6.411841E-05,3.9285,0,0.2619,-2.954147E-05,3.9285,0
0.2628,1.510643E-05,3.942,0,0.2628,2.18204E-05,3.942,0
0.2637,-2.853437E-05,3.9555,0,0.2637,-4.36408E-06,3.9555,0
0.2646,8.358892E-05,3.969,0,0.2646,-7.385367E-05,3.969,0
0.2655,9.735256E-06,3.9825,0,0.2655,-2.719158E-05,3.9825,0
0.2664,-1.846342E-05,3.996,0,0.2664,-3.558404E-05,3.996,0
0.2673,7.721065E-06,4.0095,0,0.2673,-9.097429E-05,4.0095,0
0.2682,5.706874E-05,4.023,0,0.2682,-7.821774E-05,4.023,0
0.2691,-4.901198E-05,4.0365,0,0.2691,-3.894102E-05,4.0365,0
0.27,-2.584878E-05,4.05,0,0.27,-3.826963E-05,4.05,0
0.2709,3.021286E-06,4.0635,0,0.2709,-3.625543E-05,4.0635,0
0.2718,7.083238E-05,4.077,0,0.2718,-6.51255E-05,4.077,0
0.2727,-1.913481E-05,4.0905,0,0.2727,-2.28275E-05,4.0905,0
0.2736,-4.666209E-05,4.104,0,0.2736,-3.256275E-05,4.104,0
0.2745,7.620356E-05,4.1175,0,0.2745,-7.721065E-05,4.1175,0
0.2754,3.994812E-05,4.131,0,0.2754,-6.277562E-05,4.131,0
0.2763,-5.169757E-05,4.1445,0,0.2763,-1.107805E-05,4.1445,0
0.2772,1.040665E-05,4.158,0,0.2772,-3.424125E-05,4.158,0
0.2781,7.821774E-05,4.1715,0,0.2781,-7.721065E-05,4.1715,0
0.279,-6.478981E-05,4.185,0,0.279,-7.385367E-06,4.185,0
0.2799,-9.768826E-05,4.1985,0,0.2799,-9.735256E-06,4.1985,0
0.2808,-1.644922E-05,4.212,0,0.2808,-3.457694E-05,4.212,0
0.2817,-8.358892E-05,4.2255,0,0.2817,1.644922E-05,4.2255,0
0.2826,-0.0001487144,4.239,0,0.2826,4.733349E-05,4.239,0
0.2835,-4.53193E-05,4.2525,0,0.2835,3.894102E-05,4.2525,0
0.2844,-5.069047E-05,4.266,0,0.2844,4.53193E-05,4.266,0
0.2853,6.378271E-06,4.2795,0,0.2853,2.853437E-05,4.2795,0
0.2862,5.035477E-06,4.293,0,0.2862,6.143282E-05,4.293,0
0.2871,-1.712062E-05,4.3065,0,0.2871,3.894102E-05,4.3065,0
0.288,-2.014191E-05,4.32,0,0.288,-3.021286E-06,4.32,0
0.2889,4.867628E-05,4.3335,0,0.2889,-2.853437E-05,4.3335,0
0.2898,-7.721065E-06,4.347,0,0.2898,2.383459E-05,4.347,0
0.2907,-3.692683E-05,4.3605,0,0.2907,-6.713969E-07,4.3605,0
0.2916,8.82887E-05,4.374,0,0.2916,-4.196231E-05,4.374,0
0.2925,3.524834E-05,4.3875,0,0.2925,3.323415E-05,4.3875,0
0.2934,-5.941863E-05,4.401,0,0.2934,2.081331E-05,4.401,0
0.2943,3.692683E-06,4.4145,0,0.2943,-2.18204E-05,4.4145,0
0.2952,2.517739E-05,4.428,0,0.2952,2.987716E-05,4.428,0
0.2961,-6.814679E-05,4.4415,0,0.2961,4.46479E-05,4.4415,0
0.297,-1.510643E-05,4.455,0,0.297,1.678492E-05,4.455,0
0.2979,2.081331E-05,4.4685,0,0.2979,-3.021286E-06,4.4685,0
0.2988,1.812772E-05,4.482,0,0.2988,-4.33051E-05,4.482,0
0.2997,5.975433E-05,4.4955,0,0.2997,-2.1149E-05,4.4955,0
0.3006,6.814679E-05,4.509,0,0.3006,-3.659113E-05,4.509,0
0.3015,0.0001087663,4.5225,0,0.3015,-6.74754E-05,4.5225,0
0.3024,9.433127E-05,4.536,0,0.3024,-7.418937E-05,4.536,0
0.3033,1.007095E-05,4.5495,0,0.3033,-4.129091E-05,4.5495,0
0.3042,1.577783E-05,4.563,0,0.3042,-4.129091E-05,4.563,0
0.3051,8.291753E-05,4.5765,0,0.3051,-9.097429E-05,4.5765,0
0.306,-1.107805E-05,4.59,0,0.306,-4.162661E-05,4.59,0
0.3069,-2.316319E-05,4.6035,0,0.3069,-4.36408E-05,4.6035,0
0.3078,-2.24918E-05,4.617,0,0.3078,-8.258183E-05,4.617,0
0.3087,-9.466698E-05,4.6305,0,0.3087,-4.599069E-05,4.6305,0
0.3096,-7.586786E-05,4.644,0,0.3096,-2.652018E-05,4.644,0
0.3105,-8.090334E-05,4.6575,0,0.3105,-3.860533E-05,4.6575,0
0.3114,-3.591974E-05,4.671,0,0.3114,-3.625543E-05,4.671,0
0.3123,7.418937E-05,4.6845,0,0.3123,-8.258183E-05,4.6845,0
0.3132,2.584878E-05,4.698,0,0.3132,-5.706874E-05,4.698,0
0.3141,-8.090334E-05,4.7115,0,0.3141,-4.599069E-05,4.7115,0
0.315,-9.735256E-06,4.725,0,0.315,-6.143282E-05,4.725,0
0.3159,3.726253E-05,4.7385,0,0.3159,-7.284657E-05,4.7385,0
0.3168,-0.0001047379,4.752,0,0.3168,-9.735256E-06,4.752,0
0.3177,-6.948959E-05,4.7655,0,0.3177,-4.733349E-05,4.7655,0
0.3186,8.023193E-05,4.779,0,0.3186,-7.016098E-05,4.779,0
0.3195,-3.625543E-05,4.7925,0,0.3195,1.409934E-05,4.7925,0
0.3204,4.196231E-05,4.806,0,0.3204,2.383459E-05,4.806,0
0.3213,9.298848E-05,4.8195,0,0.3213,-2.853437E-05,4.8195,0
0.3222,-4.968337E-05,4.833,0,0.3222,-3.692683E-06,4.833,0
0.3231,-8.627451E-05,4.8465,0,0.3231,4.263371E-05,4.8465,0
0.324,-5.706874E-06,4.86,0,0.324,1.980621E-05,4.86,0
0.3249,1.174945E-05,4.8735,0,0.3249,1.443504E-05,4.8735,0
0.3258,-5.035477E-06,4.887,0,0.3258,2.685588E-06,4.887,0
0.3267,4.162661E-05,4.9005,0,0.3267,4.867628E-05,4.9005,0
0.3276,2.081331E-05,4.914,0,0.3276,4.599069E-05,4.914,0
0.3285,1.678492E-06,4.9275,0,0.3285,6.713969E-07,4.9275,0
0.3294,7.620356E-05,4.941,0,0.3294,-1.409934E-05,4.941,0
0.3303,-7.385367E-06,4.9545,0,0.3303,2.24918E-05,4.9545,0
0.3312,6.378271E-06,4.968,0,0.3312,-1.342794E-05,4.968,0
0.3321,0.0001352865,4.9815,0,0.3321,-6.109713E-05,4.9815,0
0.333,7.049668E-06,4.995,0,0.333,0,4.995,0
0.3339,-4.36408E-06,5.0085,0,0.3339,-1.107805E-05,5.0085,0
0.3348,4.46479E-05,5.022,0,0.3348,-7.452507E-05,5.022,0
0.3357,1.309224E-05,5.0355,0,0.3357,-3.692683E-05,5.0355,0
0.3366,-3.390555E-05,5.049,0,0.3366,-2.450599E-05,5.049,0
0.3375,-2.24918E-05,5.0625,0,0.3375,-4.061952E-05,5.0625,0
0.3384,3.323415E-05,5.076,0,0.3384,-3.793393E-05,5.076,0
0.3393,4.49836E-05,5.0895,0,0.3393,-6.74754E-05,5.0895,0
0.3402,4.733349E-05,5.103,0,0.3402,-1.007095E-06,5.103,0
0.3411,7.486076E-05,5.1165,0,0.3411,1.309224E-05,5.1165,0
0.342,3.356985E-05,5.13,0,0.342,-2.752728E-05,5.13,0
0.3429,1.309224E-05,5.1435,0,0.3429,-3.726253E-05,5.1435,0
0.3438,-7.553216E-05,5.157,0,0.3438,2.450599E-05,5.157,0
0.3447,-5.136187E-05,5.1705,0,0.3447,1.040665E-05,5.1705,0
0.3456,-2.786297E-05,5.184,0,0.3456,-3.054856E-05,5.184,0
0.3465,-0.000102388,5.1975,0,0.3465,4.53193E-05,5.1975,0
0.3474,-0.0001017166,5.211,0,0.3474,4.733349E-05,5.211,0
0.3483,-9.533837E-05,5.2245,0,0.3483,-8.728161E-06,5.2245,0
0.3492,-1.846342E-05,5.238,0,0.3492,1.644922E-05,5.238,0
0.3501,-7.150377E-05,5.2515,0,0.3501,5.169757E-05,5.2515,0
0.351,-9.164568E-05,5.265,0,0.351,3.659113E-05,5.265,0
0.3519,-9.835965E-05,5.2785,0,0.3519,3.860533E-05,5.2785,0
0.3528,-4.061952E-05,5.292,0,0.3528,3.692683E-06,5.292,0
0.3537,-5.203327E-05,5.3055,0,0.3537,2.551309E-05,5.3055,0
0.3546,-0.0001352865,5.319,0,0.3546,4.800488E-05,5.319,0
0.3555,-5.975433E-05,5.3325,0,0.3555,1.174945E-05,5.3325,0
0.3564,9.399558E-06,5.346,0,0.3564,-6.378271E-06,5.346,0
0.3573,-6.881819E-05,5.3595,0,0.3573,2.786297E-05,5.3595,0
0.3582,-5.203327E-05,5.373,0,0.3582,-2.349889E-06,5.373,0
0.3591,8.526741E-05,5.3865,0,0.3591,-6.076142E-05,5.3865,0
0.36,-3.088426E-05,5.4,0,0.36,-1.913481E-05,5.4,0
0.3609,-6.378271E-05,5.4135,0,0.3609,-3.793393E-05,5.4135,0
0.3618,3.189136E-05,5.427,0,0.3618,-9.298848E-05,5.427,0
0.3627,-7.217517E-05,5.4405,0,0.3627,-5.001907E-05,5.4405,0
0.3636,-0.0001134661,5.454,0,0.3636,-4.733349E-05,5.454,0
0.3645,-1.174945E-05,5.4675,0,0.3645,-5.606165E-05,5.4675,0
0.3654,-5.673304E-05,5.481,0,0.3654,-8.392462E-05,5.481,0
0.3663,1.846342E-05,5.4945,0,0.3663,-0.0001077592,5.4945,0
0.3672,9.097429E-05,5.508,0,0.3672,-9.903105E-05,5.508,0
0.3681,5.639734E-05,5.5215,0,0.3681,-9.701686E-05,5.5215,0
0.369,3.189136E-05,5.535,0,0.369,-0.0001258869,5.535,0
0.3699,7.217517E-05,5.5485,0,0.3699,-0.000115816,5.5485,0
0.3708,-3.356985E-07,5.562,0,0.3708,-4.733349E-05,5.562,0
0.3717,1.040665E-05,5.5755,0,0.3717,-5.639734E-05,5.5755,0
0.3726,5.471885E-05,5.589,0,0.3726,-0.0001047379,5.589,0
0.3735,-1.913481E-05,5.6025,0,0.3735,-3.793393E-05,5.6025,0
0.3744,-3.054856E-05,5.616,0,0.3744,7.721065E-06,5.616,0
0.3753,2.752728E-05,5.6295,0,0.3753,-1.779202E-05,5.6295,0
0.3762,-3.021286E-06,5.643,0,0.3762,1.040665E-05,5.643,0
0.3771,-7.956054E-05,5.6565,0,0.3771,1.174945E-05,5.6565,0
0.378,-5.337606E-05,5.67,0,0.378,1.007095E-06,5.67,0
0.3789,-4.699779E-06,5.6835,0,0.3789,5.035477E-06,5.6835,0
0.3798,5.706874E-06,5.697,0,0.3798,-1.745632E-05,5.697,0
0.3807,-3.524834E-05,5.7105,0,0.3807,2.18204E-05,5.7105,0
0.3816,-1.107805E-05,5.724,0,0.3816,4.699779E-06,5.724,0
0.3825,4.36408E-06,5.7375,0,0.3825,-2.047761E-05,5.7375,0
0.3834,6.009003E-05,5.751,0,0.3834,8.392462E-06,5.751,0
0.3843,-3.591974E-05,5.7645,0,0.3843,6.948959E-05,5.7645,0
0.3852,3.726253E-05,5.778,0,0.3852,5.539025E-05,5.778,0
0.3861,7.721065E-05,5.7915,0,0.3861,3.356985E-07,5.7915,0
0.387,-4.196231E-05,5.805,0,0.387,6.61326E-05,5.805,0
0.3879,-2.450599E-05,5.8185,0,0.3879,7.351797E-05,5.8185,0
0.3888,2.920577E-05,5.832,0,0.3888,1.107805E-05,5.832,0
0.3897,-9.802396E-05,5.8455,0,0.3897,4.36408E-05,5.8455,0
0.3906,-0.0001080949,5.859,0,0.3906,7.049668E-05,5.859,0
0.3915,-2.920577E-05,5.8725,0,0.3915,4.36408E-05,5.8725,0
0.3924,-5.203327E-05,5.886,0,0.3924,3.491264E-05,5.886,0
0.3933,2.652018E-05,5.8995,0,0.3933,-1.947051E-05,5.8995,0
0.3942,5.874724E-05,5.913,0,0.3942,-5.371176E-06,5.913,0
0.3951,6.344701E-05,5.9265,0,0.3951,-4.699779E-06,5.9265,0
0.396,7.553216E-05,5.94,0,0.396,-4.263371E-05,5.94,0
0.3969,0.0001299153,5.9535,0,0.3969,-3.323415E-05,5.9535,0
0.3978,6.378271E-06,5.967,0,0.3978,2.584878E-05,5.967,0
0.3987,-2.383459E-05,5.9805,0,0.3987,1.342794E-05,5.9805,0
0.3996,0.000109102,5.994,0,0.3996,-3.524834E-05,5.994,0
0.4005,2.584878E-05,6.0075,0,0.4005,2.349889E-05,6.0075,0
0.4014,-4.43122E-05,6.021,0,0.4014,1.980621E-05,6.021,0
0.4023,5.136187E-05,6.0345,0,0.4023,-4.766919E-05,6.0345,0
0.4032,-4.263371E-05,6.048,0,0.4032,-2.887007E-05,6.048,0
0.4041,-9.030289E-05,6.0615,0,0.4041,2.1149E-05,6.0615,0
0.405,-7.049668E-06,6.075,0,0.405,2.014191E-06,6.075,0
0.4059,-1.644922E-05,6.0885,0,0.4059,-1.577783E-05,6.0885,0
0.4068,-2.18204E-05,6.102,0,0.4068,-3.659113E-05,6.102,0
0.4077,-7.049668E-06,6.1155,0,0.4077,-5.706874E-06,6.1155,0
0.4086,-7.049668E-05,6.129,0,0.4086,1.007095E-05,6.129,0
0.4095,-3.289845E-05,6.1425,0,0.4095,-3.793393E-05,6.1425,0
0.4104,2.349889E-06,6.156,0,0.4104,-4.229801E-05,6.156,0
0.4113,-4.800488E-05,6.1695,0,0.4113,5.706874E-06,6.1695,0
0.4122,-2.987716E-05,6.183,0,0.4122,-1.477073E-05,6.183,0
0.4131,7.821774E-05,6.1965,0,0.4131,-7.318227E-05,6.1965,0
0.414,3.088426E-05,6.21,0,0.414,-7.721065E-06,6.21,0
0.4149,1.174945E-05,6.2235,0,0.4149,-3.591974E-05,6.2235,0
0.4158,3.591974E-05,6.237,0,0.4158,-9.634547E-05,6.237,0
0.4167,9.231708E-05,6.2505,0,0.4167,-3.121996E-05,6.2505,0
0.4176,-3.692683E-06,6.264,0,0.4176,-1.510643E-05,6.264,0
0.4185,-4.028382E-05,6.2775,0,0.4185,-1.107805E-05,6.2775,0
0.4194,1.208515E-05,6.291,0,0.4194,-1.141375E-05,6.291,0
0.4203,0.000115816,6.3045,0,0.4203,-5.606165E-05,6.3045,0
0.4212,-8.392462E-06,6.318,0,0.4212,-3.054856E-05,6.318,0
0.4221,-3.961242E-05,6.3315,0,0.4221,-6.378271E-06,6.3315,0
0.423,5.035477E-05,6.345,0,0.423,-5.639734E-05,6.345,0
0.4239,1.846342E-05,6.3585,0,0.4239,-7.351797E-05,6.3585,0
0.4248,-9.164568E-05,6.372,0,0.4248,-5.236896E-05,6.372,0
0.4257,-4.766919E-05,6.3855,0,0.4257,-9.533837E-05,6.3855,0
0.4266,5.572595E-05,6.399,0,0.4266,-0.0001255512,6.399,0
0.4275,-7.385367E-05,6.4125,0,0.4275,-5.606165E-05,6.4125,0
0.4284,-8.761731E-05,6.426,0,0.4284,-5.471885E-05,6.426,0
0.4293,-4.934768E-05,6.4395,0,0.4293,-0.000112459,6.4395,0
0.4302,-4.196231E-05,6.453,0,0.4302,-6.478981E-05,6.453,0
0.4311,-9.433127E-05,6.4665,0,0.4311,-3.491264E-05,6.4665,0
0.432,4.36408E-06,6.48,0,0.432,-8.023193E-05,6.48,0
0.4329,-1.342794E-06,6.4935,0,0.4329,-0.0001050736,6.4935,0
0.4338,2.1149E-05,6.507,0,0.4338,-0.0001117876,6.507,0
0.4347,4.46479E-05,6.5205,0,0.4347,-5.169757E-05,6.5205,0
0.4356,-3.524834E-05,6.534,0,0.4356,-4.162661E-05,6.534,0
0.4365,-3.524834E-05,6.5475,0,0.4365,-5.606165E-05,6.5475,0
0.4374,4.599069E-05,6.561,0,0.4374,-7.553216E-05,6.561,0
0.4383,-6.54612E-05,6.5745,0,0.4383,-3.356985E-06,6.5745,0
0.4392,-3.088426E-05,6.588,0,0.4392,0,6.588,0
0.4401,0.0001272297,6.6015,0,0.4401,-3.289845E-05,6.6015,0
0.441,-1.376364E-05,6.615,0,0.441,1.980621E-05,6.615,0
0.4419,1.309224E-05,6.6285,0,0.4419,2.383459E-05,6.6285,0
0.4428,8.157473E-05,6.642,0,0.4428,-9.063859E-06,6.642,0
0.4437,3.726253E-05,6.6555,0,0.4437,1.678492E-06,6.6555,0
0.4446,-5.169757E-05,6.669,0,0.4446,3.155566E-05,6.669,0
0.4455,-5.236896E-05,6.6825,0,0.4455,3.524834E-05,6.6825,0
0.4464,-4.36408E-06,6.696,0,0.4464,2.719158E-05,6.696,0
0.4473,2.28275E-05,6.7095,0,0.4473,-1.376364E-05,6.7095,0
0.4482,-2.618448E-05,6.723,0,0.4482,3.994812E-05,6.723,0
0.4491,-9.533837E-05,6.7365,0,0.4491,2.551309E-05,6.7365,0
0.45,-8.224613E-05,6.75,0,0.45,-2.24918E-05,6.75,0
0.4509,-9.735256E-06,6.7635,0,0.4509,-2.28275E-05,6.7635,0
0.4518,-2.719158E-05,6.777,0,0.4518,2.21561E-05,6.777,0
0.4527,-2.450599E-05,6.7905,0,0.4527,1.678492E-06,6.7905,0
0.4536,5.203327E-05,6.804,0,0.4536,-5.169757E-05,6.804,0
0.4545,-7.049668E-06,6.8175,0,0.4545,1.577783E-05,6.8175,0
0.4554,4.934768E-05,6.831,0,0.4554,3.994812E-05,6.831,0
0.4563,3.121996E-05,6.8445,0,0.4563,-1.007095E-05,6.8445,0
0.4572,7.318227E-05,6.858,0,0.4572,1.174945E-05,6.858,0
0.4581,7.049668E-06,6.8715,0,0.4581,6.009003E-05,6.8715,0
0.459,-3.994812E-05,6.885,0,0.459,2.618448E-05,6.885,0
0.4599,-3.659113E-05,6.8985,0,0.4599,2.1149E-05,6.8985,0
0.4608,1.174945E-05,6.912,0,0.4608,-1.544213E-05,6.912,0
0.4617,-4.733349E-05,6.9255,0,0.4617,8.392462E-06,6.9255,0
0.4626,-0.000169192,6.939,0,0.4626,3.558404E-05,6.939,0
0.4635,-8.627451E-05,6.9525,0,0.4635,-1.040665E-05,6.9525,0
0.4644,-3.591974E-05,6.966,0,0.4644,-9.735256E-06,6.966,0
0.4653,-0.0001117876,6.9795,0,0.4653,7.049668E-06,6.9795,0
0.4662,-7.284657E-05,6.993,0,0.4662,-1.577783E-05,6.993,0
0.4671,0.0001003738,7.0065,0,0.4671,-5.270466E-05,7.0065,0
0.468,-7.049668E-05,7.02,0,0.468,-1.812772E-05,7.02,0
0.4689,-5.001907E-05,7.0335,0,0.4689,-4.934768E-05,7.0335,0
0.4698,7.821774E-05,7.047,0,0.4698,-0.0001010452,7.047,0
0.4707,9.634547E-05,7.0605,0,0.4707,-5.471885E-05,7.0605,0
0.4716,-5.404745E-05,7.074,0,0.4716,-1.980621E-05,7.074,0
0.4725,-2.853437E-05,7.0875,0,0.4725,-3.054856E-05,7.0875,0
0.4734,-2.18204E-05,7.101,0,0.4734,-3.021286E-05,7.101,0
0.4743,2.887007E-05,7.1145,0,0.4743,-3.054856E-05,7.1145,0
0.4752,5.807584E-05,7.128,0,0.4752,9.063859E-06,7.128,0
0.4761,-8.92958E-05,7.1415,0,0.4761,7.721065E-06,7.1415,0
0.477,-3.793393E-05,7.155,0,0.477,-2.28275E-05,7.155,0
0.4779,4.095522E-05,7.1685,0,0.4779,-2.652018E-05,7.1685,0
0.4788,-2.450599E-05,7.182,0,0.4788,3.860533E-05,7.182,0
0.4797,-2.450599E-05,7.1955,0,0.4797,5.035477E-06,7.1955,0
0.4806,6.243992E-05,7.209,0,0.4806,-4.800488E-05,7.209,0
0.4815,-2.24918E-05,7.2225,0,0.4815,1.745632E-05,7.2225,0
0.4824,-1.644922E-05,7.236,0,0.4824,3.793393E-05,7.236,0
0.4833,7.217517E-05,7.2495,0,0.4833,-1.980621E-05,7.2495,0
0.4842,0.0001467002,7.263,0,0.4842,-1.980621E-05,7.263,0
0.4851,-4.229801E-05,7.2765,0,0.4851,-3.356985E-06,7.2765,0
0.486,-4.36408E-06,7.29,0,0.486,-4.061952E-05,7.29,0
0.4869,6.78111E-05,7.3035,0,0.4869,-5.371176E-05,7.3035,0
0.4878,5.807584E-05,7.317,0,0.4878,-6.64683E-05,7.317,0
0.4887,-1.510643E-05,7.3305,0,0.4887,-1.107805E-05,7.3305,0
0.4896,-2.18204E-05,7.344,0,0.4896,-7.049668E-06,7.344,0
0.4905,4.39765E-05,7.3575,0,0.4905,-5.874724E-05,7.3575,0
0.4914,1.980621E-05,7.371,0,0.4914,-9.634547E-05,7.371,0
0.4923,-3.524834E-05,7.3845,0,0.4923,-5.539025E-05,7.3845,0
0.4932,1.242084E-05,7.398,0,0.4932,-7.083238E-05,7.398,0
0.4941,4.129091E-05,7.4115,0,0.4941,-0.000102388,7.4115,0
0.495,-2.584878E-05,7.425,0,0.495,-2.853437E-05,7.425,0
0.4959,-4.39765E-05,7.4385,0,0.4959,-1.913481E-05,7.4385,0
0.4968,-8.392462E-06,7.452,0,0.4968,-6.210422E-05,7.452,0
0.4977,-2.047761E-05,7.4655,0,0.4977,-3.189136E-05,7.4655,0
0.4986,-8.89601E-05,7.479,0,0.4986,2.819867E-05,7.479,0
0.4995,-5.337606E-05,7.4925,0,0.4995,-7.049668E-06,7.4925,0
0.5004,-1.678492E-06,7.506,0,0.5004,-3.021286E-06,7.506,0
0.5013,6.243992E-05,7.5195,0,0.5013,-5.001907E-05,7.5195,0
0.5022,9.164568E-05,7.533,0,0.5022,-1.107805E-05,7.533,0
0.5031,3.524834E-05,7.5465,0,0.5031,9.735256E-06,7.5465,0
0.504,6.411841E-05,7.56,0,0.504,-2.752728E-05,7.56,0
0.5049,8.69459E-05,7.5735,0,0.5049,-2.887007E-05,7.5735,0
0.5058,-2.1149E-05,7.587,0,0.5058,2.28275E-05,7.587,0
0.5067,1.544213E-05,7.6005,0,0.5067,2.349889E-06,7.6005,0
0.5076,9.198138E-05,7.614,0,0.5076,-3.256275E-05,7.614,0
0.5085,-5.270466E-05,7.6275,0,0.5085,4.196231E-05,7.6275,0
0.5094,-0.0001017166,7.641,0,0.5094,2.316319E-05,7.641,0
0.5103,6.378271E-06,7.6545,0,0.5103,-1.812772E-05,7.6545,0
0.5112,1.779202E-05,7.668,0,0.5112,2.24918E-05,7.668,0
0.5121,-6.948959E-05,7.6815,0,0.5121,5.404745E-05,7.6815,0
0.513,-2.719158E-05,7.695,0,0.513,3.457694E-05,7.695,0
0.5139,4.53193E-05,7.7085,0,0.5139,2.316319E-05,7.7085,0
0.5148,4.129091E-05,7.722,0,0.5148,3.692683E-06,7.722,0
0.5157,-4.061952E-05,7.7355,0,0.5157,4.599069E-05,7.7355,0
0.5166,-0.0001238727,7.749,0,0.5166,3.726253E-05,7.749,0
0.5175,-8.69459E-05,7.7625,0,0.5175,-8.728161E-06,7.7625,0
0.5184,-1.745632E-05,7.776,0,0.5184,-2.853437E-05,7.776,0
0.5193,-4.666209E-05,7.7895,0,0.5193,6.713969E-06,7.7895,0
0.5202,-7.855344E-05,7.803,0,0.5202,5.035477E-06,7.803,0
0.5211,5.606165E-05,7.8165,0,0.5211,-6.076142E-05,7.8165,0
0.522,2.18204E-05,7.83,0,0.522,-9.735256E-06,7.83,0
0.5229,-3.390555E-05,7.8435,0,0.5229,-1.611353E-05,7.8435,0
0.5238,2.24918E-05,7.857,0,0.5238,-8.358892E-05,7.857,0
0.5247,8.224613E-05,7.8705,0,0.5247,-7.653925E-05,7.8705,0
0.5256,-5.169757E-05,7.884,0,0.5256,-5.035477E-05,7.884,0
0.5265,-2.786297E-05,7.8975,0,0.5265,-7.888914E-05,7.8975,0
0.5274,-1.644922E-05,7.911,0,0.5274,-7.620356E-05,7.911,0
0.5283,4.39765E-05,7.9245,0,0.5283,-0.0001044022,7.9245,0
0.5292,-6.344701E-05,7.938,0,0.5292,-4.49836E-05,7.938,0
0.5301,-0.0001359579,7.9515,0,0.5301,-2.047761E-05,7.9515,0
0.531,-3.692683E-06,7.965,0,0.531,-5.639734E-05,7.965,0
0.5319,-1.477073E-05,7.9785,0,0.5319,-6.74754E-05,7.9785,0
0.5328,-0.0001010452,7.992,0,0.5328,-3.524834E-05,7.992,0
0.5337,-2.450599E-05,8.0055,0,0.5337,-5.404745E-05,8.0055,0
0.5346,5.136187E-05,8.019,0,0.5346,-8.459602E-05,8.019,0
0.5355,-5.807584E-05,8.0325,0,0.5355,-3.021286E-06,8.0325,0
0.5364,4.263371E-05,8.046,0,0.5364,1.577783E-05,8.046,0
0.5373,6.948959E-05,8.0595,0,0.5373,-4.33051E-05,8.0595,0
0.5382,-6.51255E-05,8.073,0,0.5382,-1.712062E-05,8.073,0
0.5391,-0.0001003738,8.0865,0,0.5391,3.088426E-05,8.0865,0
0.54,2.349889E-06,8.1,0,0.54,7.385367E-06,8.1,0
0.5409,-4.196231E-05,8.1135,0,0.5409,-1.342794E-06,8.1135,0
0.5418,9.735256E-06,8.127,0,0.5418,-1.712062E-05,8.127,0
0.5427,4.196231E-05,8.1405,0,0.5427,1.779202E-05,8.1405,0
0.5436,-3.121996E-05,8.154,0,0.5436,1.174945E-05,8.154,0
0.5445,-1.947051E-05,8.1675,0,0.5445,-2.28275E-05,8.1675,0
0.5454,6.277562E-05,8.181,0,0.5454,-2.752728E-05,8.181,0
0.5463,-4.263371E-05,8.1945,0,0.5463,2.1149E-05,8.1945,0
0.5472,-5.035477E-06,8.208,0,0.5472,-7.049668E-06,8.208,0
0.5481,0.0001295796,8.2215,0,0.5481,-3.155566E-05,8.2215,0
0.549,-3.222705E-05,8.235,0,0.549,3.457694E-05,8.235,0
0.5499,-3.356985E-06,8.2485,0,0.5499,1.846342E-05,8.2485,0
0.5508,4.39765E-05,8.262,0,0.5508,-4.632639E-05,8.262,0
0.5517,0.0001121233,8.2755,0,0.5517,-1.577783E-05,8.2755,0
0.5526,-2.21561E-05,8.289,0,0.5526,3.323415E-05,8.289,0
0.5535,-3.793393E-05,8.3025,0,0.5535,1.577783E-05,8.3025,0
0.5544,-1.510643E-05,8.316,0,0.5544,1.342794E-06,8.316,0
0.5553,1.040665E-05,8.3295,0,0.5553,-4.263371E-05,8.3295,0
0.5562,-2.21561E-05,8.343,0,0.5562,-1.309224E-05,8.343,0
0.5571,-1.309224E-05,8.3565,0,0.5571,-2.014191E-05,8.3565,0
0.558,-2.584878E-05,8.37,0,0.558,-5.136187E-05,8.37,0
0.5589,2.853437E-05,8.3835,0,0.5589,-4.766919E-05,8.3835,0
0.5598,7.049668E-06,8.397,0,0.5598,1.510643E-05,8.397,0
0.5607,-3.726253E-05,8.4105,0,0.5607,-3.524834E-05,8.4105,0
0.5616,3.155566E-05,8.424,0,0.5616,-8.493171E-05,8.424,0
0.5625,-2.383459E-05,8.4375,0,0.5625,-2.047761E-05,8.4375,0
0.5634,-8.426032E-05,8.451,0,0.5634,-2.014191E-06,8.451,0
0.5643,-6.982528E-05,8.4645,0,0.5643,-5.035477E-05,8.4645,0
0.5652,3.155566E-05,8.478,0,0.5652,-3.524834E-05,8.478,0
0.5661,-3.860533E-05,8.4915,0,0.5661,3.155566E-05,8.4915,0
0.567,-8.023193E-05,8.505,0,0.567,3.659113E-05,8.505,0
0.5679,-4.095522E-05,8.5185,0,0.5679,4.666209E-05,8.5185,0
0.5688,4.666209E-05,8.532,0,0.5688,1.644922E-05,8.532,0
0.5697,-4.699779E-06,8.5455,0,0.5697,7.553216E-05,8.5455,0
0.5706,-3.424125E-05,8.559,0,0.5706,9.701686E-05,8.559,0
0.5715,3.692683E-05,8.5725,0,0.5715,2.920577E-05,8.5725,0
0.5724,2.28275E-05,8.586,0,0.5724,9.735256E-06,8.586,0
0.5733,-7.553216E-05,8.5995,0,0.5733,4.229801E-05,8.5995,0
0.5742,-4.901198E-05,8.613,0,0.5742,1.644922E-05,8.613,0
0.5751,8.493171E-05,8.6265,0,0.5751,-3.659113E-05,8.6265,0
0.576,-6.344701E-05,8.64,0,0.576,-1.007095E-06,8.64,0
0.5769,-5.740444E-05,8.6535,0,0.5769,-3.189136E-05,8.6535,0
0.5778,6.109713E-05,8.667,0,0.5778,-8.72816E-05,8.667,0
0.5787,-5.304036E-05,8.6805,0,0.5787,-7.318227E-05,8.6805,0
0.5796,-9.936675E-05,8.694,0,0.5796,-7.418937E-05,8.694,0
0.5805,-3.826963E-05,8.7075,0,0.5805,-7.687495E-05,8.7075,0
0.5814,-2.853437E-05,8.721,0,0.5814,-7.956054E-05,8.721,0
0.5823,4.699779E-05,8.7345,0,0.5823,-8.86244E-05,8.7345,0
0.5832,9.231708E-05,8.748,0,0.5832,-4.733349E-05,8.748,0
0.5841,2.383459E-05,8.7615,0,0.5841,-5.706874E-05,8.7615,0
0.585,3.994812E-05,8.775,0,0.585,-0.0001285725,8.775,0
0.5859,6.277562E-05,8.7885,0,0.5859,-0.000133608,8.7885,0
0.5868,-9.735256E-06,8.802,0,0.5868,-8.89601E-05,8.802,0
0.5877,-3.390555E-05,8.8155,0,0.5877,-0.0001326009,8.8155,0
0.5886,6.411841E-05,8.829,0,0.5886,-0.0001883268,8.829,0
0.5895,-1.242084E-05,8.8425,0,0.5895,-0.0001275654,8.8425,0
0.5904,-9.164568E-05,8.856,0,0.5904,-0.0001292439,8.856,0
0.5913,-6.713969E-07,8.8695,0,0.5913,-0.0001628138,8.8695,0
0.5922,9.500267E-05,8.883,0,0.5922,-0.0001117876,8.883,0
0.5931,-9.701686E-05,8.8965,0,0.5931,-4.733349E-05,8.8965,0
0.594,-4.46479E-05,8.91,0,0.594,2.18204E-05,8.91,0
0.5949,4.934768E-05,8.9235,0,0.5949,0.0001497215,8.9235,0
0.5958,3.659113E-05,8.937,0,0.5958,0.0002299535,8.937,0
0.5967,2.349889E-06,8.9505,0,0.5967,0.000270573,8.9505,0
0.5976,2.349889E-06,8.964,0,0.5976,0.0002823224,8.964,0
0.5985,3.524834E-05,8.9775,0,0.5985,0.0002098116,8.9775,0
0.5994,4.129091E-05,8.991,0,0.5994,0.0001164874,8.991,0
0.6003,-3.021286E-05,9.0045,0,0.6003,0.0001087663,9.0045,0
0.6012,-2.887007E-05,9.018,0,0.6012,6.009003E-05,9.018,0
0.6021,9.735256E-06,9.0315,0,0.6021,-5.706874E-06,9.0315,0
0.603,-3.457694E-05,9.045,0,0.603,1.577783E-05,9.045,0
0.6039,-4.33051E-05,9.0585,0,0.6039,-2.349889E-06,9.0585,0
0.6048,-3.054856E-05,9.072001,0,0.6048,-8.69459E-05,9.072001,0
0.6057,-7.687495E-05,9.0855,0,0.6057,-9.265278E-05,9.0855,0
0.6066,-9.567407E-05,9.099,0,0.6066,-0.000109102,9.099,0
0.6075,-5.740444E-05,9.1125,0,0.6075,-0.0001346151,9.1125,0
0.6084,-2.517739E-05,9.126,0,0.6084,-0.0001493858,9.126,0
0.6093,2.719158E-05,9.1395,0,0.6093,-0.0001785916,9.1395,0
0.6102,6.042573E-06,9.153,0,0.6102,-0.0001393149,9.153,0
0.6111,-2.18204E-05,9.1665,0,0.6111,-0.0001255512,9.1665,0
0.612,3.491264E-05,9.18,0,0.612,-0.0001641566,9.18,0
0.6129,8.761731E-05,9.1935,0,0.6129,-0.0001675135,9.1935,0
0.6138,-6.009003E-05,9.207,0,0.6138,-0.000115816,9.207,0
0.6147,-1.644922E-05,9.2205,0,0.6147,-0.0001225299,9.2205,0
0.6156,0.0001030594,9.234,0,0.6156,-0.0001074235,9.234,0
0.6165,1.745632E-05,9.2475,0,0.6165,-1.409934E-05,9.2475,0
0.6174,4.46479E-05,9.261,0,0.6174,2.517739E-05,9.261,0
0.6183,0.0001497215,9.2745,0,0.6183,2.047761E-05,9.2745,0
0.6192,1.678492E-06,9.288,0,0.6192,0.0001188373,9.288,0
0.6201,-5.706874E-05,9.3015,0,0.6201,0.000158114,9.3015,0
0.621,-1.779202E-05,9.315,0,0.621,7.284657E-05,9.315,0
0.6219,3.659113E-05,9.3285,0,0.6219,6.74754E-05,9.3285,0
0.6228,-1.007095E-06,9.342,0,0.6228,5.404745E-05,9.342,0
0.6237,6.713969E-06,9.3555,0,0.6237,5.807584E-05,9.3555,0
0.6246,-6.344701E-05,9.369,0,0.6246,2.920577E-05,9.369,0
0.6255,-5.001907E-05,9.3825,0,0.6255,4.028382E-06,9.3825,0
0.6264,3.189136E-05,9.396,0,0.6264,-7.049668E-06,9.396,0
0.6273,-4.028382E-05,9.4095,0,0.6273,3.927672E-05,9.4095,0
0.6282,-5.438316E-05,9.423,0,0.6282,-6.713969E-07,9.423,0
0.6291,9.835965E-05,9.4365,0,0.6291,-7.721065E-05,9.4365,0
0.63,5.606165E-05,9.45,0,0.63,-2.752728E-05,9.45,0
0.6309,-2.551309E-05,9.4635,0,0.6309,1.980621E-05,9.4635,0
0.6318,7.418937E-05,9.477,0,0.6318,4.263371E-05,9.477,0
0.6327,0.0001715419,9.4905,0,0.6327,2.383459E-05,9.4905,0
0.6336,6.713969E-07,9.504,0,0.6336,3.356985E-05,9.504,0
0.6345,-1.678492E-06,9.5175,0,0.6345,2.014191E-05,9.5175,0
0.6354,4.095522E-05,9.531,0,0.6354,-1.712062E-05,9.531,0
0.6363,4.263371E-05,9.5445,0,0.6363,-9.768826E-05,9.5445,0
0.6372,-4.901198E-05,9.558,0,0.6372,-8.627451E-05,9.558,0
0.6381,-0.000102388,9.5715,0,0.6381,-0.0001386435,9.5715,0
0.639,-2.584878E-05,9.585,0,0.639,-0.0001574426,9.585,0
0.6399,-4.061952E-05,9.5985,0,0.6399,-0.0001144732,9.5985,0
0.6408,-7.956054E-05,9.612,0,0.6408,-1.174945E-05,9.612,0
0.6417,-4.867628E-05,9.6255,0,0.6417,-2.383459E-05,9.6255,0
0.6426,7.721065E-06,9.639,0,0.6426,-0.0001255512,9.639,0
0.6435,-0.0001017166,9.6525,0,0.6435,-7.486076E-05,9.6525,0
0.6444,-5.572595E-05,9.666,0,0.6444,-6.009003E-05,9.666,0
0.6453,4.36408E-05,9.6795,0,0.6453,-6.78111E-05,9.6795,0
0.6462,-6.478981E-05,9.693,0,0.6462,-1.879912E-05,9.693,0
0.6471,-0.0001121233,9.7065,0,0.6471,2.987716E-05,9.7065,0
0.648,-8.627451E-05,9.72,0,0.648,4.028382E-05,9.72,0
0.6489,-4.934768E-05,9.7335,0,0.6489,5.270466E-05,9.7335,0
0.6498,6.243992E-05,9.747,0,0.6498,2.618448E-05,9.747,0
0.6507,-2.853437E-05,9.7605,0,0.6507,1.846342E-05,9.7605,0
0.6516,-8.69459E-05,9.774,0,0.6516,1.812772E-05,9.774,0
0.6525,-2.987716E-05,9.7875,0,0.6525,-1.510643E-05,9.7875,0
0.6534,-8.056763E-06,9.801,0,0.6534,-4.666209E-05,9.801,0
0.6543,-0.0001050736,9.8145,0,0.6543,-4.834058E-05,9.8145,0
0.6552,-6.915389E-05,9.828,0,0.6552,-0.0001185016,9.828,0
0.6561,2.047761E-05,9.8415,0,0.6561,-0.0001853056,9.8415,0
0.657,-4.867628E-05,9.855,0,0.657,-0.0001775845,9.855,0
0.6579,-0.0001064164,9.8685,0,0.6579,-0.0002349889,9.8685,0
0.6588,5.035477E-06,9.882,0,0.6588,-0.0002991073,9.882,0
0.6597,-3.256275E-05,9.8955,0,0.6597,-0.000239353,9.8955,0
0.6606,-4.33051E-05,9.909,0,0.6606,-0.0001467002,9.909,0
0.6615,1.846342E-05,9.9225,0,0.6615,-6.277562E-05,9.9225,0
0.6624,-2.517739E-05,9.936,0,0.6624,7.754635E-05,9.936,0
0.6633,6.378271E-06,9.9495,0,0.6633,0.0001339437,9.9495,0
0.6642,6.915389E-05,9.963,0,0.6642,0.0001631495,9.963,0
0.6651,1.846342E-05,9.976501,0,0.6651,0.0002165255,9.976501,0
0.666,-5.908293E-05,9.99,0,0.666,0.0002843366,9.99,0
0.6669,1.040665E-05,10.0035,0,0.6669,0.0002994431,10.0035,0
0.6678,-1.376364E-05,10.017,0,0.6678,0.0002722515,10.017,0
0.6687,-1.712062E-05,10.0305,0,0.6687,0.000203769,10.0305,0
0.6696,8.89601E-05,10.044,0,0.6696,0.000112459,10.044,0
0.6705,3.356985E-06,10.0575,0,0.6705,0.0001107805,10.0575,0
0.6714,-1.242084E-05,10.071,0,0.6714,7.150377E-05,10.071,0
0.6723,-1.678492E-06,10.0845,0,0.6723,4.196231E-05,10.0845,0
0.6732,-7.284657E-05,10.098,0,0.6732,0.0001013809,10.098,0
0.6741,-0.000185977,10.1115,0,0.6741,0.0001000381,10.1115,0
0.675,-0.0002292821,10.125,0,0.675,5.035477E-06,10.125,0
0.6759,-0.0001245441,10.1385,0,0.6759,-1.107805E-05,10.1385,0
0.6768,0.0001027237,10.152,0,0.6768,-2.719158E-05,10.152,0
0.6777,7.754635E-05,10.1655,0,0.6777,-3.726253E-05,10.1655,0
0.6786,6.009003E-05,10.179,0,0.6786,-3.894102E-05,10.179,0
0.6795,0.000154757,10.1925,0,0.6795,4.028382E-06,10.1925,0
0.6804,0.000197055,10.206,0,0.6804,6.948959E-05,10.206,0
0.6813,0.0001426719,10.2195,0,0.6813,0.0001305867,10.2195,0
0.6822,0.0001406577,10.233,0,0.6822,0.0001285725,10.233,0
0.6831,0.0001715419,10.2465,0,0.6831,1.846342E-05,10.2465,0
0.684,-2.349889E-06,10.26,0,0.684,-1.980621E-05,10.26,0
0.6849,5.035477E-06,10.2735,0,0.6849,-3.927672E-05,10.2735,0
0.6858,0.0001275654,10.287,0,0.6858,-5.874724E-05,10.287,0
0.6867,7.486076E-05,10.3005,0,0.6867,-6.344701E-05,10.3005,0
0.6876,-8.728161E-06,10.314,0,0.6876,-5.438316E-05,10.314,0
0.6885,1.242084E-05,10.3275,0,0.6885,-5.740444E-05,10.3275,0
0.6894,2.349889E-06,10.341,0,0.6894,-3.457694E-05,10.341,0
0.6903,3.390555E-05,10.3545,0,0.6903,-0.0001584497,10.3545,0
0.6912,-2.316319E-05,10.368,0,0.6912,-0.0002017548,10.368,0
0.6921,-5.001907E-05,10.3815,0,0.6921,-0.000190341,10.3815,0
0.693,2.618448E-05,10.395,0,0.693,-0.0001957122,10.395,0
0.6939,-1.376364E-05,10.4085,0,0.6939,-0.0001923552,10.4085,0
0.6948,-6.51255E-05,10.422,0,0.6948,-0.0001211871,10.422,0
0.6957,-6.848249E-05,10.4355,0,0.6957,-9.500267E-05,10.4355,0
0.6966,2.081331E-05,10.449,0,0.6966,-8.627451E-05,10.449,0
0.6975,-3.155566E-05,10.4625,0,0.6975,1.309224E-05,10.4625,0
0.6984,-4.061952E-05,10.476,0,0.6984,2.920577E-05,10.476,0
0.6993,3.558404E-05,10.4895,0,0.6993,1.544213E-05,10.4895,0
0.7002,5.001907E-05,10.503,0,0.7002,-8.056763E-06,10.503,0
0.7011,-5.069047E-05,10.5165,0,0.7011,-4.867628E-05,10.5165,0
0.702,-1.644922E-05,10.53,0,0.702,-7.687495E-05,10.53,0
0.7029,8.392462E-06,10.5435,0,0.7029,-7.989624E-05,10.5435,0
0.7038,-1.242084E-05,10.557,0,0.7038,-8.358892E-05,10.557,0
0.7047,-1.007095E-05,10.5705,0,0.7047,-4.666209E-05,10.5705,0
0.7056,4.53193E-05,10.584,0,0.7056,-2.383459E-05,10.584,0
0.7065,5.001907E-05,10.5975,0,0.7065,-5.639734E-05,10.5975,0
0.7074,3.994812E-05,10.611,0,0.7074,-0.0001554284,10.611,0
0.7083,-3.692683E-05,10.6245,0,0.7083,-4.867628E-05,10.6245,0
0.7092,-8.224613E-05,10.638,0,0.7092,-5.035477E-06,10.638,0
0.7101,-3.390555E-05,10.6515,0,0.7101,0,10.6515,0
0.711,-0.0001245441,10.665,0,0.711,6.814679E-05,10.665,0
0.7119,-0.0001044022,10.6785,0,0.7119,7.821774E-05,10.6785,0
0.7128,-7.855344E-05,10.692,0,0.7128,-1.779202E-05,10.692,0
0.7137,-9.500267E-05,10.7055,0,0.7137,-1.510643E-05,10.7055,0
0.7146,-0.000140322,10.719,0,0.7146,1.745632E-05,10.719,0
0.7155,-9.097429E-05,10.7325,0,0.7155,-7.049668E-06,10.7325,0
0.7164,-0.0001352865,10.746,0,0.7164,-0.0001050736,10.746,0
0.7173,-0.0001168231,10.7595,0,0.7173,-0.0001205158,10.7595,0
0.7182,-0.0001994049,10.773,0,0.7182,-9.835965E-05,10.773,0
0.7191,-0.0002665446,10.7865,0,0.7191,-5.001907E-05,10.7865,0
0.72,-0.0001701991,10.8,0,0.72,-3.121996E-05,10.8,0
0.7209,-0.0001258869,10.8135,0,0.7209,-4.36408E-05,10.8135,0
0.7218,-0.0001574426,10.827,0,0.7218,-5.706874E-06,10.827,0
0.7227,5.001907E-05,10.8405,0,0.7227,-2.316319E-05,10.8405,0
0.7236,0.0001943694,10.854,0,0.7236,-6.378271E-06,10.854,0
0.7245,4.867628E-05,10.8675,0,0.7245,4.49836E-05,10.8675,0
0.7254,-4.061952E-05,10.881,0,0.7254,5.941863E-05,10.881,0
0.7263,5.706874E-06,10.8945,0,0.7263,0.0001339437,10.8945,0
0.7272,-2.719158E-05,10.908,0,0.7272,0.0002823224,10.908,0
0.7281,-0.0001285725,10.9215,0,0.7281,0.0003058213,10.9215,0
0.729,-6.243992E-05,10.935,0,0.729,0.0002242466,10.935,0
0.7299,-5.136187E-05,10.9485,0,0.7299,0.0001789273,10.9485,0
0.7308,-7.687495E-05,10.962,0,0.7308,-2.383459E-05,10.962,0
0.7317,-1.913481E-05,10.9755,0,0.7317,-0.0001876554,10.9755,0
0.7326,-9.567407E-05,10.989,0,0.7326,-0.0003367056,10.989,0
0.7335,-1.443504E-05,11.0025,0,0.7335,-0.0003722896,11.0025,0
0.7344,0.0001675135,11.016,0,0.7344,-0.0003853819,11.016,0
0.7353,3.256275E-05,11.0295,0,0.7353,-0.0002873579,11.0295,0
0.7362,7.754635E-05,11.043,0,0.7362,-0.0002074617,11.043,0
0.7371,0.0002507668,11.0565,0,0.7371,-0.0001795987,11.0565,0
0.738,0.0001873197,11.07,0,0.738,3.189136E-05,11.07,0
0.7389,0.0001607996,11.0835,0,0.7389,0.0001178302,11.0835,0
0.7398,0.0002158541,11.097,0,0.7398,0.0001070878,11.097,0
0.7407,0.0002480812,11.1105,0,0.7407,6.009003E-05,11.1105,0
0.7416,6.411841E-05,11.124,0,0.7416,-1.611353E-05,11.124,0
0.7425,4.263371E-05,11.1375,0,0.7425,-7.083238E-05,11.1375,0
0.7434,0.0001379721,11.151,0,0.7434,-0.0001399863,11.151,0
0.7443,6.54612E-05,11.1645,0,0.7443,-0.0001349508,11.1645,0
0.7452,4.699779E-06,11.178,0,0.7452,-5.203327E-05,11.178,0
0.7461,6.881819E-05,11.1915,0,0.7461,3.826963E-05,11.1915,0
0.747,7.284657E-05,11.205,0,0.747,3.659113E-05,11.205,0
0.7479,-5.035477E-06,11.2185,0,0.7479,-3.659113E-05,11.2185,0
0.7488,-8.258183E-05,11.232,0,0.7488,0.0001352865,11.232,0
0.7497,-5.404745E-05,11.2455,0,0.7497,0.0001705348,11.2455,0
0.7506,3.054856E-05,11.259,0,0.7506,0.0001084306,11.259,0
0.7515,-7.754635E-05,11.2725,0,0.7515,0.0003219348,11.2725,0
0.7524,-7.653925E-05,11.286,0,0.7524,0.000239353,11.286,0
0.7533,-6.478981E-05,11.2995,0,0.7533,9.365987E-05,11.2995,0
0.7542,-8.526741E-05,11.313,0,0.7542,2.349889E-06,11.313,0
0.7551,-0.000148043,11.3265,0,0.7551,-0.000133608,11.3265,0
0.756,-5.740444E-05,11.34,0,0.756,-0.0002051118,11.34,0
0.7569,-4.36408E-05,11.3535,0,0.7569,-7.116808E-05,11.3535,0
0.7578,-4.53193E-05,11.367,0,0.7578,-6.64683E-05,11.367,0
0.7587,-0.000112459,11.3805,0,0.7587,-0.0001225299,11.3805,0
0.7596,-0.0002010834,11.394,0,0.7596,-0.0001920195,11.394,0
0.7605,-6.311131E-05,11.4075,0,0.7605,-0.0003555047,11.4075,0
0.7614,2.349889E-05,11.421,0,0.7614,-0.0003910887,11.421,0
0.7623,-7.150377E-05,11.4345,0,0.7623,-0.000203769,11.4345,0
0.7632,4.028382E-06,11.448,0,0.7632,-6.009003E-05,11.448,0
0.7641,0.0001574426,11.4615,0,0.7641,0.0001594568,11.4615,0
0.765,0.0001070878,11.475,0,0.765,0.0002252537,11.475,0
0.7659,0.0001178302,11.4885,0,0.7659,0.0002856794,11.4885,0
0.7668,0.0001493858,11.502,0,0.7668,0.0003890745,11.502,0
0.7677,1.577783E-05,11.5155,0,0.7677,0.0003393912,11.5155,0
0.7686,-3.659113E-05,11.529,0,0.7686,0.0002440528,11.529,0
0.7695,1.712062E-05,11.5425,0,0.7695,0.0001309224,11.5425,0
0.7704,1.275654E-05,11.556,0,0.7704,4.666209E-05,11.556,0
0.7713,4.53193E-05,11.5695,0,0.7713,-2.450599E-05,11.5695,0
0.7722,6.881819E-05,11.583,0,0.7722,-3.860533E-05,11.583,0
0.7731,5.337606E-05,11.5965,0,0.7731,-5.337606E-05,11.5965,0
0.774,2.014191E-06,11.61,0,0.774,-6.881819E-05,11.61,0
0.7749,3.524834E-05,11.6235,0,0.7749,-0.0001282368,11.6235,0
0.7758,-7.721065E-06,11.637,0,0.7758,-0.0001211871,11.637,0
0.7767,-8.795301E-05,11.6505,0,0.7767,-0.0002312963,11.6505,0
0.7776,-1.678492E-05,11.664,0,0.7776,-0.0004414435,11.664,0
0.7785,-0.0001275654,11.6775,0,0.7785,-0.0005750515,11.6775,0
0.7794,-0.0002937362,11.691,0,0.7794,-0.0005995575,11.691,0
0.7803,-0.0002870222,11.7045,0,0.7803,-0.0005357748,11.7045,0
0.7812,-0.0001846342,11.718,0,0.7812,-0.0003058213,11.718,0
0.7821,-0.0001258869,11.7315,0,0.7821,-3.256275E-05,11.7315,0
0.783,9.835965E-05,11.745,0,0.783,0.0001607996,11.745,0
0.7839,0.0002118257,11.7585,0,0.7839,0.0004159304,11.7585,0
0.7848,0.0001218585,11.772,0,0.7848,0.0004790417,11.772,0
0.7857,0.0001540856,11.7855,0,0.7857,0.0004196231,11.7855,0
0.7866,0.0002333104,11.799,0,0.7866,0.0001601282,11.799,0
0.7875,0.0001366293,11.8125,0,0.7875,-0.0001309224,11.8125,0
0.7884,-3.356985E-07,11.826,0,0.7884,-0.0001604639,11.826,0
0.7893,-9.164568E-05,11.8395,0,0.7893,6.713969E-06,11.8395,0
0.7902,-9.298848E-05,11.853,0,0.7902,0.0001822843,11.853,0
0.7911,-7.049668E-05,11.8665,0,0.7911,0.0001258869,11.8665,0
0.792,-0.0001456931,11.88,0,0.792,0.0002205539,11.88,0
0.7929,-0.000126894,11.8935,0,0.7929,0.0004689708,11.8935,0
0.7938,-9.903105E-05,11.907,0,0.7938,0.0006039216,11.907,0
0.7947,5.304036E-05,11.9205,0,0.7947,0.0003165637,11.9205,0
0.7956,4.129091E-05,11.934,0,0.7956,-8.728161E-06,11.934,0
0.7965,-1.577783E-05,11.9475,0,0.7965,-7.687495E-05,11.9475,0
0.7974,1.846342E-05,11.961,0,0.7974,-6.478981E-05,11.961,0
0.7983,6.478981E-05,11.9745,0,0.7983,-0.0001514,11.9745,0
0.7992,2.18204E-05,11.988,0,0.7992,-0.0001013809,11.988,0
0.8001,-4.33051E-05,12.0015,0,0.8001,2.383459E-05,12.0015,0
0.801,7.385367E-05,12.015,0,0.801,5.471885E-05,12.015,0
0.8019,0.0001695277,12.0285,0,0.8019,-4.028382E-06,12.0285,0
0.8028,0.0001352865,12.042,0,0.8028,-3.424125E-05,12.042,0
0.8037,5.001907E-05,12.0555,0,0.8037,-0.0001534142,12.0555,0
0.8046,4.901198E-05,12.069,0,0.8046,-0.0003598688,12.069,0
0.8055,-0.0001255512,12.0825,0,0.8055,-0.0003843748,12.0825,0
0.8064,-0.0002326391,12.096,0,0.8064,-0.0004625925,12.096,0
0.8073,-0.0001399863,12.1095,0,0.8073,-0.0005532311,12.1095,0
0.8082,-0.0001621424,12.123,0,0.8082,-0.0003521477,12.123,0
0.8091,-0.0001010452,12.1365,0,0.8091,-0.000228275,12.1365,0
0.81,9.365987E-05,12.15,0,0.81,-7.351797E-05,12.15,0
0.8109,0.0001225299,12.1635,0,0.8109,0.0001671778,12.1635,0
0.8118,9.903105E-05,12.177,0,0.8118,0.000446479,12.177,0
0.8127,6.378271E-05,12.1905,0,0.8127,0.0005367819,12.1905,0
0.8136,0.0001688563,12.204,0,0.8136,0.0003501335,12.204,0
0.8145,0.0002208896,12.2175,0,0.8145,0.0001044022,12.2175,0
0.8154,0.0001762417,12.231,0,0.8154,-3.356985E-07,12.231,0
0.8163,6.64683E-05,12.2445,0,0.8163,-1.141375E-05,12.2445,0
0.8172,1.409934E-05,12.258,0,0.8172,-4.33051E-05,12.258,0
0.8181,0.0001769131,12.2715,0,0.8181,1.007095E-06,12.2715,0
0.819,6.109713E-05,12.285,0,0.819,0.0001084306,12.285,0
0.8199,-9.500267E-05,12.2985,0,0.8199,6.311131E-05,12.2985,0
0.8208,-0.0001597925,12.312,0,0.8208,-7.016098E-05,12.312,0
0.8217,-0.0001957122,12.3255,0,0.8217,-5.673304E-05,12.3255,0
0.8226,-0.000218204,12.339,0,0.8226,-4.599069E-05,12.339,0
0.8235,-0.0001020523,12.3525,0,0.8235,-0.0001094377,12.3525,0
0.8244,-2.685588E-05,12.366,0,0.8244,-0.0001983978,12.366,0
0.8253,0.0001218585,12.3795,0,0.8253,-0.0004199588,12.3795,0
0.8262,0.0001037308,12.393,0,0.8262,-0.0004622568,12.393,0
0.8271,6.478981E-05,12.4065,0,0.8271,-0.0004327153,12.4065,0
0.828,7.049668E-06,12.42,0,0.828,-0.0004877699,12.42,0
0.8289,6.344701E-05,12.4335,0,0.8289,-0.0004260014,12.4335,0
0.8298,-4.33051E-05,12.447,0,0.8298,-8.761731E-05,12.447,0
0.8307,3.692683E-06,12.4605,0,0.8307,0.0002725872,12.4605,0
0.8316,0.0001675135,12.474,0,0.8316,0.0004639353,12.474,0
0.8325,3.558404E-05,12.4875,0,0.8325,0.0005105974,12.4875,0
0.8334,-2.685588E-05,12.501,0,0.8334,0.000400824,12.501,0
0.8343,0,12.5145,0,0.8343,0.0001926909,12.5145,0
0.8352,-0.0001174945,12.528,0,0.8352,0.0001460288,12.528,0
0.8361,-0.0001829557,12.5415,0,0.8361,7.721065E-05,12.5415,0
0.837,-9.231708E-05,12.555,0,0.837,-1.309224E-05,12.555,0
0.8379,-6.78111E-05,12.5685,0,0.8379,-8.89601E-05,12.5685,0
0.8388,-9.063859E-05,12.582,0,0.8388,-0.0002853437,12.582,0
0.8397,-7.754635E-05,12.5955,0,0.8397,-0.0004055238,12.5955,0
0.8406,-7.385367E-06,12.609,0,0.8406,-0.0004202945,12.609,0
0.8415,0.0001185016,12.6225,0,0.8415,-0.0004629282,12.6225,0
0.8424,0.000197055,12.636,0,0.8424,-0.0003397269,12.636,0
0.8433,1.577783E-05,12.6495,0,0.8433,2.349889E-06,12.6495,0
0.8442,4.196231E-05,12.663,0,0.8442,0.0002856794,12.663,0
0.8451,0.0002195468,12.6765,0,0.8451,0.0003662471,12.6765,0
0.846,9.903105E-05,12.69,0,0.846,0.0003984741,12.69,0
0.8469,-3.390555E-05,12.7035,0,0.8469,0.0003038071,12.7035,0
0.8478,3.457694E-05,12.717,0,0.8478,0.0002756084,12.717,0
0.8487,4.699779E-05,12.7305,0,0.8487,0.0003078355,12.7305,0
0.8496,-0.000105745,12.744,0,0.8496,0.0001174945,12.744,0
0.8505,-6.848249E-05,12.7575,0,0.8505,-0.0001188373,12.7575,0
0.8514,-4.36408E-06,12.771,0,0.8514,-0.000267216,12.771,0
0.8523,2.21561E-05,12.7845,0,0.8523,-0.0003179065,12.7845,0
0.8532,-3.356985E-07,12.798,0,0.8532,-0.000231632,12.798,0
0.8541,-8.023193E-05,12.8115,0,0.8541,-6.076142E-05,12.8115,0
0.855,-5.270466E-05,12.825,0,0.855,0.0001607996,12.825,0
0.8559,-7.217517E-05,12.8385,0,0.8559,0.0003951171,12.8385,0
0.8568,-0.0001618067,12.852,0,0.8568,0.0003689326,12.852,0
0.8577,-0.0001715419,12.8655,0,0.8577,0.0001326009,12.8655,0
0.8586,-7.821774E-05,12.879,0,0.8586,-0.0001138018,12.879,0
0.8595001,-0.0001050736,12.8925,0,0.8595001,-0.0001215228,12.8925,0
0.8604,0.000115816,12.906,0,0.8604,-0.0001738918,12.906,0
0.8613,0.0002406958,12.9195,0,0.8613,-0.0002034333,12.9195,0
0.8622,0.000169192,12.933,0,0.8622,-0.0001853056,12.933,0
0.8631,2.517739E-05,12.9465,0,0.8631,6.311131E-05,12.9465,0
0.864,2.349889E-06,12.96,0,0.864,2.24918E-05,12.96,0
0.8649,-5.304036E-05,12.9735,0,0.8649,-0.0001070878,12.9735,0
0.8658,-3.390555E-05,12.987,0,0.8658,-9.164568E-05,12.987,0
0.8667,-6.009003E-05,13.0005,0,0.8667,-7.049668E-06,13.0005,0
0.8676,-6.881819E-05,13.014,0,0.8676,0.0001131304,13.014,0
0.8685,1.309224E-05,13.0275,0,0.8685,9.097429E-05,13.0275,0
0.8694,2.383459E-05,13.041,0,0.8694,8.526741E-05,13.041,0
0.8703,-6.881819E-05,13.0545,0,0.8703,0.0002010834,13.0545,0
0.8712,-8.123904E-05,13.068,0,0.8712,0.0001413291,13.068,0
0.8721,1.779202E-05,13.0815,0,0.8721,-2.752728E-05,13.0815,0
0.873,-0.0001359579,13.095,0,0.873,-4.33051E-05,13.095,0
0.8739,-0.0001597925,13.1085,0,0.8739,-9.634547E-05,13.1085,0
0.8748,-1.242084E-05,13.122,0,0.8748,-0.0001621424,13.122,0
0.8757,-7.721065E-06,13.1355,0,0.8757,-0.0001785916,13.1355,0
0.8766,-3.457694E-05,13.149,0,0.8766,-0.0001571069,13.149,0
0.8775,7.721065E-06,13.1625,0,0.8775,-0.0002353246,13.1625,0
0.8784,-0.000144686,13.176,0,0.8784,-0.0002930648,13.176,0
0.8793,-0.0001661708,13.1895,0,0.8793,-0.0004659495,13.1895,0
0.8802,-7.586786E-05,13.203,0,0.8802,-0.0004800488,13.203,0
0.8811,2.1149E-05,13.2165,0,0.8811,-0.0003481193,13.2165,0
0.882,0.0001782559,13.23,0,0.882,-0.0002312963,13.23,0
0.8829,0.0002722515,13.2435,0,0.8829,-6.143282E-05,13.2435,0
0.8838,0.0001688563,13.257,0,0.8838,0.0005069047,13.257,0
0.8847,0.0001017166,13.2705,0,0.8847,0.0007351797,13.2705,0
0.8856,0.0001715419,13.284,0,0.8856,0.0005528954,13.284,0
0.8865,-1.678492E-05,13.2975,0,0.8865,0.0004179446,13.2975,0
0.8874,-0.0001201801,13.311,0,0.8874,0.0002108186,13.311,0
0.8883,1.980621E-05,13.3245,0,0.8883,4.129091E-05,13.3245,0
0.8892,-8.426032E-05,13.338,0,0.8892,1.376364E-05,13.338,0
0.8901,-0.0001916838,13.3515,0,0.8901,-1.980621E-05,13.3515,0
0.891,-0.0001168231,13.365,0,0.891,-0.0001144732,13.365,0
0.8919,-0.000109102,13.3785,0,0.8919,-0.000207126,13.3785,0
0.8928,-9.332418E-05,13.392,0,0.8928,-0.0002786297,13.392,0
0.8937,-7.183947E-05,13.4055,0,0.8937,-0.0003212634,13.4055,0
0.8946,-3.927672E-05,13.419,0,0.8946,-0.0003461051,13.419,0
0.8955,1.510643E-05,13.4325,0,0.8955,-0.0002960861,13.4325,0
0.8964,3.457694E-05,13.446,0,0.8964,-0.0001540856,13.446,0
0.8973,8.157473E-05,13.4595,0,0.8973,-7.956054E-05,13.4595,0
0.8982,8.224613E-05,13.473,0,0.8982,-0.0001050736,13.473,0
0.8991,-3.793393E-05,13.4865,0,0.8991,-5.774014E-05,13.4865,0
0.9,-0.0001923552,13.5,0,0.9,5.606165E-05,13.5,0
0.9009,-0.0001748989,13.5135,0,0.9009,3.726253E-05,13.5135,0
0.9018,-0.000158114,13.527,0,0.9018,1.712062E-05,13.527,0
0.9027,-0.0001077592,13.5405,0,0.9027,6.411841E-05,13.5405,0
0.9036,-0.0001312581,13.554,0,0.9036,-7.721065E-06,13.554,0
0.9045,-3.356985E-07,13.5675,0,0.9045,-0.0001245441,13.5675,0
0.9054,0.0001070878,13.581,0,0.9054,2.484169E-05,13.581,0
0.9063,3.189136E-05,13.5945,0,0.9063,-0.0001188373,13.5945,0
0.9072,-5.774014E-05,13.608,0,0.9072,-7.956054E-05,13.608,0
0.9081,-0.0001728847,13.6215,0,0.9081,0.0001225299,13.6215,0
0.909,-0.000105745,13.635,0,0.909,0.0002319677,13.635,0
0.9099,5.706874E-06,13.6485,0,0.9099,0.0003390555,13.6485,0
0.9108,-0.0001319295,13.662,0,0.9108,0.0001957122,13.662,0
0.9117,-0.000123537,13.6755,0,0.9117,-2.18204E-05,13.6755,0
0.9126,1.544213E-05,13.689,0,0.9126,9.063859E-06,13.689,0
0.9135,-8.023193E-05,13.7025,0,0.9135,0.0001393149,13.7025,0
0.9144,-6.713969E-06,13.716,0,0.9144,0.0001030594,13.716,0
0.9153,0.0001822843,13.7295,0,0.9153,2.652018E-05,13.7295,0
0.9162,0.0001366293,13.743,0,0.9162,4.53193E-05,13.743,0
0.9171,1.342794E-05,13.7565,0,0.9171,0.0001305867,13.7565,0
0.918,7.922484E-05,13.77,0,0.918,0.0001406577,13.77,0
0.9189,4.800488E-05,13.7835,0,0.9189,9.466698E-05,13.7835,0
0.9198,4.766919E-05,13.797,0,0.9198,-3.390555E-05,13.797,0
0.9207,9.735256E-06,13.8105,0,0.9207,-8.291753E-05,13.8105,0
0.9216,-4.800488E-05,13.824,0,0.9216,-0.0002346532,13.824,0
0.9225,-6.713969E-07,13.8375,0,0.9225,-0.0006364843,13.8375,0
0.9234,9.365987E-05,13.851,0,0.9234,-0.0008603952,13.851,0
0.9243,-3.356985E-07,13.8645,0,0.9243,-0.000805005,13.8645,0
0.9252,-5.807584E-05,13.878,0,0.9252,-0.0005965362,13.878,0
0.9261,0.0001107805,13.8915,0,0.9261,-0.0001886625,13.8915,0
0.927,0.0001017166,13.905,0,0.927,0.0007301442,13.905,0
0.9279,2.618448E-05,13.9185,0,0.9279,0.001326345,13.9185,0
0.9288,6.143282E-05,13.932,0,0.9288,0.0007878843,13.932,0
0.9297,1.644922E-05,13.9455,0,0.9297,0.0004159304,13.9455,0
0.9306,-7.586786E-05,13.959,0,0.9306,0.0001748989,13.959,0
0.9315,-7.150377E-05,13.9725,0,0.9315,-2.383459E-05,13.9725,0
0.9324,6.042573E-06,13.986,0,0.9324,-7.049668E-05,13.986,0
0.9333,5.941863E-05,13.9995,0,0.9333,-6.51255E-05,13.9995,0
0.9342,6.378271E-05,14.013,0,0.9342,-0.0001101091,14.013,0
0.9351,0.0001252155,14.0265,0,0.9351,-0.0001399863,14.0265,0
0.936,6.411841E-05,14.04,0,0.936,-0.0002514381,14.04,0
0.9369,2.1149E-05,14.0535,0,0.9369,-0.0003944457,14.0535,0
0.9378,-3.961242E-05,14.067,0,0.9378,-0.0004437934,14.067,0
0.9387,-8.493171E-05,14.0805,0,0.9387,-0.0004202945,14.0805,0
0.9396001,-1.510643E-05,14.094,0,0.9396001,-0.0002410315,14.094,0
0.9405,-1.879912E-05,14.1075,0,0.9405,0.0001621424,14.1075,0
0.9414001,-5.203327E-05,14.121,0,0.9414001,0.0002574807,14.121,0
0.9423,3.088426E-05,14.1345,0,0.9423,7.486076E-05,14.1345,0
0.9432001,-1.376364E-05,14.148,0,0.9432001,5.001907E-05,14.148,0
0.9441,-4.53193E-05,14.1615,0,0.9441,-8.69459E-05,14.1615,0
0.9450001,4.800488E-05,14.175,0,0.9450001,-0.0002279393,14.175,0
0.9459,4.39765E-05,14.1885,0,0.9459,-0.0001658351,14.1885,0
0.9468,0.000102388,14.202,0,0.9468,-0.0001426719,14.202,0
0.9477,7.150377E-05,14.2155,0,0.9477,-6.6804E-05,14.2155,0
0.9486,7.888914E-05,14.229,0,0.9486,-8.526741E-05,14.229,0
0.9495,9.198138E-05,14.2425,0,0.9495,-1.712062E-05,14.2425,0
0.9504,9.063859E-06,14.256,0,0.9504,4.800488E-05,14.256,0
0.9513,-0.0001762417,14.2695,0,0.9513,5.975433E-05,14.2695,0
0.9522,-6.64683E-05,14.283,0,0.9522,0.0001366293,14.283,0
0.9531,8.92958E-05,14.2965,0,0.9531,7.486076E-05,14.2965,0
0.954,-7.385367E-06,14.31,0,0.954,6.61326E-05,14.31,0
0.9549,-4.867628E-05,14.3235,0,0.9549,7.016098E-05,14.3235,0
0.9558,5.975433E-05,14.337,0,0.9558,-3.356985E-07,14.337,0
0.9567,1.544213E-05,14.3505,0,0.9567,1.913481E-05,14.3505,0
0.9576,-0.0002158541,14.364,0,0.9576,3.390555E-05,14.364,0
0.9585,-0.0001621424,14.3775,0,0.9585,3.189136E-05,14.3775,0
0.9594,-3.994812E-05,14.391,0,0.9594,-3.121996E-05,14.391,0
0.9603,9.600977E-05,14.4045,0,0.9603,-6.143282E-05,14.4045,0
0.9612,6.78111E-05,14.418,0,0.9612,-5.001907E-05,14.418,0
0.9621,-4.028382E-06,14.4315,0,0.9621,-0.0001544213,14.4315,0
0.963,6.61326E-05,14.445,0,0.963,-0.0002010834,14.445,0
0.9639,0.0002252537,14.4585,0,0.9639,-0.0001762417,14.4585,0
0.9648,0.0001312581,14.472,0,0.9648,-0.0001084306,14.472,0
0.9657,0.000161471,14.4855,0,0.9657,-0.0001346151,14.4855,0
0.9666,0.0003054856,14.499,0,0.9666,-9.063859E-06,14.499,0
0.9675,0.0001060807,14.5125,0,0.9675,0.0001161517,14.5125,0
0.9684,3.927672E-05,14.526,0,0.9684,0.0001728847,14.526,0
0.9693,-9.231708E-05,14.5395,0,0.9693,0.0003880674,14.5395,0
0.9702,-0.0002887007,14.553,0,0.9702,0.0003655757,14.553,0
0.9711,-0.0003743038,14.5665,0,0.9711,0.0002682231,14.5665,0
0.972,-0.0003917601,14.58,0,0.972,9.500267E-05,14.58,0
0.9729,-0.0002776226,14.5935,0,0.9729,1.846342E-05,14.5935,0
0.9738,-1.644922E-05,14.607,0,0.9738,-3.994812E-05,14.607,0
0.9747,-2.24918E-05,14.6205,0,0.9747,-1.376364E-05,14.6205,0
0.9756,-0.0002967575,14.634,0,0.9756,5.807584E-05,14.634,0
0.9765,-0.0002265965,14.6475,0,0.9765,6.411841E-05,14.6475,0
0.9774,-0.0002252537,14.661,0,0.9774,-0.0001272297,14.661,0
0.9783,-0.0002390173,14.6745,0,0.9783,-0.0002534524,14.6745,0
0.9792,-1.947051E-05,14.688,0,0.9792,-0.0002218967,14.688,0
0.9801,0.0002507668,14.7015,0,0.9801,-0.0003185779,14.7015,0
0.981,0.0002544594,14.715,0,0.981,-0.0001524071,14.715,0
0.9819,0.0001940337,14.7285,0,0.9819,0.0001842985,14.7285,0
0.9828,2.484169E-05,14.742,0,0.9828,0.0002084688,14.742,0
0.9837,-4.53193E-05,14.7555,0,0.9837,0.0001607996,14.7555,0
0.9846,-7.486076E-05,14.769,0,0.9846,0.0001111162,14.769,0
0.9855,0.0001352865,14.7825,0,0.9855,-2.484169E-05,14.7825,0
0.9864,0.0002171969,14.796,0,0.9864,-0.0001567712,14.796,0
0.9873,0.0001352865,14.8095,0,0.9873,-0.0002779583,14.8095,0
0.9882,4.061952E-05,14.823,0,0.9882,-0.0002964218,14.823,0
0.9891,-0.0001389792,14.8365,0,0.9891,-0.0002796368,14.8365,0
0.99,-8.89601E-05,14.85,0,0.99,-0.000295079,14.85,0
0.9909,4.666209E-05,14.8635,0,0.9909,-0.0003313344,14.8635,0
0.9918,-3.054856E-05,14.877,0,0.9918,-0.0001712062,14.877,0
0.9927,-8.82887E-05,14.8905,0,0.9927,-0.0001940337,14.8905,0
0.9936,0.0001097734,14.904,0,0.9936,-0.0002930648,14.904,0
0.9945,5.203327E-05,14.9175,0,0.9945,0.0002235752,14.9175,0
0.9954,-6.948959E-05,14.931,0,0.9954,0.0007355154,14.931,0
0.9963,-2.853437E-05,14.9445,0,0.9963,0.0005616235,14.9445,0
0.9972,2.014191E-06,14.958,0,0.9972,0.0004115663,14.958,0
0.9981,-8.761731E-05,14.9715,0,0.9981,0.0003555047,14.9715,0
0.999,-9.600977E-05,14.985,0,0.999,8.996719E-05,14.985,0
0.9999,-7.284657E-05,14.9985,0,0.9999,-1.644922E-05,14.9985,0
1.0008,3.524834E-05,15.012,0,1.0008,-0.0001436789,15.012,0
1.0017,7.351797E-05,15.0255,0,1.0017,-0.000123537,15.0255,0
1.0026,0.000105745,15.039,0,1.0026,-0.0001883268,15.039,0
1.0035,6.277562E-05,15.0525,0,1.0035,-0.0002554666,15.0525,0
1.0044,3.692683E-05,15.066,0,1.0044,-0.0003602045,15.066,0
1.0053,7.385367E-06,15.0795,0,1.0053,-0.0004723278,15.0795,0
1.0062,4.867628E-05,15.093,0,1.0062,-0.0004273442,15.093,0
1.0071,9.063859E-05,15.1065,0,1.0071,-0.0003071641,15.1065,0
1.008,-2.316319E-05,15.12,0,1.008,-0.0001211871,15.12,0
1.0089,-4.49836E-05,15.1335,0,1.0089,0.000161471,15.1335,0
1.0098,3.625543E-05,15.147,0,1.0098,0.0004897841,15.147,0
1.0107,6.54612E-05,15.1605,0,1.0107,0.0004441291,15.1605,0
1.0116,-5.404745E-05,15.174,0,1.0116,0.0001386435,15.174,0
1.0125,-6.411841E-05,15.1875,0,1.0125,-6.378271E-05,15.1875,0
1.0134,-3.121996E-05,15.201,0,1.0134,-0.0001483787,15.201,0
1.0143,-2.349889E-06,15.2145,0,1.0143,7.553216E-05,15.2145,0
1.0152,-5.337606E-05,15.228,0,1.0152,4.095522E-05,15.228,0
1.0161,-0.0001634852,15.2415,0,1.0161,1.980621E-05,15.2415,0
1.017,-3.021286E-06,15.255,0,1.017,0.0001322652,15.255,0
1.0179,4.46479E-05,15.2685,0,1.0179,0.0002212253,15.2685,0
1.0188,-7.016098E-05,15.282,0,1.0188,0.0002061189,15.282,0
1.0197,-1.644922E-05,15.2955,0,1.0197,-3.524834E-05,15.2955,0
1.0206,0.0001185016,15.309,0,1.0206,-0.0003642329,15.309,0
1.0215,4.263371E-05,15.3225,0,1.0215,-0.0005502098,15.3225,0
1.0224,8.761731E-05,15.336,0,1.0224,-0.0005925078,15.336,0
1.0233,0.0001500572,15.3495,0,1.0233,-0.000460914,15.3495,0
1.0242,6.411841E-05,15.363,0,1.0242,-0.0001080949,15.363,0
1.0251,-4.229801E-05,15.3765,0,1.0251,0.0004115663,15.3765,0
1.026,1.141375E-05,15.39,0,1.026,0.0007516289,15.39,0
1.0269,-1.779202E-05,15.4035,0,1.0269,0.0006039216,15.4035,0
1.0278,1.947051E-05,15.417,0,1.0278,0.0003803464,15.417,0
1.0287,5.539025E-05,15.4305,0,1.0287,4.565499E-05,15.4305,0
1.0296,-7.788205E-05,15.444,0,1.0296,-9.365987E-05,15.444,0
1.0305,9.063859E-05,15.4575,0,1.0305,-9.600977E-05,15.4575,0
1.0314,0.0002289464,15.471,0,1.0314,-0.0001393149,15.471,0
1.0323,-8.392462E-06,15.4845,0,1.0323,-0.0002276036,15.4845,0
1.0332,-6.74754E-05,15.498,0,1.0332,-0.0002692302,15.498,0
1.0341,-1.309224E-05,15.5115,0,1.0341,-0.0002423743,15.5115,0
1.035,-0.0001685206,15.525,0,1.035,-0.0001621424,15.525,0
1.0359,-0.0001164874,15.5385,0,1.0359,-0.000239353,15.5385,0
1.0368,-0.0001339437,15.552,0,1.0368,-0.0002017548,15.552,0
1.0377,7.721065E-06,15.5655,0,1.0377,-0.0002974289,15.5655,0
1.0386,0.0002091402,15.579,0,1.0386,-0.0004300298,15.579,0
1.0395,0.0002947433,15.5925,0,1.0395,-2.887007E-05,15.5925,0
1.0404,0.0001849699,15.606,0,1.0404,0.0002890364,15.606,0
1.0413,2.920577E-05,15.6195,0,1.0413,0.0003387198,15.6195,0
1.0422,-0.0001785916,15.633,0,1.0422,0.0002836652,15.633,0
1.0431,-0.0002262608,15.6465,0,1.0431,5.505455E-05,15.6465,0
1.044,-0.0001943694,15.66,0,1.044,3.625543E-05,15.66,0
1.0449,-0.0001453574,15.6735,0,1.0449,-8.761731E-05,15.6735,0
1.0458,-0.0001275654,15.687,0,1.0458,-2.1149E-05,15.687,0
1.0467,-4.36408E-05,15.7005,0,1.0467,9.735256E-05,15.7005,0
1.0476,0.000235996,15.714,0,1.0476,8.023193E-05,15.714,0
1.0485,0.0003877317,15.7275,0,1.0485,0.0001161517,15.7275,0
1.0494,0.0003098497,15.741,0,1.0494,-3.692683E-06,15.741,0
1.0503,0.000179263,15.7545,0,1.0503,-0.0001487144,15.7545,0
1.0512,0.0001218585,15.768,0,1.0512,-6.042573E-05,15.768,0
1.0521,-2.316319E-05,15.7815,0,1.0521,7.452507E-05,15.7815,0
1.053,-0.0001104448,15.795,0,1.053,3.726253E-05,15.795,0
1.0539,-0.0001292439,15.8085,0,1.0539,-2.349889E-05,15.8085,0
1.0548,-2.987716E-05,15.822,0,1.0548,-6.6804E-05,15.822,0
1.0557,-0.0002312963,15.8355,0,1.0557,-1.544213E-05,15.8355,0
1.0566,-0.0005891508,15.849,0,1.0566,-1.712062E-05,15.849,0
1.0575,-0.000625742,15.8625,0,1.0575,-6.61326E-05,15.8625,0
1.0584,-0.0005250324,15.876,0,1.0584,-0.0001232013,15.876,0
1.0593,-0.0005757229,15.8895,0,1.0593,-0.0001003738,15.8895,0
1.0602,-0.0003138781,15.903,0,1.0602,-9.466698E-05,15.903,0
1.0611,0.000246067,15.9165,0,1.0611,-0.0002027619,15.9165,0
1.062,0.0004562142,15.93,0,1.062,-2.349889E-05,15.93,0
1.0629,0.0005206683,15.9435,0,1.0629,5.136187E-05,15.9435,0
1.0638,0.0004938125,15.957,0,1.0638,6.478981E-05,15.957,0
1.0647,0.0003487907,15.9705,0,1.0647,-3.356985E-07,15.9705,0
1.0656,1.644922E-05,15.984,0,1.0656,5.169757E-05,15.984,0
1.0665,7.821774E-05,15.9975,0,1.0665,0.0001077592,15.9975,0
1.0674,0.0002306248,16.011,0,1.0674,-1.980621E-05,16.011,0
1.0683,0.0001258869,16.0245,0,1.0683,-5.975433E-05,16.0245,0
1.0692,-5.706874E-06,16.038,0,1.0692,-1.409934E-05,16.038,0
1.0701,-4.934768E-05,16.0515,0,1.0701,7.049668E-06,16.0515,0
1.071,-7.318227E-05,16.065,0,1.071,-4.33051E-05,16.065,0
1.0719,-9.231708E-05,16.0785,0,1.0719,-6.344701E-05,16.0785,0
1.0728,-0.0001027237,16.092,0,1.0728,0.0001433432,16.092,0
1.0737,-0.0001211871,16.1055,0,1.0737,0.0001846342,16.1055,0
1.0746,7.855344E-05,16.119,0,1.0746,1.812772E-05,16.119,0
1.0755,3.961242E-05,16.1325,0,1.0755,0.000144686,16.1325,0
1.0764,-2.887007E-05,16.146,0,1.0764,-4.867628E-05,16.146,0
1.0773,7.855344E-05,16.1595,0,1.0773,-0.0003655757,16.1595,0
1.0782,-0.000105745,16.173,0,1.0782,-0.0006878462,16.173,0
1.0791,-0.0002578164,16.1865,0,1.0791,-0.0007606928,16.1865,0
1.08,-0.0001560998,16.2,0,1.08,-0.000562295,16.2,0
1.0809,-7.049668E-05,16.2135,0,1.0809,-0.0001712062,16.2135,0
1.0818,-8.291753E-05,16.227,0,1.0818,0.0003353628,16.227,0
1.0827,-5.069047E-05,16.2405,0,1.0827,0.0004595712,16.2405,0
1.0836,-2.920577E-05,16.254,0,1.0836,0.0004072023,16.254,0
1.0845,-1.980621E-05,16.2675,0,1.0845,0.0003991455,16.2675,0
1.0854,-7.721065E-06,16.281,0,1.0854,0.0003487907,16.281,0
1.0863,-0.0001215228,16.2945,0,1.0863,0.0002514381,16.2945,0
1.0872,-9.164568E-05,16.308,0,1.0872,0.0002406958,16.308,0
1.0881,-1.107805E-05,16.3215,0,1.0881,0.0001064164,16.3215,0
1.089,-5.975433E-05,16.335,0,1.089,2.1149E-05,16.335,0
1.0899,3.356985E-05,16.3485,0,1.0899,3.289845E-05,16.3485,0
1.0908,-2.383459E-05,16.362,0,1.0908,-1.443504E-05,16.362,0
1.0917,-6.344701E-05,16.3755,0,1.0917,1.947051E-05,16.3755,0
1.0926,-1.510643E-05,16.389,0,1.0926,0.0001889983,16.389,0
1.0935,-9.399558E-06,16.4025,0,1.0935,6.6804E-05,16.4025,0
1.0944,-5.203327E-05,16.416,0,1.0944,-0.0001789273,16.416,0
1.0953,-2.417029E-05,16.4295,0,1.0953,-0.0001816129,16.4295,0
1.0962,-3.558404E-05,16.443,0,1.0962,-0.0001473716,16.443,0
1.0971,-4.229801E-05,16.4565,0,1.0971,-0.0001379721,16.4565,0
1.098,4.196231E-05,16.47,0,1.098,-0.000130251,16.47,0
1.0989,0.0001889983,16.4835,0,1.0989,-3.256275E-05,16.4835,0
1.0998,5.169757E-05,16.497,0,1.0998,-6.378271E-05,16.497,0
1.1007,0.0001064164,16.5105,0,1.1007,-0.0001514,16.5105,0
1.1016,0.0002480812,16.524,0,1.1016,-0.0001248798,16.524,0
1.1025,4.565499E-05,16.5375,0,1.1025,-2.316319E-05,16.5375,0
1.1034,9.063859E-06,16.551,0,1.1034,-2.819867E-05,16.551,0
1.1043,6.64683E-05,16.5645,0,1.1043,-2.21561E-05,16.5645,0
1.1052,-3.692683E-06,16.578,0,1.1052,-0.0001309224,16.578,0
1.1061,-0.000126894,16.5915,0,1.1061,-0.0002007477,16.5915,0
1.107,-8.023193E-05,16.605,0,1.107,-0.0002366674,16.605,0
1.1079,-7.855344E-05,16.6185,0,1.1079,-0.000193698,16.6185,0
1.1088,7.049668E-06,16.632,0,1.1088,6.6804E-05,16.632,0
1.1097,4.901198E-05,16.6455,0,1.1097,0.0004797131,16.6455,0
1.1106,3.256275E-05,16.659,0,1.1106,0.0003232776,16.659,0
1.1115,3.994812E-05,16.6725,0,1.1115,0.0002467384,16.6725,0
1.1124,6.344701E-05,16.686,0,1.1124,0.000270573,16.686,0
1.1133,-7.150377E-05,16.6995,0,1.1133,0.0002010834,16.6995,0
1.1142,-0.0001950408,16.713,0,1.1142,-2.853437E-05,16.713,0
1.1151,-0.0002396887,16.7265,0,1.1151,-0.0004270085,16.7265,0
1.116,-0.0001856413,16.74,0,1.116,-0.0003565118,16.74,0
1.1169,-7.016098E-05,16.7535,0,1.1169,-0.0002312963,16.7535,0
1.1178,9.433127E-05,16.767,0,1.1178,-0.0001386435,16.767,0
1.1187,0.0001748989,16.7805,0,1.1187,1.174945E-05,16.7805,0
1.1196,-0.0001138018,16.794,0,1.1196,0.0002041047,16.794,0
1.1205,-0.000172549,16.8075,0,1.1205,0.0002910506,16.8075,0
1.1214,-0.000148043,16.821,0,1.1214,0.0001715419,16.821,0
1.1223,6.64683E-05,16.8345,0,1.1223,-2.551309E-05,16.8345,0
1.1232,0.000404181,16.848,0,1.1232,-4.666209E-05,16.848,0
1.1241,0.0004803845,16.8615,0,1.1241,-4.800488E-05,16.8615,0
1.125,0.0003823606,16.875,0,1.125,-0.0001272297,16.875,0
1.1259,0.0002259251,16.8885,0,1.1259,-0.0001866484,16.8885,0
1.1268,-3.021286E-06,16.902,0,1.1268,-4.733349E-05,16.902,0
1.1277,7.956054E-05,16.9155,0,1.1277,-4.061952E-05,16.9155,0
1.1286,6.948959E-05,16.929,0,1.1286,-8.82887E-05,16.929,0
1.1295,-0.000256138,16.9425,0,1.1295,-7.553216E-05,16.9425,0
1.1304,-0.0004307012,16.956,0,1.1304,-0.0001319295,16.956,0
1.1313,-0.0003434196,16.9695,0,1.1313,-0.0001789273,16.9695,0
1.1322,-0.0004377508,16.983,0,1.1322,-0.0001131304,16.983,0
1.1331,-0.000285008,16.9965,0,1.1331,-8.392462E-05,16.9965,0
1.134,2.047761E-05,17.01,0,1.134,-5.606165E-05,17.01,0
1.1349,0.0001688563,17.0235,0,1.1349,-3.591974E-05,17.0235,0
1.1358,0.0003172351,17.037,0,1.1358,-8.325322E-05,17.037,0
1.1367,0.0002030976,17.0505,0,1.1367,-7.956054E-05,17.0505,0
1.1376,-0.0001560998,17.064,0,1.1376,-0.0002084688,17.064,0
1.1385,-0.0002057832,17.0775,0,1.1385,-0.0003313344,17.0775,0
1.1394,-9.835965E-05,17.091,0,1.1394,-0.0002715801,17.091,0
1.1403,-0.0001178302,17.1045,0,1.1403,-2.417029E-05,17.1045,0
1.1412,-7.183947E-05,17.118,0,1.1412,0.000246067,17.118,0
1.1421,2.987716E-05,17.1315,0,1.1421,0.0003474479,17.1315,0
1.143,-6.277562E-05,17.145,0,1.143,0.0002668803,17.145,0
1.1439,3.894102E-05,17.1585,0,1.1439,0.0001255512,17.1585,0
1.1448,0.000197055,17.172,0,1.1448,0.0001252155,17.172,0
1.1457,0.0001618067,17.1855,0,1.1457,0.0001822843,17.1855,0
1.1466,7.721065E-06,17.199,0,1.1466,0.0001312581,17.199,0
1.1475,3.289845E-05,17.2125,0,1.1475,1.376364E-05,17.2125,0
1.1484,1.644922E-05,17.226,0,1.1484,-5.606165E-05,17.226,0
1.1493,-2.719158E-05,17.2395,0,1.1493,-0.0002346532,17.2395,0
1.1502,-4.36408E-06,17.253,0,1.1502,-0.0001896696,17.253,0
1.1511,0.0001104448,17.2665,0,1.1511,-8.224613E-05,17.2665,0
1.152,0.0001003738,17.28,0,1.152,7.888914E-05,17.28,0
1.1529,0.0001262226,17.2935,0,1.1529,5.069047E-05,17.2935,0
1.1538,0,17.307,0,1.1538,-0.000130251,17.307,0
1.1547,-5.941863E-05,17.3205,0,1.1547,-0.0002131685,17.3205,0
1.1556,7.586786E-05,17.334,0,1.1556,-0.000193698,17.334,0
1.1565,-5.001907E-05,17.3475,0,1.1565,-0.0003588617,17.3475,0
1.1574,-9.365987E-05,17.361,0,1.1574,-0.0003659113,17.361,0
1.1583,3.155566E-05,17.3745,0,1.1583,-0.0002017548,17.3745,0
1.1592,1.712062E-05,17.388,0,1.1592,0.0002964218,17.388,0
1.1601,-1.040665E-05,17.4015,0,1.1601,0.000477699,17.4015,0
1.161,-2.28275E-05,17.415,0,1.161,0.000200412,17.415,0
1.1619,-6.076142E-05,17.4285,0,1.1619,7.083238E-05,17.4285,0
1.1628,2.719158E-05,17.442,0,1.1628,0.0001433432,17.442,0
1.1637,-0.0001037308,17.4555,0,1.1637,0.0001389792,17.4555,0
1.1646,-0.0002192111,17.469,0,1.1646,0.0002121614,17.469,0
1.1655,-2.517739E-05,17.4825,0,1.1655,0.0002541238,17.4825,0
1.1664,3.457694E-05,17.496,0,1.1664,0.0001319295,17.496,0
1.1673,-0.000109102,17.5095,0,1.1673,9.634547E-05,17.5095,0
1.1682,-5.774014E-05,17.523,0,1.1682,4.36408E-06,17.523,0
1.1691,7.016098E-05,17.5365,0,1.1691,-0.0001292439,17.5365,0
1.17,-0.0001346151,17.55,0,1.17,-0.0001151446,17.55,0
1.1709,-7.687495E-05,17.5635,0,1.1709,-0.0001889983,17.5635,0
1.1718,8.291753E-05,17.577,0,1.1718,-0.0002722515,17.577,0
1.1727,-3.994812E-05,17.5905,0,1.1727,-0.0002984359,17.5905,0
1.1736,-0.000109102,17.604,0,1.1736,-0.0002326391,17.604,0
1.1745,-3.659113E-05,17.6175,0,1.1745,-0.0002225681,17.6175,0
1.1754,-6.076142E-05,17.631,0,1.1754,-0.0002098116,17.631,0
1.1763,-9.735256E-06,17.6445,0,1.1763,-0.0001144732,17.6445,0
1.1772,-1.779202E-05,17.658,0,1.1772,2.18204E-05,17.658,0
1.1781,-8.493171E-05,17.6715,0,1.1781,4.028382E-05,17.6715,0
1.179,-2.349889E-05,17.685,0,1.179,1.309224E-05,17.685,0
1.1799,1.913481E-05,17.6985,0,1.1799,5.169757E-05,17.6985,0
1.1808,1.007095E-06,17.712,0,1.1808,2.786297E-05,17.712,0
1.1817,-7.183947E-05,17.7255,0,1.1817,-8.493171E-05,17.7255,0
1.1826,4.46479E-05,17.739,0,1.1826,-0.0001094377,17.739,0
1.1835,-3.121996E-05,17.7525,0,1.1835,-3.625543E-05,17.7525,0
1.1844,-0.0001245441,17.766,0,1.1844,-5.337606E-05,17.766,0
1.1853,-7.116808E-05,17.7795,0,1.1853,-0.0001426719,17.7795,0
1.1862,-2.853437E-05,17.793,0,1.1862,-0.0002695659,17.793,0
1.1871,0.0001037308,17.8065,0,1.1871,-0.0002417029,17.8065,0
1.188,0.0001097734,17.82,0,1.188,-0.0002598306,17.82,0
1.1889,-4.800488E-05,17.8335,0,1.1889,-0.0001621424,17.8335,0
1.1898,2.18204E-05,17.847,0,1.1898,0.0002225681,17.847,0
1.1907,0.0003313344,17.8605,0,1.1907,0.0003434196,17.8605,0
1.1916,0.0003850462,17.874,0,1.1916,0.0002464027,17.874,0
1.1925,0.0003111925,17.8875,0,1.1925,0.0003367056,17.8875,0
1.1934,0.0003336843,17.901,0,1.1934,0.0004625925,17.901,0
1.1943,0.0001644923,17.9145,0,1.1943,0.0004750133,17.9145,0
1.1952,2.584878E-05,17.928,0,1.1952,0.0002729229,17.928,0
1.1961,-8.627451E-05,17.9415,0,1.1961,0.0001285725,17.9415,0
1.197,-0.0003605402,17.955,0,1.197,0.0001094377,17.955,0
1.1979,-0.0003964599,17.9685,0,1.1979,-6.478981E-05,17.9685,0
1.1988,-0.0002517739,17.982,0,1.1988,-0.0002662089,17.982,0
1.1997,-0.0001618067,17.9955,0,1.1997,-0.0005270466,17.9955,0
1.2006,-0.0002302892,18.009,0,1.2006,-0.0006431983,18.009,0
1.2015,-0.0003014572,18.0225,0,1.2015,-0.0004619211,18.0225,0
1.2024,-0.0002319677,18.036,0,1.2024,-1.544213E-05,18.036,0
1.2033,-7.855344E-05,18.0495,0,1.2033,0.0003044785,18.0495,0
1.2042,-5.203327E-05,18.063,0,1.2042,0.0005663233,18.063,0
1.2051,-6.881819E-05,18.0765,0,1.2051,0.000640177,18.0765,0
1.206,-2.047761E-05,18.09,0,1.206,0.0004226444,18.09,0
1.2069,7.989624E-05,18.1035,0,1.2069,0.0001527428,18.1035,0
1.2078,1.309224E-05,18.117,0,1.2078,9.869535E-05,18.117,0
1.2087,0.0001151446,18.1305,0,1.2087,-3.860533E-05,18.1305,0
1.2096,0.0002007477,18.144,0,1.2096,-0.0001712062,18.144,0
1.2105,-1.712062E-05,18.1575,0,1.2105,-0.0002259251,18.1575,0
1.2114,-0.0001342794,18.171,0,1.2114,-0.0002974289,18.171,0
1.2123,-6.344701E-05,18.1845,0,1.2123,-0.0002913863,18.1845,0
1.2132,-0.0001228656,18.198,0,1.2132,-9.500267E-05,18.198,0
1.2141,-0.000200412,18.2115,0,1.2141,7.217517E-05,18.2115,0
1.215,-9.567407E-05,18.225,0,1.215,1.309224E-05,18.225,0
1.2159,-1.644922E-05,18.2385,0,1.2159,1.040665E-05,18.2385,0
1.2168,-5.001907E-05,18.252,0,1.2168,-0.0001977264,18.252,0
1.2177,3.860533E-05,18.2655,0,1.2177,-0.0002366674,18.2655,0
1.2186,0.0002098116,18.279,0,1.2186,-8.86244E-05,18.279,0
1.2195,0.0002695659,18.2925,0,1.2195,5.169757E-05,18.2925,0
1.2204,0.0001967193,18.306,0,1.2204,1.107805E-05,18.306,0
1.2213,9.063859E-06,18.3195,0,1.2213,3.457694E-05,18.3195,0
1.2222,-3.491264E-05,18.333,0,1.2222,-6.243992E-05,18.333,0
1.2231,0.0001138018,18.3465,0,1.2231,-5.304036E-05,18.3465,0
1.224,0.0001070878,18.36,0,1.224,3.356985E-06,18.36,0
1.2249,5.471885E-05,18.3735,0,1.2249,-0.0002131685,18.3735,0
1.2258,7.956054E-05,18.387,0,1.2258,-0.0003900816,18.387,0
1.2267,5.941863E-05,18.4005,0,1.2267,-0.0002860151,18.4005,0
1.2276,9.701686E-05,18.414,0,1.2276,-0.0001510643,18.414,0
1.2285,6.814679E-05,18.4275,0,1.2285,-3.558404E-05,18.4275,0
1.2294,7.351797E-05,18.441,0,1.2294,-6.54612E-05,18.441,0
1.2303,6.814679E-05,18.4545,0,1.2303,-0.0001218585,18.4545,0
1.2312,1.309224E-05,18.468,0,1.2312,-0.0001628138,18.468,0
1.2321,-1.409934E-05,18.4815,0,1.2321,-7.284657E-05,18.4815,0
1.233,2.652018E-05,18.495,0,1.233,-3.558404E-05,18.495,0
1.2339,7.183947E-05,18.5085,0,1.2339,5.639734E-05,18.5085,0
1.2348,-4.766919E-05,18.522,0,1.2348,8.123904E-05,18.522,0
1.2357,-7.855344E-05,18.5355,0,1.2357,-0.0002746014,18.5355,0
1.2366,-2.24918E-05,18.549,0,1.2366,-0.0004354009,18.549,0
1.2375,-2.316319E-05,18.5625,0,1.2375,-0.0003736324,18.5625,0
1.2384,-5.136187E-05,18.576,0,1.2384,-0.0003655757,18.576,0
1.2393,-2.1149E-05,18.5895,0,1.2393,-0.0003195849,18.5895,0
1.2402,0.0001097734,18.603,0,1.2402,0.0003863889,18.603,0
1.2411,4.129091E-05,18.6165,0,1.2411,0.0006865034,18.6165,0
1.242,0.0001044022,18.63,0,1.242,0.0006173495,18.63,0
1.2429,-5.136187E-05,18.6435,0,1.2429,0.0003783322,18.6435,0
1.2438,-0.0001198444,18.657,0,1.2438,8.392462E-05,18.657,0
1.2447,3.692683E-06,18.6705,0,1.2447,0.0004155947,18.6705,0
1.2456,-7.083238E-05,18.684,0,1.2456,0.0002208896,18.684,0
1.2465,-5.035477E-06,18.6975,0,1.2465,-0.0001339437,18.6975,0
1.2474,4.800488E-05,18.711,0,1.2474,-0.0002897078,18.711,0
1.2483,-0.0001054093,18.7245,0,1.2483,-0.000327306,18.7245,0
1.2492,-7.788205E-05,18.738,0,1.2492,-0.0001816129,18.738,0
1.2501,6.61326E-05,18.7515,0,1.2501,5.807584E-05,18.7515,0
1.251,-6.076142E-05,18.765,0,1.251,0.0001654994,18.765,0
1.2519,-2.316319E-05,18.7785,0,1.2519,0.0002487526,18.7785,0
1.2528,3.726253E-05,18.792,0,1.2528,0.0002668803,18.792,0
1.2537,3.860533E-05,18.8055,0,1.2537,0.0004317082,18.8055,0
1.2546,-8.82887E-05,18.819,0,1.2546,0.0005280537,18.819,0
1.2555,-1.980621E-05,18.8325,0,1.2555,0.000421973,18.8325,0
1.2564,2.920577E-05,18.846,0,1.2564,0.0003232776,18.846,0
1.2573,8.89601E-05,18.8595,0,1.2573,0.0001564355,18.8595,0
1.2582,0.0001923552,18.873,0,1.2582,-2.047761E-05,18.873,0
1.2591,0.0001554284,18.8865,0,1.2591,-0.0001463645,18.8865,0
1.26,7.754635E-05,18.9,0,1.26,-0.0004605783,18.9,0
1.2609,5.001907E-05,18.9135,0,1.2609,-0.0005327535,18.9135,0
1.2618,-7.150377E-05,18.927,0,1.2618,-0.0002158541,18.927,0
1.2627,-0.0001641566,18.9405,0,1.2627,-0.0001607996,18.9405,0
1.2636,-8.627451E-05,18.954,0,1.2636,-0.0001520714,18.954,0
1.2645,-0.0001802701,18.9675,0,1.2645,2.752728E-05,18.9675,0
1.2654,-0.0002064546,18.981,0,1.2654,-1.913481E-05,18.981,0
1.2663,-0.0001685206,18.9945,0,1.2663,-0.0001279011,18.9945,0
1.2672,-0.0001430075,19.008,0,1.2672,-2.316319E-05,19.008,0
1.2681,-6.478981E-05,19.0215,0,1.2681,-9.533837E-05,19.0215,0
1.269,0.0001715419,19.035,0,1.269,-0.0001973907,19.035,0
1.2699,0.00036289,19.0485,0,1.2699,-0.000186984,19.0485,0
1.2708,0.0003434196,19.062,0,1.2708,-0.0002165255,19.062,0
1.2717,6.948959E-05,19.0755,0,1.2717,-0.0002007477,19.0755,0
1.2726,-0.0002024262,19.089,0,1.2726,-0.0001896696,19.089,0
1.2735,-0.0001681849,19.1025,0,1.2735,-0.0002145113,19.1025,0
1.2744,-8.191043E-05,19.116,0,1.2744,-0.0001497215,19.116,0
1.2753,3.894102E-05,19.1295,0,1.2753,-6.311131E-05,19.1295,0
1.2762,9.063859E-06,19.143,0,1.2762,-0.000115816,19.143,0
1.2771,-4.632639E-05,19.1565,0,1.2771,-0.0001651637,19.1565,0
1.278,-0.0001769131,19.17,0,1.278,-4.39765E-05,19.17,0
1.2789,-0.0001138018,19.1835,0,1.2789,8.426032E-05,19.1835,0
1.2798,-0.000102388,19.197,0,1.2798,-0.000109102,19.197,0
1.2807,-0.000252781,19.2105,0,1.2807,-2.618448E-05,19.2105,0
1.2816,-0.000267216,19.224,0,1.2816,3.289845E-05,19.224,0
1.2825,-9.097429E-05,19.2375,0,1.2825,-1.443504E-05,19.2375,0
1.2834,-2.21561E-05,19.251,0,1.2834,7.486076E-05,19.251,0
1.2843,8.291753E-05,19.2645,0,1.2843,0.0001070878,19.2645,0
1.2852,0.0001164874,19.278,0,1.2852,0.0001326009,19.278,0
1.2861,0.0001097734,19.2915,0,1.2861,5.102617E-05,19.2915,0
1.287,0.0001607996,19.305,0,1.287,1.846342E-05,19.305,0
1.2879,0.0001030594,19.3185,0,1.2879,5.706874E-06,19.3185,0
1.2888,1.107805E-05,19.332,0,1.2888,9.063859E-06,19.332,0
1.2897,-0.0001896696,19.3455,0,1.2897,-4.263371E-05,19.3455,0
1.2906,-0.0001705348,19.359,0,1.2906,-3.692683E-05,19.359,0
1.2915,-9.936675E-05,19.3725,0,1.2915,2.450599E-05,19.3725,0
1.2924,-0.0001185016,19.386,0,1.2924,6.378271E-06,19.386,0
1.2933,1.678492E-06,19.3995,0,1.2933,-0.0001017166,19.3995,0
1.2942,-1.510643E-05,19.413,0,1.2942,-1.040665E-05,19.413,0
1.2951,1.544213E-05,19.4265,0,1.2951,5.807584E-05,19.4265,0
1.296,0.0002944076,19.44,0,1.296,0.0001218585,19.44,0
1.2969,0.0003246204,19.4535,0,1.2969,0.0002511025,19.4535,0
1.2978,8.69459E-05,19.467,0,1.2978,-9.735256E-06,19.467,0
1.2987,4.33051E-05,19.4805,0,1.2987,-0.0001060807,19.4805,0
1.2996,0.0001319295,19.494,0,1.2996,-1.477073E-05,19.494,0
1.3005,0.0001688563,19.5075,0,1.3005,-3.121996E-05,19.5075,0
1.3014,0.0001111162,19.521,0,1.3014,3.021286E-06,19.521,0
1.3023,-1.544213E-05,19.5345,0,1.3023,0.0001279011,19.5345,0
1.3032,-6.6804E-05,19.548,0,1.3032,6.210422E-05,19.548,0
1.3041,4.599069E-05,19.5615,0,1.3041,-7.553216E-05,19.5615,0
1.305,5.874724E-05,19.575,0,1.305,-8.89601E-05,19.575,0
1.3059,7.385367E-06,19.5885,0,1.3059,-3.625543E-05,19.5885,0
1.3068,-2.484169E-05,19.602,0,1.3068,-3.793393E-05,19.602,0
1.3077,4.901198E-05,19.6155,0,1.3077,-3.121996E-05,19.6155,0
1.3086,-5.706874E-05,19.629,0,1.3086,7.721065E-06,19.629,0
1.3095,-0.0001201801,19.6425,0,1.3095,-0.0001084306,19.6425,0
1.3104,-1.779202E-05,19.656,0,1.3104,-0.0001467002,19.656,0
1.3113,4.263371E-05,19.6695,0,1.3113,-0.0003014572,19.6695,0
1.3122,-4.028382E-05,19.683,0,1.3122,-0.0002903792,19.683,0
1.3131,-6.311131E-05,19.6965,0,1.3131,-0.0001832914,19.6965,0
1.314,1.812772E-05,19.71,0,1.314,-0.000257145,19.71,0
1.3149,3.121996E-05,19.7235,0,1.3149,-0.000218204,19.7235,0
1.3158,-0.0001406577,19.737,0,1.3158,1.040665E-05,19.737,0
1.3167,-9.970245E-05,19.7505,0,1.3167,2.1149E-05,19.7505,0
1.3176,8.426032E-05,19.764,0,1.3176,-9.701686E-05,19.764,0
1.3185,-3.558404E-05,19.7775,0,1.3185,-6.411841E-05,19.7775,0
1.3194,-3.323415E-05,19.791,0,1.3194,3.356985E-06,19.791,0
1.3203,1.712062E-05,19.8045,0,1.3203,3.121996E-05,19.8045,0
1.3212,-5.639734E-05,19.818,0,1.3212,0.0004293584,19.818,0
1.3221,-4.766919E-05,19.8315,0,1.3221,0.0005441672,19.8315,0
1.323,6.243992E-05,19.845,0,1.323,0.0004975051,19.845,0
1.3239,-3.121996E-05,19.8585,0,1.3239,0.0002541238,19.8585,0
1.3248,-5.975433E-05,19.872,0,1.3248,8.996719E-05,19.872,0
1.3257,2.18204E-05,19.8855,0,1.3257,0.0001957122,19.8855,0
1.3266,-2.853437E-05,19.899,0,1.3266,0.0001084306,19.899,0
1.3275,-7.989624E-05,19.9125,0,1.3275,-6.243992E-05,19.9125,0
1.3284,2.920577E-05,19.926,0,1.3284,-0.0001104448,19.926,0
1.3293,-5.841154E-05,19.9395,0,1.3293,-6.378271E-05,19.9395,0
1.3302,-3.927672E-05,19.953,0,1.3302,-7.821774E-05,19.953,0
1.3311,3.524834E-05,19.9665,0,1.3311,-0.0001399863,19.9665,0
1.332,-0.0001624781,19.98,0,1.332,-6.61326E-05,19.98,0
1.3329,-8.69459E-05,19.9935,0,1.3329,-1.376364E-05,19.9935,0
1.3338,3.726253E-05,20.007,0,1.3338,-6.243992E-05,20.007,0
1.3347,-0.0001027237,20.0205,0,1.3347,-3.021286E-06,20.0205,0
1.3356,-0.0001460288,20.034,0,1.3356,5.975433E-05,20.034,0
1.3365,-1.242084E-05,20.0475,0,1.3365,-9.130999E-05,20.0475,0
1.3374,7.553216E-05,20.061,0,1.3374,-0.0003642329,20.061,0
1.3383,-8.291753E-05,20.0745,0,1.3383,-0.0007324941,20.0745,0
1.3392,-0.0002195468,20.088,0,1.3392,-0.0007620355,20.088,0
1.3401,-0.0001399863,20.1015,0,1.3401,-0.0004588998,20.1015,0
1.341,-5.236896E-05,20.115,0,1.341,-0.0002192111,20.115,0
1.3419,0.0001107805,20.1285,0,1.3419,0.0003706111,20.1285,0
1.3428,0.0002259251,20.142,0,1.3428,0.0008993362,20.142,0
1.3437,0.0001886625,20.1555,0,1.3437,0.0008133974,20.1555,0
1.3446,8.358892E-05,20.169,0,1.3446,0.0004380865,20.169,0
1.3455,0.0001849699,20.1825,0,1.3455,0.000288365,20.1825,0
1.3464,0.0001574426,20.196,0,1.3464,7.385367E-05,20.196,0
1.3473,2.484169E-05,20.2095,0,1.3473,-0.0001836271,20.2095,0
1.3482,-3.054856E-05,20.223,0,1.3482,-0.0002668803,20.223,0
1.3491,-0.0001080949,20.2365,0,1.3491,-0.0002930648,20.2365,0
1.35,-0.0001560998,20.25,0,1.35,-0.0004511788,20.25,0
1.3509,-0.0001886625,20.2635,0,1.3509,-0.0004112306,20.2635,0
1.3518,-7.553216E-05,20.277,0,1.3518,-0.0002601663,20.277,0
1.3527,8.92958E-05,20.2905,0,1.3527,1.678492E-05,20.2905,0
1.3536,0.0002380102,20.304,0,1.3536,0.0005351034,20.304,0
1.3545,0.0002319677,20.3175,0,1.3545,0.0006871748,20.3175,0
1.3554,7.083238E-05,20.331,0,1.3554,0.0003571832,20.331,0
1.3563,-3.927672E-05,20.3445,0,1.3563,0.0002467384,20.3445,0
1.3572,9.634547E-05,20.358,0,1.3572,0.0001272297,20.358,0
1.3581,0.0001618067,20.3715,0,1.3581,-3.189136E-05,20.3715,0
1.359,-2.18204E-05,20.385,0,1.359,-0.0001080949,20.385,0
1.3599,-0.0001013809,20.3985,0,1.3599,-0.0001319295,20.3985,0
1.3608,-8.291753E-05,20.412,0,1.3608,-0.0001510643,20.412,0
1.3617,-4.33051E-05,20.4255,0,1.3617,-9.030289E-05,20.4255,0
1.3626,-0.0001920195,20.439,0,1.3626,-0.0001366293,20.439,0
1.3635,-0.0001315938,20.4525,0,1.3635,-0.0002447242,20.4525,0
1.3644,-0.0001866484,20.466,0,1.3644,-0.0002118257,20.466,0
1.3653,-0.0001232013,20.4795,0,1.3653,-0.0001863127,20.4795,0
1.3662,-1.544213E-05,20.493,0,1.3662,-0.0001577783,20.493,0
1.3671,-0.000112459,20.5065,0,1.3671,-5.471885E-05,20.5065,0
1.368,-5.706874E-06,20.52,0,1.368,-5.438316E-05,20.52,0
1.3689,9.970245E-05,20.5335,0,1.3689,-7.083238E-05,20.5335,0
1.3698,-8.82887E-05,20.547,0,1.3698,-9.030289E-05,20.547,0
1.3707,-0.0001816129,20.5605,0,1.3707,-8.560311E-05,20.5605,0
1.3716,-0.0001806058,20.574,0,1.3716,-0.000130251,20.574,0
1.3725,-0.0002662089,20.5875,0,1.3725,-0.0001188373,20.5875,0
1.3734,-0.0001681849,20.601,0,1.3734,-0.0001497215,20.601,0
1.3743,1.007095E-05,20.6145,0,1.3743,-5.639734E-05,20.6145,0
1.3752,0.0003669185,20.628,0,1.3752,2.383459E-05,20.628,0
1.3761,0.0005072404,20.6415,0,1.3761,5.136187E-05,20.6415,0
1.377,0.0002695659,20.655,0,1.377,4.867628E-05,20.655,0
1.3779,9.164568E-05,20.6685,0,1.3779,1.309224E-05,20.6685,0
1.3788,6.076142E-05,20.682,0,1.3788,-7.418937E-05,20.682,0
1.3797,-4.733349E-05,20.6955,0,1.3797,-4.666209E-05,20.6955,0
1.3806,-0.000109102,20.709,0,1.3806,-7.318227E-05,20.709,0
1.3815,-3.558404E-05,20.7225,0,1.3815,-0.0002813153,20.7225,0
1.3824,-6.378271E-06,20.736,0,1.3824,-0.0003588617,20.736,0
1.3833,-0.0001366293,20.7495,0,1.3833,-0.0003672541,20.7495,0
1.3842,-8.92958E-05,20.763,0,1.3842,-0.0003736324,20.763,0
1.3851,8.191043E-05,20.7765,0,1.3851,-2.18204E-05,20.7765,0
1.386,2.28275E-05,20.79,0,1.386,0.0003048142,20.79,0
1.3869,1.242084E-05,20.8035,0,1.3869,0.0003591974,20.8035,0
1.3878,5.337606E-05,20.817,0,1.3878,0.0002742657,20.817,0
1.3887,3.356985E-07,20.8305,0,1.3887,0.000340734,20.8305,0
1.3896,-0.0001067521,20.844,0,1.3896,0.0001900053,20.844,0
1.3905,-6.277562E-05,20.8575,0,1.3905,0.0001225299,20.8575,0
1.3914,-2.853437E-05,20.871,0,1.3914,0.0001957122,20.871,0
1.3923,7.217517E-05,20.8845,0,1.3923,5.706874E-05,20.8845,0
1.3932,-3.021286E-06,20.898,0,1.3932,-0.0001477073,20.898,0
1.3941,-7.318227E-05,20.9115,0,1.3941,-0.000126894,20.9115,0
1.395,7.721065E-06,20.925,0,1.395,-0.0001537499,20.925,0
1.3959,0.0001064164,20.9385,0,1.3959,-0.0001671778,20.9385,0
1.3968,-2.383459E-05,20.952,0,1.3968,8.560311E-05,20.952,0
1.3977,-5.539025E-05,20.9655,0,1.3977,0.000218204,20.9655,0
1.3986,0.0001017166,20.979,0,1.3986,-2.1149E-05,20.979,0
1.3995,7.653925E-05,20.9925,0,1.3995,-0.0001309224,20.9925,0
1.4004,4.36408E-06,21.006,0,1.4004,-0.000144686,21.006,0
1.4013,0.0001188373,21.0195,0,1.4013,1.846342E-05,21.0195,0
1.4022,5.606165E-05,21.033,0,1.4022,0.0002719158,21.033,0
1.4031,-4.53193E-05,21.0465,0,1.4031,0.0003726253,21.0465,0
1.404,3.390555E-05,21.06,0,1.404,0.0002480812,21.06,0
1.4049,-1.812772E-05,21.0735,0,1.4049,6.277562E-05,21.0735,0
1.4058,-7.016098E-05,21.087,0,1.4058,-0.0002155184,21.087,0
1.4067,-0.0001514,21.1005,0,1.4067,-0.0002457313,21.1005,0
1.4076,-0.0002383459,21.114,0,1.4076,-0.0002621805,21.114,0
1.4085,-0.0001329366,21.1275,0,1.4085,-0.0001493858,21.1275,0
1.4094,-1.544213E-05,21.141,0,1.4094,2.24918E-05,21.141,0
1.4103,-4.733349E-05,21.1545,0,1.4103,8.224613E-05,21.1545,0
1.4112,-5.807584E-05,21.168,0,1.4112,-6.042573E-05,21.168,0
1.4121,3.692683E-05,21.1815,0,1.4121,-0.000148043,21.1815,0
1.413,5.539025E-05,21.195,0,1.413,-0.000109102,21.195,0
1.4139,2.383459E-05,21.2085,0,1.4139,-0.0001252155,21.2085,0
1.4148,5.606165E-05,21.222,0,1.4148,-0.0001980621,21.222,0
1.4157,3.189136E-05,21.2355,0,1.4157,-0.0002312963,21.2355,0
1.4166,-1.174945E-05,21.249,0,1.4166,-0.0004145876,21.249,0
1.4175,8.392462E-06,21.2625,0,1.4175,-0.0004390936,21.2625,0
1.4184,-5.136187E-05,21.276,0,1.4184,-0.000379675,21.276,0
1.4193,-1.779202E-05,21.2895,0,1.4193,-0.00024271,21.2895,0
1.4202,-8.627451E-05,21.303,0,1.4202,0.0003716182,21.303,0
1.4211,-0.0001453574,21.3165,0,1.4211,0.0006143282,21.3165,0
1.422,-0.0001178302,21.33,0,1.422,0.0004424506,21.33,0
1.4229,-0.0002044404,21.3435,0,1.4229,0.00033402,21.3435,0
1.4238,-0.0002890364,21.357,0,1.4238,0.0002433814,21.357,0
1.4247,-0.0001641566,21.3705,0,1.4247,0.0001809415,21.3705,0
1.4256,7.150377E-05,21.384,0,1.4256,2.1149E-05,21.384,0
1.4265,3.692683E-06,21.3975,0,1.4265,-3.591974E-05,21.3975,0
1.4274,-1.376364E-05,21.411,0,1.4274,-4.33051E-05,21.411,0
1.4283,-4.666209E-05,21.4245,0,1.4283,-0.0001151446,21.4245,0
1.4292,9.567407E-05,21.438,0,1.4292,-0.0001292439,21.438,0
1.4301,0.0002343175,21.4515,0,1.4301,-3.625543E-05,21.4515,0
1.431,0.000376318,21.465,0,1.431,-8.493171E-05,21.465,0
1.4319,0.0002668803,21.4785,0,1.4319,-0.0002759442,21.4785,0
1.4328,0.0002826581,21.492,0,1.4328,-0.0003108568,21.492,0
1.4337,0.0001564355,21.5055,0,1.4337,-0.0001003738,21.5055,0
1.4346,-0.0001319295,21.519,0,1.4346,9.164568E-05,21.519,0
1.4355,-1.644922E-05,21.5325,0,1.4355,0.0001789273,21.5325,0
1.4364,0.0001564355,21.546,0,1.4364,0.0002876936,21.546,0
1.4373,-7.217517E-05,21.5595,0,1.4373,0.0002803082,21.5595,0
1.4382,-9.533837E-05,21.573,0,1.4382,0.0001550927,21.573,0
1.4391,9.500267E-05,21.5865,0,1.4391,7.418937E-05,21.5865,0
1.44,-6.277562E-05,21.6,0,1.44,0.0001228656,21.6,0
1.4409,-5.337606E-05,21.6135,0,1.4409,9.332418E-05,21.6135,0
1.4418,1.242084E-05,21.627,0,1.4418,-1.477073E-05,21.627,0
1.4427,2.517739E-05,21.6405,0,1.4427,-6.713969E-07,21.6405,0
1.4436,-0.000126894,21.654,0,1.4436,-8.392462E-06,21.654,0
1.4445,-0.0001816129,21.6675,0,1.4445,3.155566E-05,21.6675,0
1.4454,-0.0001514,21.681,0,1.4454,3.021286E-06,21.681,0
1.4463,-0.0001054093,21.6945,0,1.4463,-8.89601E-05,21.6945,0
1.4472,-3.390555E-05,21.708,0,1.4472,-7.586786E-05,21.708,0
1.4481,6.915389E-05,21.7215,0,1.4481,-0.0001742275,21.7215,0
1.449,7.217517E-05,21.735,0,1.449,-0.0002400244,21.735,0
1.4499,9.030289E-05,21.7485,0,1.4499,-0.0002363317,21.7485,0
1.4508,-1.846342E-05,21.762,0,1.4508,-0.0002662089,21.762,0
1.4517,-5.908293E-05,21.7755,0,1.4517,-0.0001527428,21.7755,0
1.4526,3.189136E-05,21.789,0,1.4526,3.692683E-06,21.789,0
1.4535,-1.678492E-06,21.8025,0,1.4535,6.948959E-05,21.8025,0
1.4544,-4.53193E-05,21.816,0,1.4544,0.0001013809,21.816,0
1.4553,-0.0001201801,21.8295,0,1.4553,0.0001252155,21.8295,0
1.4562,-0.0001040665,21.843,0,1.4562,6.948959E-05,21.843,0
1.4571,-0.0001346151,21.8565,0,1.4571,-9.634547E-05,21.8565,0
1.458,-8.191043E-05,21.87,0,1.458,-0.0002185397,21.87,0
1.4589,-5.539025E-05,21.8835,0,1.4589,-0.0002088045,21.8835,0
1.4598,8.761731E-05,21.897,0,1.4598,-0.0001762417,21.897,0
1.4607,0.0001033951,21.9105,0,1.4607,-8.627451E-05,21.9105,0
1.4616,7.016098E-05,21.924,0,1.4616,9.030289E-05,21.924,0
1.4625,0.0001258869,21.9375,0,1.4625,9.567407E-05,21.9375,0
1.4634,0.0001101091,21.951,0,1.4634,6.109713E-05,21.951,0
1.4643,-2.652018E-05,21.9645,0,1.4643,0.0001319295,21.9645,0
1.4652,-3.860533E-05,21.978,0,1.4652,2.920577E-05,21.978,0
1.4661,9.768826E-05,21.9915,0,1.4661,-0.000105745,21.9915,0
1.467,-6.009003E-05,22.005,0,1.467,1.242084E-05,22.005,0
1.4679,-5.841154E-05,22.0185,0,1.4679,2.14847E-05,22.0185,0
1.4688,9.433127E-05,22.032,0,1.4688,-0.0001174945,22.032,0
1.4697,2.1149E-05,22.0455,0,1.4697,-0.000144686,22.0455,0
1.4706,-8.258183E-05,22.059,0,1.4706,-6.411841E-05,22.059,0
1.4715,-1.577783E-05,22.0725,0,1.4715,-0.0001003738,22.0725,0
1.4724,2.1149E-05,22.086,0,1.4724,-0.0001564355,22.086,0
1.4733,6.814679E-05,22.0995,0,1.4733,-0.0001500572,22.0995,0
1.4742,5.706874E-05,22.113,0,1.4742,-8.157473E-05,22.113,0
1.4751,-0.0001255512,22.1265,0,1.4751,-0.0001436789,22.1265,0
1.476,-7.553216E-05,22.14,0,1.476,-5.807584E-05,22.14,0
1.4769,7.049668E-06,22.1535,0,1.4769,0.0003293202,22.1535,0
1.4778,-3.289845E-05,22.167,0,1.4778,0.0005367819,22.167,0
1.4787,-3.021286E-05,22.1805,0,1.4787,0.0003971313,22.1805,0
1.4796,3.625543E-05,22.194,0,1.4796,0.0001171588,22.194,0
1.4805,1.712062E-05,22.2075,0,1.4805,8.023193E-05,22.2075,0
1.4814,5.270466E-05,22.221,0,1.4814,8.761731E-05,22.221,0
1.4823,6.210422E-05,22.2345,0,1.4823,-1.107805E-05,22.2345,0
1.4832,0.0001577783,22.248,0,1.4832,1.510643E-05,22.248,0
1.4841,-8.392462E-06,22.2615,0,1.4841,-6.009003E-05,22.2615,0
1.485,-1.107805E-05,22.275,0,1.485,-0.0001174945,22.275,0
1.4859,7.989624E-05,22.2885,0,1.4859,-6.277562E-05,22.2885,0
1.4868,3.961242E-05,22.302,0,1.4868,-0.0001571069,22.302,0
1.4877,-3.524834E-05,22.3155,0,1.4877,-0.0001188373,22.3155,0
1.4886,-0.0001524071,22.329,0,1.4886,-0.000123537,22.329,0
1.4895,-0.0001376364,22.3425,0,1.4895,-0.0001708705,22.3425,0
1.4904,-0.0001957122,22.356,0,1.4904,-0.000109102,22.356,0
1.4913,-0.0002554666,22.3695,0,1.4913,-7.721065E-05,22.3695,0
1.4922,-0.0001520714,22.383,0,1.4922,-6.344701E-05,22.383,0
1.4931,-1.812772E-05,22.3965,0,1.4931,-8.96315E-05,22.3965,0
1.494,-1.477073E-05,22.41,0,1.494,-6.445411E-05,22.41,0
1.4949,6.948959E-05,22.4235,0,1.4949,-7.351797E-05,22.4235,0
1.4958,0.0002329748,22.437,0,1.4958,-0.0001201801,22.437,0
1.4967,0.0003179065,22.4505,0,1.4967,-7.385367E-05,22.4505,0
1.4976,0.0001688563,22.464,0,1.4976,-0.0001211871,22.464,0
1.4985,9.735256E-06,22.4775,0,1.4985,-0.0002611734,22.4775,0
1.4994,-0.0001171588,22.491,0,1.4994,-0.0002574807,22.491,0
1.5003,0.0001097734,22.5045,0,1.5003,-0.0002413672,22.5045,0
1.5012,0.0001383078,22.518,0,1.5012,-0.0002507668,22.518,0
1.5021,-7.687495E-05,22.5315,0,1.5021,-8.96315E-05,22.5315,0
1.503,-8.761731E-05,22.545,0,1.503,0.0001671778,22.545,0
1.5039,-0.0001027237,22.5585,0,1.5039,0.0001715419,22.5585,0
1.5048,-0.0001698634,22.572,0,1.5048,0.0001742275,22.572,0
1.5057,-9.701686E-05,22.5855,0,1.5057,0.0001688563,22.5855,0
1.5066,-0.0001185016,22.599,0,1.5066,6.109713E-05,22.599,0
1.5075,-0.0002396887,22.6125,0,1.5075,5.304036E-05,22.6125,0
1.5084,-0.0001473716,22.626,0,1.5084,-5.035477E-06,22.626,0
1.5093,8.795301E-05,22.6395,0,1.5093,-3.256275E-05,22.6395,0
1.5102,0.0001728847,22.653,0,1.5102,-7.721065E-06,22.653,0
1.5111,0.0002077974,22.6665,0,1.5111,-7.687495E-05,22.6665,0
1.512,0.0001769131,22.68,0,1.512,-6.478981E-05,22.68,0
1.5129,6.915389E-05,22.6935,0,1.5129,-7.351797E-05,22.6935,0
1.5138,5.606165E-05,22.707,0,1.5138,6.713969E-07,22.707,0
1.5147,1.309224E-05,22.7205,0,1.5147,0.0001094377,22.7205,0
1.5156,-3.256275E-05,22.734,0,1.5156,8.157473E-05,22.734,0
1.5165,-3.256275E-05,22.7475,0,1.5165,-1.644922E-05,22.7475,0
1.5174,2.484169E-05,22.761,0,1.5174,1.846342E-05,22.761,0
1.5183,-4.162661E-05,22.7745,0,1.5183,0.0001752346,22.7745,0
1.5192,-0.0001651637,22.788,0,1.5192,9.600977E-05,22.788,0
1.5201,-5.673304E-05,22.8015,0,1.5201,-1.342794E-05,22.8015,0
1.521,-9.298848E-05,22.815,0,1.521,-2.517739E-05,22.815,0
1.5219,-0.0001332723,22.8285,0,1.5219,-0.0001084306,22.8285,0
1.5228,1.242084E-05,22.842,0,1.5228,-0.0001097734,22.842,0
1.5237,-5.035477E-06,22.8555,0,1.5237,-0.0001654994,22.8555,0
1.5246,-0.0001782559,22.869,0,1.5246,-0.0001064164,22.869,0
1.5255,-0.0003071641,22.8825,0,1.5255,-0.0002292821,22.8825,0
1.5264,-0.0002628519,22.896,0,1.5264,-0.0003333486,22.896,0
1.5273,-0.0001148089,22.9095,0,1.5273,-0.0001362936,22.9095,0
1.5282,-3.390555E-05,22.923,0,1.5282,0.0001816129,22.923,0
1.5291,0.0001621424,22.9365,0,1.5291,0.0002709087,22.9365,0
1.53,0.0003649043,22.95,0,1.53,0.000197055,22.95,0
1.5309,0.0004374151,22.9635,0,1.5309,0.0002564736,22.9635,0
1.5318,0.0001742275,22.977,0,1.5318,0.0001534142,22.977,0
1.5327,6.814679E-05,22.9905,0,1.5327,6.6804E-05,22.9905,0
1.5336,0.0001218585,23.004,0,1.5336,-2.752728E-05,23.004,0
1.5345,3.356985E-07,23.0175,0,1.5345,-3.256275E-05,23.0175,0
1.5354,-2.584878E-05,23.031,0,1.5354,-9.735256E-06,23.031,0
1.5363,-6.344701E-05,23.0445,0,1.5363,-0.0002118257,23.0445,0
1.5372,-0.0001423362,23.058,0,1.5372,-0.0001527428,23.058,0
1.5381,-0.0001487144,23.0715,0,1.5381,-5.975433E-05,23.0715,0
1.539,-4.196231E-05,23.085,0,1.539,-6.009003E-05,23.085,0
1.5399,-6.814679E-05,23.0985,0,1.5399,-0.0001785916,23.0985,0
1.5408,1.040665E-05,23.112,0,1.5408,-0.0001654994,23.112,0
1.5417,5.606165E-05,23.1255,0,1.5417,-8.82887E-05,23.1255,0
1.5426,-5.673304E-05,23.139,0,1.5426,-2.417029E-05,23.139,0
1.5435,-3.591974E-05,23.1525,0,1.5435,3.860533E-05,23.1525,0
1.5444,6.378271E-05,23.166,0,1.5444,3.994812E-05,23.166,0
1.5453,-2.584878E-05,23.1795,0,1.5453,8.426032E-05,23.1795,0
1.5462,-3.054856E-05,23.193,0,1.5462,5.807584E-05,23.193,0
1.5471,8.258183E-05,23.2065,0,1.5471,7.385367E-06,23.2065,0
1.548,-6.74754E-05,23.22,0,1.548,0.0001134661,23.22,0
1.5489,-6.78111E-05,23.2335,0,1.5489,0.0001044022,23.2335,0
1.5498,3.692683E-06,23.247,0,1.5498,-1.644922E-05,23.247,0
1.5507,0.0001134661,23.2605,0,1.5507,4.632639E-05,23.2605,0
1.5516,-5.337606E-05,23.274,0,1.5516,-6.411841E-05,23.274,0
1.5525,-4.800488E-05,23.2875,0,1.5525,-7.486076E-05,23.2875,0
1.5534,2.24918E-05,23.301,0,1.5534,-1.141375E-05,23.301,0
1.5543,7.385367E-06,23.3145,0,1.5543,-6.61326E-05,23.3145,0
1.5552,3.356985E-06,23.328,0,1.5552,2.853437E-05,23.328,0
1.5561,2.1149E-05,23.3415,0,1.5561,0.0001658351,23.3415,0
1.557,-4.36408E-06,23.355,0,1.557,0.0002272679,23.355,0
1.5579,2.014191E-06,23.3685,0,1.5579,4.867628E-05,23.3685,0
1.5588,-2.920577E-05,23.382,0,1.5588,-3.356985E-06,23.382,0
1.5597,-2.786297E-05,23.3955,0,1.5597,-2.517739E-05,23.3955,0
1.5606,6.948959E-05,23.409,0,1.5606,-0.000190341,23.409,0
1.5615,-2.987716E-05,23.4225,0,1.5615,-0.0001883268,23.4225,0
1.5624,-0.0001607996,23.436,0,1.5624,-0.000193698,23.436,0
1.5633,-8.392462E-05,23.4495,0,1.5633,-0.0001836271,23.4495,0
1.5642,0.0001910124,23.463,0,1.5642,2.484169E-05,23.463,0
1.5651,0.0001252155,23.4765,0,1.5651,0.0001816129,23.4765,0
1.566,7.452507E-05,23.49,0,1.566,0.0002289464,23.49,0
1.5669,0.0001309224,23.5035,0,1.5669,0.0001930266,23.5035,0
1.5678,0.0001205158,23.517,0,1.5678,-6.009003E-05,23.517,0
1.5687,-8.023193E-05,23.5305,0,1.5687,-4.901198E-05,23.5305,0
1.5696,-0.0003226062,23.544,0,1.5696,-1.577783E-05,23.544,0
1.5705,-0.0002551308,23.5575,0,1.5705,-6.478981E-05,23.5575,0
1.5714,-0.0001201801,23.571,0,1.5714,-5.841154E-05,23.571,0
1.5723,-0.0001332723,23.5845,0,1.5723,-3.390555E-05,23.5845,0
1.5732,-3.591974E-05,23.598,0,1.5732,-7.385367E-05,23.598,0
1.5741,0.0001594568,23.6115,0,1.5741,-9.903105E-05,23.6115,0
1.575,-6.54612E-05,23.625,0,1.575,-6.076142E-05,23.625,0
1.5759,-8.560311E-05,23.6385,0,1.5759,-6.411841E-05,23.6385,0
1.5768,2.752728E-05,23.652,0,1.5768,-8.392462E-05,23.652,0
1.5777,-7.016098E-05,23.6655,0,1.5777,-6.64683E-05,23.6655,0
1.5786,-0.0001044022,23.679,0,1.5786,-3.894102E-05,23.679,0
1.5795,-6.54612E-05,23.6925,0,1.5795,-1.913481E-05,23.6925,0
1.5804,8.023193E-05,23.706,0,1.5804,8.560311E-05,23.706,0
1.5813,0.0002675517,23.7195,0,1.5813,-0.0001420005,23.7195,0
1.5822,0.0003299916,23.733,0,1.5822,-0.0002104829,23.733,0
1.5831,0.0001148089,23.7465,0,1.5831,-8.224613E-05,23.7465,0
1.584,8.426032E-05,23.76,0,1.584,-0.0001866484,23.76,0
1.5849,-9.063859E-06,23.7735,0,1.5849,-0.0002336461,23.7735,0
1.5858,-0.0001634852,23.787,0,1.5858,5.337606E-05,23.787,0
1.5867,-0.0001705348,23.8005,0,1.5867,0.0002453956,23.8005,0
1.5876,3.726253E-05,23.814,0,1.5876,0.0001748989,23.814,0
1.5885,1.174945E-05,23.8275,0,1.5885,0.0001258869,23.8275,0
1.5894,5.606165E-05,23.841,0,1.5894,6.881819E-05,23.841,0
1.5903,6.109713E-05,23.8545,0,1.5903,6.378271E-06,23.8545,0
1.5912,-3.894102E-05,23.868,0,1.5912,0.0001114519,23.868,0
1.5921,-0.0001054093,23.8815,0,1.5921,0.0002279393,23.8815,0
1.593,-7.620356E-05,23.895,0,1.593,4.129091E-05,23.895,0
1.5939,-6.74754E-05,23.9085,0,1.5939,-0.0001913481,23.9085,0
1.5948,-0.0001926909,23.922,0,1.5948,-0.0002903792,23.922,0
1.5957,-0.0002568093,23.9355,0,1.5957,-0.0001745632,23.9355,0
1.5966,-0.0002292821,23.949,0,1.5966,-7.116808E-05,23.949,0
1.5975,-0.0002057832,23.9625,0,1.5975,-0.0001131304,23.9625,0
1.5984,-0.000109102,23.976,0,1.5984,1.644922E-05,23.976,0
1.5993,-1.007095E-06,23.9895,0,1.5993,0.0003279774,23.9895,0
1.6002,0.0001285725,24.003,0,1.6002,0.0003158923,24.003,0
1.6011,0.0001305867,24.0165,0,1.6011,5.908293E-05,24.0165,0
1.602,0.0002020905,24.03,0,1.602,6.6804E-05,24.03,0
1.6029,0.000372961,24.0435,0,1.6029,0.0001621424,24.0435,0
1.6038,0.0003048142,24.057,0,1.6038,2.21561E-05,24.057,0
1.6047,6.411841E-05,24.0705,0,1.6047,-6.344701E-05,24.0705,0
1.6056,-4.196231E-05,24.084,0,1.6056,-6.61326E-05,24.084,0
1.6065,-3.356985E-07,24.0975,0,1.6065,-8.493171E-05,24.0975,0
1.6074,-1.007095E-06,24.111,0,1.6074,-3.659113E-05,24.111,0
1.6083,9.399558E-06,24.1245,0,1.6083,-5.438316E-05,24.1245,0
1.6092,2.719158E-05,24.138,0,1.6092,-8.96315E-05,24.138,0
1.6101,-0.0001272297,24.1515,0,1.6101,-0.0001067521,24.1515,0
1.611,-7.620356E-05,24.165,0,1.611,-9.701686E-05,24.165,0
1.6119,8.291753E-05,24.1785,0,1.6119,3.356985E-07,24.1785,0
1.6128,-4.599069E-05,24.192,0,1.6128,1.779202E-05,24.192,0
1.6137,-7.083238E-05,24.2055,0,1.6137,-7.788205E-05,24.2055,0
1.6146,7.486076E-05,24.219,0,1.6146,-8.761731E-05,24.219,0
1.6155,1.376364E-05,24.2325,0,1.6155,-2.954147E-05,24.2325,0
1.6164,4.934768E-05,24.246,0,1.6164,-2.24918E-05,24.246,0
1.6173,7.486076E-05,24.2595,0,1.6173,-7.150377E-05,24.2595,0
1.6182,3.189136E-05,24.273,0,1.6182,-0.0001255512,24.273,0
1.6191,-3.256275E-05,24.2865,0,1.6191,-0.000109102,24.2865,0
1.62,4.53193E-05,24.3,0,1.62,-0.0001285725,24.3,0
1.6209,7.217517E-05,24.3135,0,1.6209,-0.000154757,24.3135,0
1.6218,5.774014E-05,24.327,0,1.6218,-0.000148043,24.327,0
1.6227,3.524834E-05,24.3405,0,1.6227,-0.000105745,24.3405,0
1.6236,-0.0001050736,24.354,0,1.6236,-2.819867E-05,24.354,0
1.6245,-6.57969E-05,24.3675,0,1.6245,3.323415E-05,24.3675,0
1.6254,2.652018E-05,24.381,0,1.6254,5.874724E-05,24.381,0
1.6263,-1.443504E-05,24.3945,0,1.6263,3.121996E-05,24.3945,0
1.6272,-4.800488E-05,24.408,0,1.6272,-5.069047E-05,24.408,0
1.6281,7.721065E-06,24.4215,0,1.6281,-0.0002937362,24.4215,0
1.629,-6.210422E-05,24.435,0,1.629,-0.000285008,24.435,0
1.6299,-4.53193E-05,24.4485,0,1.6299,-0.0001977264,24.4485,0
1.6308,3.659113E-05,24.462,0,1.6308,-0.0001463645,24.462,0
1.6317,-1.712062E-05,24.4755,0,1.6317,0.0002218967,24.4755,0
1.6326,-0.0001252155,24.489,0,1.6326,0.0004293584,24.489,0
1.6335,-0.0001534142,24.5025,0,1.6335,0.00042533,24.5025,0
1.6344,-8.358892E-05,24.516,0,1.6344,0.0002897078,24.516,0
1.6353,9.063859E-06,24.5295,0,1.6353,7.687495E-05,24.5295,0
1.6362,5.035477E-06,24.543,0,1.6362,-6.243992E-05,24.543,0
1.6371,6.948959E-05,24.5565,0,1.6371,-0.0002648661,24.5565,0
1.638,0.0001279011,24.57,0,1.638,-0.0003058213,24.57,0
1.6389,5.035477E-05,24.5835,0,1.6389,-0.0002175326,24.5835,0
1.6398,-7.049668E-05,24.597,0,1.6398,1.544213E-05,24.597,0
1.6407,-2.853437E-05,24.6105,0,1.6407,0.0002668803,24.6105,0
1.6416,4.061952E-05,24.624,0,1.6416,0.0003981384,24.624,0
1.6425,-0.0001450217,24.6375,0,1.6425,0.0003091783,24.6375,0
1.6434,-0.0001883268,24.651,0,1.6434,0.000109102,24.651,0
1.6443,-8.291753E-05,24.6645,0,1.6443,-2.18204E-05,24.6645,0
1.6452,1.007095E-06,24.678,0,1.6452,4.36408E-06,24.678,0
1.6461,-7.687495E-05,24.6915,0,1.6461,-1.913481E-05,24.6915,0
1.647,3.121996E-05,24.705,0,1.647,-9.500267E-05,24.705,0
1.6479,0.0001762417,24.7185,0,1.6479,-0.0001000381,24.7185,0
1.6488,0.0002588235,24.732,0,1.6488,-0.0001228656,24.732,0
1.6497,0.0001104448,24.7455,0,1.6497,-3.323415E-05,24.7455,0
1.6506,-0.0001913481,24.759,0,1.6506,-8.96315E-05,24.759,0
1.6515,-0.0001722133,24.7725,0,1.6515,-0.0001822843,24.7725,0
1.6524,-8.090334E-05,24.786,0,1.6524,-2.853437E-05,24.786,0
1.6533,-0.0001319295,24.7995,0,1.6533,0.0001060807,24.7995,0
1.6542,-8.157473E-05,24.813,0,1.6542,-6.210422E-05,24.813,0
1.6551,6.143282E-05,24.8265,0,1.6551,-0.0001386435,24.8265,0
1.656,3.390555E-05,24.84,0,1.656,-4.46479E-05,24.84,0
1.6569,5.874724E-05,24.8535,0,1.6569,7.687495E-05,24.8535,0
1.6578,9.567407E-05,24.867,0,1.6578,-0.0001117876,24.867,0
1.6587,3.155566E-05,24.8805,0,1.6587,-0.0001104448,24.8805,0
1.6596,-3.726253E-05,24.894,0,1.6596,3.524834E-05,24.894,0
1.6605,1.846342E-05,24.9075,0,1.6605,5.572595E-05,24.9075,0
1.6614,-2.014191E-05,24.921,0,1.6614,-4.800488E-05,24.921,0
1.6623,-1.107805E-05,24.9345,0,1.6623,-0.0001329366,24.9345,0
1.6632,6.713969E-07,24.948,0,1.6632,-8.795301E-05,24.948,0
1.6641,1.477073E-05,24.9615,0,1.6641,-8.89601E-05,24.9615,0
1.665,-6.243992E-05,24.975,0,1.665,-0.0001037308,24.975,0
1.6659,2.014191E-05,24.9885,0,1.6659,-6.57969E-05,24.9885,0
1.6668,-8.728161E-06,25.002,0,1.6668,-6.51255E-05,25.002,0
1.6677,-5.136187E-05,25.0155,0,1.6677,-0.0001856413,25.0155,0
1.6686,-1.913481E-05,25.029,0,1.6686,-0.0002648661,25.029,0
1.6695,-1.376364E-05,25.0425,0,1.6695,-0.0002198825,25.0425,0
1.6704,-1.007095E-05,25.056,0,1.6704,-0.0002353246,25.056,0
1.6713,3.726253E-05,25.0695,0,1.6713,-0.0002474098,25.0695,0
1.6722,-1.007095E-06,25.083,0,1.6722,-0.0001594568,25.083,0
1.6731,-0.0001154803,25.0965,0,1.6731,-2.450599E-05,25.0965,0
1.674,-0.0001772488,25.11,0,1.674,2.987716E-05,25.11,0
1.6749,-0.0001661708,25.1235,0,1.6749,7.620356E-05,25.1235,0
1.6758,-0.0001134661,25.137,0,1.6758,5.874724E-05,25.137,0
1.6767,-0.0001846342,25.1505,0,1.6767,3.356985E-07,25.1505,0
1.6776,-0.0002826581,25.164,0,1.6776,-0.0001007095,25.164,0
1.6785,-0.000207126,25.1775,0,1.6785,-0.0001285725,25.1775,0
1.6794,-0.000105745,25.191,0,1.6794,-4.49836E-05,25.191,0
1.6803,-9.030289E-05,25.2045,0,1.6803,6.009003E-05,25.2045,0
1.6812,-9.735256E-06,25.218,0,1.6812,0.0001534142,25.218,0
1.6821,3.088426E-05,25.2315,0,1.6821,0.0001453574,25.2315,0
1.683,-2.786297E-05,25.245,0,1.683,5.975433E-05,25.245,0
1.6839,0.0001027237,25.2585,0,1.6839,-8.224613E-05,25.2585,0
1.6848,0.0001769131,25.272,0,1.6848,-5.539025E-05,25.272,0
1.6857,-6.713969E-06,25.2855,0,1.6857,9.500267E-05,25.2855,0
1.6866,-4.733349E-05,25.299,0,1.6866,0.0001876554,25.299,0
1.6875,0.0001329366,25.3125,0,1.6875,0.0002339818,25.3125,0
1.6884,0.0002158541,25.326,0,1.6884,0.0002692302,25.326,0
1.6893,0.0002158541,25.3395,0,1.6893,0.000270573,25.3395,0
1.6902,0.0001876554,25.353,0,1.6902,0.0002829938,25.353,0
1.6911,0.0001806058,25.3665,0,1.6911,0.0002772869,25.3665,0
1.692,0.0002091402,25.38,0,1.692,0.0001527428,25.38,0
1.6929,0.0001742275,25.3935,0,1.6929,4.263371E-05,25.3935,0
1.6938,3.826963E-05,25.407,0,1.6938,1.779202E-05,25.407,0
1.6947,-1.107805E-05,25.4205,0,1.6947,-3.390555E-05,25.4205,0
1.6956,0.0001567712,25.434,0,1.6956,-6.311131E-05,25.434,0
1.6965,7.083238E-05,25.4475,0,1.6965,2.484169E-05,25.4475,0
1.6974,-2.18204E-05,25.461,0,1.6974,-4.867628E-05,25.461,0
1.6983,4.699779E-05,25.4745,0,1.6983,-0.0001621424,25.4745,0
1.6992,7.049668E-05,25.488,0,1.6992,-0.0001312581,25.488,0
1.7001,-5.539025E-05,25.5015,0,1.7001,-0.0001789273,25.5015,0
1.701,-1.913481E-05,25.515,0,1.701,-0.0001957122,25.515,0
1.7019,-3.860533E-05,25.5285,0,1.7019,-0.0001624781,25.5285,0
1.7028,-2.719158E-05,25.542,0,1.7028,-0.0002232395,25.542,0
1.7037,1.577783E-05,25.5555,0,1.7037,-0.000119173,25.5555,0
1.7046,7.888914E-05,25.569,0,1.7046,7.553216E-05,25.569,0
1.7055,8.96315E-05,25.5825,0,1.7055,-1.443504E-05,25.5825,0
1.7064,5.706874E-05,25.596,0,1.7064,-0.0001282368,25.596,0
1.7073,-7.553216E-05,25.6095,0,1.7073,-7.251087E-05,25.6095,0
1.7082,-0.0001258869,25.623,0,1.7082,-0.0001111162,25.623,0
1.7091,-7.183947E-05,25.6365,0,1.7091,-9.970245E-05,25.6365,0
1.71,-0.0001322652,25.65,0,1.71,7.083238E-05,25.65,0
1.7109,-0.0001245441,25.6635,0,1.7109,0.0001748989,25.6635,0
1.7118,-7.150377E-05,25.677,0,1.7118,5.505455E-05,25.677,0
1.7127,-5.706874E-06,25.6905,0,1.7127,4.766919E-05,25.6905,0
1.7136,-1.443504E-05,25.704,0,1.7136,1.544213E-05,25.704,0
1.7145,-4.766919E-05,25.7175,0,1.7145,-0.0001255512,25.7175,0
1.7154,-6.61326E-05,25.731,0,1.7154,-6.344701E-05,25.731,0
1.7163,3.289845E-05,25.7445,0,1.7163,3.692683E-06,25.7445,0
1.7172,1.678492E-06,25.758,0,1.7172,0.0001164874,25.758,0
1.7181,-4.46479E-05,25.7715,0,1.7181,8.023193E-05,25.7715,0
1.719,8.358892E-05,25.785,0,1.719,-1.544213E-05,25.785,0
1.7199,0.0001574426,25.7985,0,1.7199,1.007095E-05,25.7985,0
1.7208,-6.848249E-05,25.812,0,1.7208,-8.123904E-05,25.812,0
1.7217,-0.0001044022,25.8255,0,1.7217,-0.0001755703,25.8255,0
1.7226,-1.107805E-05,25.839,0,1.7226,-0.000140322,25.839,0
1.7235,-0.0001077592,25.8525,0,1.7235,-4.061952E-05,25.8525,0
1.7244,-3.927672E-05,25.866,0,1.7244,6.378271E-06,25.866,0
1.7253,-3.356985E-07,25.8795,0,1.7253,-3.457694E-05,25.8795,0
1.7262,-0.0001889983,25.893,0,1.7262,-3.524834E-05,25.893,0
1.7271,-0.0002158541,25.9065,0,1.7271,3.356985E-05,25.9065,0
1.728,-0.0001406577,25.92,0,1.728,4.061952E-05,25.92,0
1.7289,-4.33051E-05,25.9335,0,1.7289,1.443504E-05,25.9335,0
1.7298,-1.510643E-05,25.947,0,1.7298,-5.606165E-05,25.947,0
1.7307,-3.524834E-05,25.9605,0,1.7307,-8.258183E-05,25.9605,0
1.7316,-5.874724E-05,25.974,0,1.7316,-0.0001654994,25.974,0
1.7325,2.349889E-06,25.9875,0,1.7325,-0.0002138399,25.9875,0
1.7334,0.0001886625,26.001,0,1.7334,-4.49836E-05,26.001,0
1.7343,6.61326E-05,26.0145,0,1.7343,0.0001185016,26.0145,0
1.7352,-1.678492E-06,26.028,0,1.7352,5.304036E-05,26.028,0
1.7361,8.459602E-05,26.0415,0,1.7361,5.874724E-05,26.0415,0
1.737,-8.426032E-05,26.055,0,1.737,0.0001366293,26.055,0
1.7379,-0.0002124971,26.0685,0,1.7379,1.275654E-05,26.0685,0
1.7388,-9.433127E-05,26.082,0,1.7388,-8.291753E-05,26.082,0
1.7397,-8.560311E-05,26.0955,0,1.7397,-0.000102388,26.0955,0
1.7406,-0.0002178683,26.109,0,1.7406,-2.887007E-05,26.109,0
1.7415,-8.459602E-05,26.1225,0,1.7415,-5.841154E-05,26.1225,0
1.7424,9.970245E-05,26.136,0,1.7424,-7.418937E-05,26.136,0
1.7433,6.143282E-05,26.1495,0,1.7433,-0.0001467002,26.1495,0
1.7442,-4.599069E-05,26.163,0,1.7442,-8.96315E-05,26.163,0
1.7451,-5.874724E-05,26.1765,0,1.7451,4.36408E-06,26.1765,0
1.746,-1.712062E-05,26.19,0,1.746,-2.081331E-05,26.19,0
1.7469,-3.457694E-05,26.2035,0,1.7469,-2.786297E-05,26.2035,0
1.7478,-6.915389E-05,26.217,0,1.7478,4.901198E-05,26.217,0
1.7487,-1.174945E-05,26.2305,0,1.7487,6.009003E-05,26.2305,0
1.7496,0.0001161517,26.244,0,1.7496,-9.500267E-05,26.244,0
1.7505,0.0001232013,26.2575,0,1.7505,-0.0001138018,26.2575,0
1.7514,0.0002406958,26.271,0,1.7514,-0.0001430075,26.271,0
1.7523,0.0002192111,26.2845,0,1.7523,-0.0002574807,26.2845,0
1.7532,0.0001534142,26.298,0,1.7532,-0.000221561,26.298,0
1.7541,4.196231E-05,26.3115,0,1.7541,-9.835965E-05,26.3115,0
1.755,2.047761E-05,26.325,0,1.755,-0.0001362936,26.325,0
1.7559,2.517739E-05,26.3385,0,1.7559,5.774014E-05,26.3385,0
1.7568,0.0001319295,26.352,0,1.7568,0.0004394293,26.352,0
1.7577,1.242084E-05,26.3655,0,1.7577,0.0004934767,26.3655,0
1.7586,-0.0001080949,26.379,0,1.7586,0.0002668803,26.379,0
1.7595,1.208515E-05,26.3925,0,1.7595,0.000190341,26.3925,0
1.7604,4.36408E-06,26.406,0,1.7604,9.567407E-05,26.406,0
1.7613,-0.0001534142,26.4195,0,1.7613,-2.652018E-05,26.4195,0
1.7622,-0.0001332723,26.433,0,1.7622,-0.0001279011,26.433,0
1.7631,3.323415E-05,26.4465,0,1.7631,-0.0002390173,26.4465,0
1.764,-1.644922E-05,26.46,0,1.764,-0.0001540856,26.46,0
1.7649,-5.337606E-05,26.4735,0,1.7649,-0.0001960479,26.4735,0
1.7658,3.860533E-05,26.487,0,1.7658,9.399558E-06,26.487,0
1.7667,-8.392462E-06,26.5005,0,1.7667,0.0001957122,26.5005,0
1.7676,4.800488E-05,26.514,0,1.7676,0.0003299916,26.514,0
1.7685,0.0001406577,26.5275,0,1.7685,0.0002380102,26.5275,0
1.7694,2.24918E-05,26.541,0,1.7694,4.901198E-05,26.541,0
1.7703,4.800488E-05,26.5545,0,1.7703,2.1149E-05,26.5545,0
1.7712,7.620356E-05,26.568,0,1.7712,4.263371E-05,26.568,0
1.7721,-8.560311E-05,26.5815,0,1.7721,-6.378271E-06,26.5815,0
1.773,-0.0001305867,26.595,0,1.773,-0.0001044022,26.595,0
1.7739,-3.793393E-05,26.6085,0,1.7739,-0.000169192,26.6085,0
1.7748,-4.867628E-05,26.622,0,1.7748,-0.0001829557,26.622,0
1.7757,2.719158E-05,26.6355,0,1.7757,-0.0001943694,26.6355,0
1.7766,0.0002772869,26.649,0,1.7766,-0.0002178683,26.649,0
1.7775,0.0002000763,26.6625,0,1.7775,-0.0001111162,26.6625,0
1.7784,6.915389E-05,26.676,0,1.7784,-0.0001188373,26.676,0
1.7793,0.0001279011,26.6895,0,1.7793,-0.0002265965,26.6895,0
1.7802,8.157473E-05,26.703,0,1.7802,-0.0001853056,26.703,0
1.7811,-5.941863E-05,26.7165,0,1.7811,-0.0001279011,26.7165,0
1.782,-2.719158E-05,26.73,0,1.782,-6.243992E-05,26.73,0
1.7829,-3.356985E-07,26.7435,0,1.7829,7.049668E-06,26.7435,0
1.7838,-5.941863E-05,26.757,0,1.7838,0.0002323034,26.757,0
1.7847,-0.0001168231,26.7705,0,1.7847,0.0003900816,26.7705,0
1.7856,-0.0001359579,26.784,0,1.7856,0.0002084688,26.784,0
1.7865,-9.030289E-05,26.7975,0,1.7865,7.016098E-05,26.7975,0
1.7874,-3.121996E-05,26.811,0,1.7874,-5.706874E-06,26.811,0
1.7883,-6.076142E-05,26.8245,0,1.7883,3.323415E-05,26.8245,0
1.7892,-4.263371E-05,26.838,0,1.7892,3.289845E-05,26.838,0
1.7901,-9.735256E-06,26.8515,0,1.7901,-4.632639E-05,26.8515,0
1.791,-5.001907E-05,26.865,0,1.791,-2.28275E-05,26.865,0
1.7919,-0.0001174945,26.8785,0,1.7919,1.745632E-05,26.8785,0
1.7928,-0.0001967193,26.892,0,1.7928,-7.183947E-05,26.892,0
1.7937,-0.0001084306,26.9055,0,1.7937,-0.0001534142,26.9055,0
1.7946,-4.666209E-05,26.919,0,1.7946,-0.0002688945,26.919,0
1.7955,-8.056763E-06,26.9325,0,1.7955,-0.0003655757,26.9325,0
1.7964,8.392462E-06,26.946,0,1.7964,-0.0003615473,26.946,0
1.7973,9.600977E-05,26.9595,0,1.7973,-0.0002897078,26.9595,0
1.7982,7.721065E-06,26.973,0,1.7982,-0.0001154803,26.973,0
1.7991,-0.0001265583,26.9865,0,1.7991,0.0001467002,26.9865,0
1.8,-8.69459E-05,27,0,1.8,0.0002991073,27,0
1.8009,-2.652018E-05,27.0135,0,1.8009,0.0001554284,27.0135,0
1.8018,-7.653925E-05,27.027,0,1.8018,0.000119173,27.027,0
1.8027,3.457694E-05,27.0405,0,1.8027,0.0001309224,27.0405,0
1.8036,0.000200412,27.054,0,1.8036,0.0001188373,27.054,0
1.8045,-2.047761E-05,27.0675,0,1.8045,0.0001151446,27.0675,0
1.8054,9.063859E-06,27.081,0,1.8054,8.157473E-05,27.081,0
1.8063,0.0001171588,27.0945,0,1.8063,-2.28275E-05,27.0945,0
1.8072,-3.155566E-05,27.108,0,1.8072,-2.18204E-05,27.108,0
1.8081,-6.814679E-05,27.1215,0,1.8081,6.51255E-05,27.1215,0
1.809,-6.109713E-05,27.135,0,1.809,1.980621E-05,27.135,0
1.8099,-4.36408E-05,27.1485,0,1.8099,-2.316319E-05,27.1485,0
1.8108,6.042573E-06,27.162,0,1.8108,-3.457694E-05,27.162,0
1.8117,-5.471885E-05,27.1755,0,1.8117,-0.0001326009,27.1755,0
1.8126,-7.016098E-05,27.189,0,1.8126,-0.0002833295,27.189,0
1.8135,-1.510643E-05,27.2025,0,1.8135,-0.0002104829,27.2025,0
1.8144,7.956054E-05,27.216,0,1.8144,-0.0002118257,27.216,0
1.8153,4.53193E-05,27.2295,0,1.8153,-0.0001668421,27.2295,0
1.8162,7.049668E-06,27.243,0,1.8162,-4.53193E-05,27.243,0
1.8171,8.325322E-05,27.2565,0,1.8171,-2.18204E-05,27.2565,0
1.818,1.443504E-05,27.27,0,1.818,5.304036E-05,27.27,0
1.8189,-1.846342E-05,27.2835,0,1.8189,5.270466E-05,27.2835,0
1.8198,-1.644922E-05,27.297,0,1.8198,-9.399558E-06,27.297,0
1.8207,5.740444E-05,27.3105,0,1.8207,-2.584878E-05,27.3105,0
