X[s],"Trigno IM sensor 3: EMG 3 (IM)",X[s],"Trigno IM sensor 3: Mag 3.Z (IM)",X[s],"Trigno IM sensor 4: EMG 4 (IM)",X[s],"Trigno IM sensor 4: Mag 4.Z (IM)"
0.000000,9.735256E-06,0.000000,42,0.000000,-3.155566E-05,0.000000,108
0.0009,-0.000109102,0.0135,43,0.0009,9.063859E-06,0.0135,105
0.0018,-7.989624E-05,0.027,45,0.0018,-3.356985E-07,0.027,106
0.0027,-5.203327E-05,0.0405,44,0.0027,-9.735256E-06,0.0405,106
0.0036,-5.001907E-05,0.054,42,0.0036,4.028382E-06,0.054,105
0.0045,-4.46479E-05,0.0675,43,0.0045,-1.879912E-05,0.0675,107
0.0054,1.477073E-05,0.081,43,0.0054,-3.121996E-05,0.081,107
0.0063,-1.947051E-05,0.0945,43,0.0063,-5.471885E-05,0.0945,105
0.0072,-5.404745E-05,0.108,43,0.0072,-5.136187E-05,0.108,107
0.0081,-3.356985E-07,0.1215,43,0.0081,-4.834058E-05,0.1215,104
0.009000001,8.056763E-06,0.135,43,0.009000001,-5.136187E-05,0.135,102
0.0099,-4.599069E-05,0.1485,44,0.0099,-4.129091E-05,0.1485,105
0.0108,-2.652018E-05,0.162,43,0.0108,-7.821774E-05,0.162,106
0.0117,-7.385367E-05,0.1755,42,0.0117,-6.6804E-05,0.1755,106
0.0126,-6.076142E-05,0.189,43,0.0126,-5.035477E-05,0.189,104
0.0135,-9.735256E-06,0.2025,42,0.0135,-5.706874E-05,0.2025,103
0.0144,2.450599E-05,0.216,42,0.0144,-7.418937E-05,0.216,105
0.0153,3.692683E-06,0.2295,42,0.0153,-4.229801E-05,0.2295,103
0.0162,6.243992E-05,0.243,43,0.0162,-2.450599E-05,0.243,107
0.0171,0.0001782559,0.2565,43,0.0171,-3.860533E-05,0.2565,106
0.018,0.0001064164,0.27,42,0.018,-5.001907E-05,0.27,104
0.0189,7.721065E-06,0.2835,43,0.0189,-5.841154E-05,0.2835,104
0.0198,2.450599E-05,0.297,42,0.0198,-4.196231E-05,0.297,109
0.0207,7.116808E-05,0.3105,43,0.0207,-3.860533E-05,0.3105,106
0.0216,5.035477E-06,0.324,42,0.0216,-2.24918E-05,0.324,104
0.0225,3.121996E-05,0.3375,42,0.0225,-2.18204E-05,0.3375,105
0.0234,3.424125E-05,0.351,43,0.0234,-1.040665E-05,0.351,104
0.0243,1.913481E-05,0.3645,44,0.0243,2.349889E-06,0.3645,108
0.0252,6.411841E-05,0.378,43,0.0252,-1.678492E-05,0.378,107
0.0261,5.807584E-05,0.3915,43,0.0261,-3.289845E-05,0.3915,108
0.027,-3.155566E-05,0.405,44,0.027,-6.042573E-06,0.405,106
0.0279,9.063859E-06,0.4185,43,0.0279,-2.1149E-05,0.4185,108
0.0288,5.304036E-05,0.432,44,0.0288,-9.265278E-05,0.432,103
0.0297,1.007095E-06,0.4455,44,0.0297,-2.349889E-06,0.4455,107
0.0306,-0.0002084688,0.459,43,0.0306,1.846342E-05,0.459,107
0.0315,-9.701686E-05,0.4725,44,0.0315,-2.1149E-05,0.4725,105
0.0324,2.719158E-05,0.486,43,0.0324,-4.599069E-05,0.486,104
0.0333,-6.143282E-05,0.4995,43,0.0333,4.36408E-05,0.4995,107
0.0342,-3.356985E-07,0.513,44,0.0342,0,0.513,108
0.0351,8.291753E-05,0.5265,43,0.0351,-8.090334E-05,0.5265,107
0.036,-6.378271E-05,0.54,43,0.036,4.129091E-05,0.54,106
0.0369,5.069047E-05,0.5535,43,0.0369,2.349889E-05,0.5535,105
0.0378,0.0001668421,0.567,41,0.0378,-6.948959E-05,0.567,107
0.0387,3.289845E-05,0.5805,42,0.0387,-3.961242E-05,0.5805,102
0.0396,-3.826963E-05,0.594,42,0.0396,2.383459E-05,0.594,105
0.0405,4.39765E-05,0.6075,41,0.0405,7.721065E-06,0.6075,107
0.0414,-1.913481E-05,0.621,42,0.0414,1.309224E-05,0.621,105
0.0423,3.155566E-05,0.6345,41,0.0423,-4.33051E-05,0.6345,105
0.0432,1.779202E-05,0.648,42,0.0432,3.994812E-05,0.648,105
0.0441,-0.0001809415,0.6615,42,0.0441,7.183947E-05,0.6615,106
0.045,-0.0001373007,0.675,42,0.045,2.584878E-05,0.675,109
0.0459,-8.392462E-06,0.6885,42,0.0459,3.692683E-06,0.6885,109
0.0468,-8.996719E-05,0.702,41,0.0468,6.948959E-05,0.702,104
0.0477,-0.000102388,0.7155,42,0.0477,2.752728E-05,0.7155,106
0.0486,5.874724E-05,0.729,41,0.0486,-4.46479E-05,0.729,105
0.0495,-4.800488E-05,0.7425,42,0.0495,5.807584E-05,0.7425,101
0.0504,-1.107805E-05,0.756,41,0.0504,3.927672E-05,0.756,102
0.0513,4.229801E-05,0.7695,39,0.0513,-6.64683E-05,0.7695,99
0.0522,0.0001527428,0.783,40,0.0522,-4.599069E-05,0.783,106
0.0531,-2.383459E-05,0.7965,41,0.0531,1.309224E-05,0.7965,101
0.054,-5.404745E-05,0.81,41,0.054,-2.450599E-05,0.81,100
0.0549,-5.035477E-06,0.8235,41,0.0549,-4.968337E-05,0.8235,104
0.0558,6.478981E-05,0.837,42,0.0558,-8.761731E-05,0.837,101
0.0567,-2.719158E-05,0.8505,42,0.0567,-4.36408E-06,0.8505,104
0.0576,-6.478981E-05,0.864,43,0.0576,2.24918E-05,0.864,104
0.0585,-1.376364E-05,0.8775,44,0.0585,-4.800488E-05,0.8775,100
0.0594,2.719158E-05,0.891,43,0.0594,-5.404745E-05,0.891,102
0.0603,1.007095E-06,0.9045,43,0.0603,1.913481E-05,0.9045,100
0.0612,-3.390555E-05,0.918,43,0.0612,-1.040665E-05,0.918,103
0.0621,2.954147E-05,0.9315,42,0.0621,-8.224613E-05,0.9315,100
0.063,-5.337606E-05,0.945,41,0.063,2.853437E-05,0.945,101
0.0639,-6.143282E-05,0.9585,42,0.0639,5.740444E-05,0.9585,105
0.0648,3.021286E-06,0.972,42,0.0648,-3.256275E-05,0.972,102
0.0657,-0.0001527428,0.9855,41,0.0657,1.913481E-05,0.9855,103
0.0666,-0.0001426719,0.999,40,0.0666,5.740444E-05,0.999,102
0.0675,-8.627451E-05,1.0125,42,0.0675,1.174945E-05,1.0125,104
0.0684,-5.639734E-05,1.026,40,0.0684,-2.28275E-05,1.026,102
0.0693,6.78111E-05,1.0395,40,0.0693,-6.143282E-05,1.0395,104
0.0702,3.726253E-05,1.053,40,0.0702,-1.141375E-05,1.053,104
0.0711,-7.418937E-05,1.0665,39,0.0711,-2.752728E-05,1.0665,105
0.072,-3.021286E-06,1.08,40,0.072,-8.526741E-05,1.08,100
0.0729,5.874724E-05,1.0935,40,0.0729,-9.097429E-05,1.0935,103
0.07380001,-0.0001013809,1.107,40,0.07380001,-7.721065E-06,1.107,101
0.07470001,-3.189136E-05,1.1205,38,0.07470001,-2.047761E-05,1.1205,102
0.0756,0.0001386435,1.134,39,0.0756,-9.634547E-05,1.134,104
0.0765,-3.323415E-05,1.1475,39,0.0765,1.007095E-06,1.1475,105
0.0774,6.881819E-05,1.161,38,0.0774,3.793393E-05,1.161,101
0.0783,0.0001769131,1.1745,37,0.0783,-6.948959E-05,1.1745,104
0.0792,-3.726253E-05,1.188,39,0.0792,-6.61326E-05,1.188,102
0.0801,-0.0001030594,1.2015,39,0.0801,-7.721065E-06,1.2015,103
0.081,-1.208515E-05,1.215,40,0.081,-1.174945E-05,1.215,102
0.0819,-2.21561E-05,1.2285,39,0.0819,-1.947051E-05,1.2285,102
0.0828,-6.378271E-06,1.242,38,0.0828,-7.351797E-05,1.242,101
0.0837,4.061952E-05,1.2555,39,0.0837,8.392462E-06,1.2555,106
0.0846,6.009003E-05,1.269,39,0.0846,1.980621E-05,1.269,101
0.0855,4.666209E-05,1.2825,39,0.0855,-6.009003E-05,1.2825,103
0.0864,6.6804E-05,1.296,39,0.0864,-5.941863E-05,1.296,104
0.0873,2.920577E-05,1.3095,39,0.0873,3.524834E-05,1.3095,102
0.0882,-2.1149E-05,1.323,40,0.0882,-1.141375E-05,1.323,101
0.0891,6.143282E-05,1.3365,39,0.0891,-8.82887E-05,1.3365,99
0.09,1.678492E-06,1.35,40,0.09,1.376364E-05,1.35,103
0.0909,-3.256275E-05,1.3635,40,0.0909,1.040665E-05,1.3635,102
0.0918,-2.517739E-05,1.377,41,0.0918,-9.600977E-05,1.377,103
0.0927,-0.0001151446,1.3905,39,0.0927,-5.203327E-05,1.3905,104
0.0936,-0.0001628138,1.404,40,0.0936,2.719158E-05,1.404,102
0.09450001,-7.016098E-05,1.4175,41,0.09450001,-4.263371E-05,1.4175,103
0.09540001,4.632639E-05,1.431,41,0.09540001,-3.659113E-05,1.431,103
0.09630001,3.692683E-05,1.4445,39,0.09630001,-6.210422E-05,1.4445,103
0.0972,2.719158E-05,1.458,40,0.0972,1.409934E-05,1.458,103
0.0981,-4.53193E-05,1.4715,41,0.0981,4.028382E-06,1.4715,104
0.099,-6.042573E-06,1.485,41,0.099,-5.606165E-05,1.485,103
0.0999,5.807584E-05,1.4985,40,0.0999,-4.162661E-05,1.4985,99
0.1008,-7.888914E-05,1.512,40,0.1008,3.256275E-05,1.512,103
0.1017,-2.786297E-05,1.5255,41,0.1017,-1.443504E-05,1.5255,101
0.1026,8.023193E-05,1.539,41,0.1026,-0.0001010452,1.539,104
0.1035,-4.36408E-06,1.5525,41,0.1035,1.812772E-05,1.5525,104
0.1044,0.0001500572,1.566,42,0.1044,4.632639E-05,1.566,104
0.1053,0.0001406577,1.5795,40,0.1053,-4.229801E-05,1.5795,103
0.1062,5.975433E-05,1.593,40,0.1062,-2.316319E-05,1.593,101
0.1071,1.040665E-05,1.6065,42,0.1071,2.349889E-05,1.6065,101
0.108,-1.779202E-05,1.62,42,0.108,-2.685588E-06,1.62,103
0.1089,-4.095522E-05,1.6335,42,0.1089,-2.1149E-05,1.6335,105
0.1098,1.980621E-05,1.647,42,0.1098,-6.74754E-05,1.647,104
0.1107,2.920577E-05,1.6605,41,0.1107,1.779202E-05,1.6605,103
0.1116,-9.298848E-05,1.674,43,0.1116,3.424125E-05,1.674,103
0.1125,-3.826963E-05,1.6875,42,0.1125,-2.450599E-05,1.6875,99
0.1134,9.265278E-05,1.701,42,0.1134,-4.129091E-05,1.701,102
0.1143,-9.433127E-05,1.7145,43,0.1143,2.417029E-05,1.7145,101
0.1152,-6.176852E-05,1.728,42,0.1152,-1.107805E-05,1.728,103
0.1161,9.063859E-05,1.7415,41,0.1161,-0.0001003738,1.7415,101
0.117,-5.606165E-05,1.755,41,0.117,1.309224E-05,1.755,105
0.1179,-0.0001587854,1.7685,41,0.1179,1.577783E-05,1.7685,103
0.1188,-8.426032E-05,1.782,42,0.1188,-9.466698E-05,1.782,103
0.1197,-7.989624E-05,1.7955,42,0.1197,-6.344701E-05,1.7955,102
0.1206,-0.0001362936,1.809,43,0.1206,6.713969E-07,1.809,102
0.1215,-9.399557E-05,1.8225,42,0.1215,-3.692683E-05,1.8225,103
0.1224,-9.735256E-06,1.836,41,0.1224,-4.49836E-05,1.836,103
0.1233,3.356985E-07,1.8495,42,0.1233,-7.016098E-05,1.8495,103
0.1242,3.121996E-05,1.863,43,0.1242,9.735256E-06,1.863,99
0.1251,-2.987716E-05,1.8765,42,0.1251,2.316319E-05,1.8765,103
0.126,-4.599069E-05,1.89,42,0.126,-4.968337E-05,1.89,102
0.1269,4.968337E-05,1.9035,42,0.1269,-5.001907E-05,1.9035,102
0.1278,-2.383459E-05,1.917,41,0.1278,3.860533E-05,1.917,102
0.1287,-9.231708E-05,1.9305,42,0.1287,-5.035477E-06,1.9305,102
0.1296,4.699779E-05,1.944,43,0.1296,-5.774014E-05,1.944,101
0.1305,1.779202E-05,1.9575,43,0.1305,3.323415E-05,1.9575,102
0.1314,-5.606165E-05,1.971,43,0.1314,4.901198E-05,1.971,100
0.1323,5.740444E-05,1.9845,43,0.1323,-2.584878E-05,1.9845,103
0.1332,0.0001366293,1.998,42,0.1332,7.385367E-06,1.998,101
0.1341,2.450599E-05,2.0115,42,0.1341,4.800488E-05,2.0115,101
0.135,-3.356985E-07,2.025,41,0.135,1.544213E-05,2.025,102
0.1359,-3.021286E-06,2.0385,42,0.1359,4.699779E-06,2.0385,101
0.1368,6.277562E-05,2.052,42,0.1368,-5.169757E-05,2.052,103
0.1377,4.699779E-06,2.0655,42,0.1377,2.551309E-05,2.0655,102
0.1386,-2.517739E-05,2.079,42,0.1386,1.242084E-05,2.079,103
0.1395,8.358892E-05,2.0925,42,0.1395,-4.632639E-05,2.0925,103
0.1404,1.309224E-05,2.106,42,0.1404,-4.901198E-05,2.106,99
0.1413,-6.411841E-05,2.1195,41,0.1413,3.894102E-05,2.1195,100
0.1422,4.229801E-05,2.133,41,0.1422,-7.385367E-06,2.133,102
0.1431,8.157473E-05,2.1465,42,0.1431,-8.761731E-05,2.1465,101
0.144,-4.46479E-05,2.16,42,0.144,4.39765E-05,2.16,101
0.1449,-5.606165E-05,2.1735,42,0.1449,4.095522E-05,2.1735,103
0.1458,2.652018E-05,2.187,41,0.1458,-6.311131E-05,2.187,100
0.1467,-7.721065E-06,2.2005,42,0.1467,-2.18204E-05,2.2005,101
0.1476,-7.888914E-05,2.214,42,0.1476,1.846342E-05,2.214,100
0.1485,1.712062E-05,2.2275,42,0.1485,-3.189136E-05,2.2275,103
0.1494,-4.867628E-05,2.241,41,0.1494,-1.913481E-05,2.241,102
0.1503,7.049668E-06,2.2545,42,0.1503,-6.243992E-05,2.2545,105
0.1512,2.18204E-05,2.268,43,0.1512,-5.706874E-06,2.268,99
0.1521,-9.701686E-05,2.2815,42,0.1521,-9.735256E-06,2.2815,97
0.153,-4.095522E-05,2.295,42,0.153,-4.834058E-05,2.295,101
0.1539,6.277562E-05,2.3085,42,0.1539,-8.358892E-05,2.3085,106
0.1548,-5.706874E-05,2.322,43,0.1548,5.035477E-06,2.322,104
0.1557,-7.553216E-05,2.3355,42,0.1557,-1.510643E-05,2.3355,100
0.1566,8.291753E-05,2.349,43,0.1566,-0.0001138018,2.349,106
0.1575,-5.471885E-05,2.3625,42,0.1575,-2.24918E-05,2.3625,104
0.1584,-8.157473E-05,2.376,42,0.1584,2.349889E-06,2.376,103
0.1593,1.409934E-05,2.3895,42,0.1593,-7.821774E-05,2.3895,101
0.1602,7.888914E-05,2.403,43,0.1602,-3.591974E-05,2.403,102
0.1611,-5.203327E-05,2.4165,43,0.1611,1.812772E-05,2.4165,100
0.162,-2.584878E-05,2.43,43,0.162,-1.275654E-05,2.43,101
0.1629,1.544213E-05,2.4435,43,0.1629,-3.390555E-05,2.4435,106
0.1638,3.457694E-05,2.457,43,0.1638,-7.553216E-05,2.457,101
0.1647,-2.685588E-05,2.4705,41,0.1647,-2.014191E-06,2.4705,100
0.1656,-3.961242E-05,2.484,42,0.1656,-1.678492E-06,2.484,103
0.1665,-1.577783E-05,2.4975,42,0.1665,-6.243992E-05,2.4975,103
0.1674,3.726253E-05,2.511,43,0.1674,-4.934768E-05,2.511,102
0.1683,2.1149E-05,2.5245,44,0.1683,3.726253E-05,2.5245,104
0.1692,-5.203327E-05,2.538,43,0.1692,-1.980621E-05,2.538,102
0.1701,5.606165E-05,2.5515,42,0.1701,-9.365987E-05,2.5515,101
0.171,3.692683E-06,2.565,41,0.171,2.484169E-05,2.565,98
0.1719,-4.968337E-05,2.5785,42,0.1719,1.376364E-05,2.5785,105
0.1728,-3.256275E-05,2.592,42,0.1728,-8.090334E-05,2.592,104
0.1737,4.934768E-05,2.6055,43,0.1737,2.349889E-06,2.6055,102
0.1746,-6.848249E-05,2.619,42,0.1746,2.1149E-05,2.619,102
0.1755,-5.169757E-05,2.6325,43,0.1755,-3.692683E-06,2.6325,104
0.1764,1.007095E-06,2.646,43,0.1764,-2.18204E-05,2.646,101
0.1773,0.0001178302,2.6595,42,0.1773,-6.61326E-05,2.6595,103
0.1782,-1.409934E-05,2.673,41,0.1782,-1.980621E-05,2.673,104
0.1791,-6.478981E-05,2.6865,41,0.1791,-1.913481E-05,2.6865,105
0.18,4.934768E-05,2.7,42,0.18,-4.39765E-05,2.7,106
0.1809,4.129091E-05,2.7135,43,0.1809,-6.915389E-05,2.7135,102
0.1818,-6.478981E-05,2.727,42,0.1818,2.014191E-06,2.727,104
0.1827,-1.275654E-05,2.7405,43,0.1827,-2.316319E-05,2.7405,102
0.1836,0.0001037308,2.754,42,0.1836,-8.795301E-05,2.754,101
0.1845,-6.982528E-05,2.7675,42,0.1845,1.040665E-05,2.7675,103
0.1854,-5.505455E-05,2.781,41,0.1854,3.356985E-05,2.781,98
0.1863,5.941863E-05,2.7945,42,0.1863,-6.57969E-05,2.7945,102
0.1872,-0.0001248798,2.808,42,0.1872,-1.980621E-05,2.808,101
0.1881,-0.0001460288,2.8215,42,0.1881,4.46479E-05,2.8215,101
0.189,-2.24918E-05,2.835,42,0.189,2.383459E-05,2.835,106
0.1899,-4.666209E-05,2.8485,42,0.1899,1.174945E-05,2.8485,102
0.1908,-1.342794E-05,2.862,43,0.1908,-5.371176E-05,2.862,105
0.1917,2.316319E-05,2.8755,42,0.1917,1.544213E-05,2.8755,105
0.1926,-8.023193E-05,2.889,42,0.1926,3.692683E-06,2.889,104
0.1935,-6.6804E-05,2.9025,43,0.1935,-7.284657E-05,2.9025,102
0.1944,4.095522E-05,2.916,42,0.1944,-4.934768E-05,2.916,103
0.1953,1.443504E-05,2.9295,43,0.1953,3.625543E-05,2.9295,100
0.1962,-5.975433E-05,2.943,42,0.1962,-7.049668E-06,2.943,100
0.1971,6.210422E-05,2.9565,42,0.1971,-7.251087E-05,2.9565,101
0.198,4.129091E-05,2.97,42,0.198,1.779202E-05,2.97,102
0.1989,7.821774E-05,2.9835,42,0.1989,4.196231E-05,2.9835,104
0.1998,9.903105E-05,2.997,42,0.1998,-3.625543E-05,2.997,99
0.2007,-3.121996E-05,3.0105,41,0.2007,-4.061952E-05,3.0105,103
0.2016,-8.123904E-05,3.024,0,0.2016,-7.721065E-06,3.024,0
0.2025,-3.659113E-05,3.0375,0,0.2025,-3.793393E-05,3.0375,0
0.2034,3.826963E-05,3.051,0,0.2034,-2.853437E-05,3.051,0
0.2043,3.356985E-05,3.0645,0,0.2043,-6.6804E-05,3.0645,0
0.2052,5.874724E-05,3.078,0,0.2052,-2.349889E-06,3.078,0
0.2061,-5.706874E-06,3.0915,0,0.2061,2.450599E-05,3.0915,0
0.207,3.927672E-05,3.105,0,0.207,-3.121996E-05,3.105,0
0.2079,5.203327E-05,3.1185,0,0.2079,-4.800488E-05,3.1185,0
0.2088,-8.090334E-05,3.132,0,0.2088,3.524834E-05,3.132,0
0.2097,-2.920577E-05,3.1455,0,0.2097,1.309224E-05,3.1455,0
0.2106,6.61326E-05,3.159,0,0.2106,-7.049668E-05,3.159,0
0.2115,-2.853437E-05,3.1725,0,0.2115,2.081331E-05,3.1725,0
0.2124,0.0001111162,3.186,0,0.2124,1.040665E-05,3.186,0
0.2133,6.277562E-05,3.1995,0,0.2133,-5.908293E-05,3.1995,0
0.2142,-6.243992E-05,3.213,0,0.2142,-2.786297E-05,3.213,0
0.2151,-2.28275E-05,3.2265,0,0.2151,2.18204E-05,3.2265,0
0.216,-5.807584E-05,3.24,0,0.216,-1.510643E-05,3.24,0
0.2169,-2.920577E-05,3.2535,0,0.2169,-3.424125E-05,3.2535,0
0.2178,7.754635E-05,3.267,0,0.2178,-9.164568E-05,3.267,0
0.2187,4.666209E-05,3.2805,0,0.2187,-1.040665E-05,3.2805,0
0.2196,-0.0001121233,3.294,0,0.2196,1.309224E-05,3.294,0
0.2205,-5.035477E-05,3.3075,0,0.2205,-4.46479E-05,3.3075,0
0.2214,7.150377E-05,3.321,0,0.2214,-3.457694E-05,3.321,0
0.2223,-0.0001050736,3.3345,0,0.2223,2.887007E-05,3.3345,0
0.2232,-4.834058E-05,3.348,0,0.2232,1.678492E-06,3.348,0
0.2241,0.0001409934,3.3615,0,0.2241,-7.284657E-05,3.3615,0
0.225,-1.947051E-05,3.375,0,0.225,3.994812E-05,3.375,0
0.2259,4.39765E-05,3.3885,0,0.2259,6.042573E-06,3.3885,0
0.2268,9.802396E-05,3.402,0,0.2268,-8.291753E-05,3.402,0
0.2277,-8.493171E-05,3.4155,0,0.2277,-9.735256E-06,3.4155,0
0.2286,-0.0001114519,3.429,0,0.2286,3.189136E-05,3.429,0
0.2295,-3.558404E-05,3.4425,0,0.2295,-9.735256E-06,3.4425,0
0.2304,-1.309224E-05,3.456,0,0.2304,-1.376364E-05,3.456,0
0.2313,-2.1149E-05,3.4695,0,0.2313,-4.699779E-05,3.4695,0
0.2322,4.263371E-05,3.483,0,0.2322,2.887007E-05,3.483,0
0.2331,9.970245E-05,3.4965,0,0.2331,4.867628E-05,3.4965,0
0.234,4.800488E-05,3.51,0,0.234,-3.524834E-05,3.51,0
0.2349,6.881819E-05,3.5235,0,0.2349,-6.009003E-05,3.5235,0
0.2358,-3.088426E-05,3.537,0,0.2358,3.189136E-05,3.537,0
0.2367,-5.270466E-05,3.5505,0,0.2367,2.349889E-06,3.5505,0
0.2376,8.123904E-05,3.564,0,0.2376,-8.224613E-05,3.564,0
0.2385,-1.477073E-05,3.5775,0,0.2385,-1.678492E-06,3.5775,0
0.2394,-0.000161471,3.591,0,0.2394,6.378271E-06,3.591,0
0.2403,-8.996719E-05,3.6045,0,0.2403,-6.478981E-05,3.6045,0
0.2412,-6.78111E-05,3.618,0,0.2412,-2.920577E-05,3.618,0
0.2421,-9.365987E-05,3.6315,0,0.2421,2.484169E-05,3.6315,0
0.243,-7.788205E-05,3.645,0,0.243,-7.385367E-06,3.645,0
0.2439,-3.088426E-05,3.6585,0,0.2439,-1.846342E-05,3.6585,0
0.2448,1.678492E-05,3.672,0,0.2448,-7.553216E-05,3.672,0
0.2457,5.035477E-06,3.6855,0,0.2457,1.275654E-05,3.6855,0
0.2466,-6.042573E-05,3.699,0,0.2466,2.1149E-05,3.699,0
0.2475,-1.107805E-05,3.7125,0,0.2475,-4.666209E-05,3.7125,0
0.2484,-2.450599E-05,3.726,0,0.2484,-7.217517E-05,3.726,0
0.2493,-7.888914E-05,3.7395,0,0.2493,1.309224E-05,3.7395,0
0.2502,6.042573E-06,3.753,0,0.2502,-1.107805E-05,3.753,0
0.2511,3.424125E-05,3.7665,0,0.2511,-9.970245E-05,3.7665,0
0.252,-3.189136E-05,3.78,0,0.252,2.081331E-05,3.78,0
0.2529,7.486076E-05,3.7935,0,0.2529,3.726253E-05,3.7935,0
0.2538,2.719158E-05,3.807,0,0.2538,-5.539025E-05,3.807,0
0.2547,-2.28275E-05,3.8205,0,0.2547,-3.994812E-05,3.8205,0
0.2556,-4.599069E-05,3.834,0,0.2556,1.644922E-05,3.834,0
0.2565,-1.980621E-05,3.8475,0,0.2565,-3.591974E-05,3.8475,0
0.2574,-5.236896E-05,3.861,0,0.2574,-4.028382E-05,3.861,0
0.2583,1.107805E-05,3.8745,0,0.2583,-7.956054E-05,3.8745,0
0.2592,7.452507E-05,3.888,0,0.2592,-6.713969E-07,3.888,0
0.2601,-4.968337E-05,3.9015,0,0.2601,5.035477E-06,3.9015,0
0.261,-9.063859E-06,3.915,0,0.261,-4.29694E-05,3.915,0
0.2619,6.109713E-05,3.9285,0,0.2619,-6.61326E-05,3.9285,0
0.2628,-5.471885E-05,3.942,0,0.2628,2.1149E-05,3.942,0
0.2637,-3.726253E-05,3.9555,0,0.2637,-9.735256E-06,3.9555,0
0.2646,0.0001077592,3.969,0,0.2646,-7.150377E-05,3.969,0
0.2655,9.063859E-06,3.9825,0,0.2655,1.947051E-05,3.9825,0
0.2664,3.457694E-05,3.996,0,0.2664,3.155566E-05,3.996,0
0.2673,0.0001178302,4.0095,0,0.2673,-2.517739E-05,4.0095,0
0.2682,-6.915389E-05,4.023,0,0.2682,-9.735256E-06,4.023,0
0.2691,-0.0001013809,4.0365,0,0.2691,5.874724E-05,4.0365,0
0.27,3.860533E-05,4.05,0,0.27,0,4.05,0
0.2709,-2.719158E-05,4.0635,0,0.2709,-1.107805E-05,4.0635,0
0.2718,5.035477E-06,4.077,0,0.2718,-7.351797E-05,4.077,0
0.2727,6.344701E-05,4.0905,0,0.2727,3.356985E-07,4.0905,0
0.2736,5.337606E-05,4.104,0,0.2736,0,4.104,0
0.2745,1.678492E-06,4.1175,0,0.2745,-6.915389E-05,4.1175,0
0.2754,3.860533E-05,4.131,0,0.2754,-6.51255E-05,4.131,0
0.2763,-6.411841E-05,4.1445,0,0.2763,1.812772E-05,4.1445,0
0.2772,-8.728161E-06,4.158,0,0.2772,-4.196231E-05,4.158,0
0.2781,8.291753E-05,4.1715,0,0.2781,-9.063859E-05,4.1715,0
0.279,1.007095E-05,4.185,0,0.279,2.887007E-05,4.185,0
0.2799,-3.256275E-05,4.1985,0,0.2799,3.591974E-05,4.1985,0
0.2808,6.713969E-07,4.212,0,0.2808,-4.666209E-05,4.212,0
0.2817,-4.733349E-05,4.2255,0,0.2817,-2.450599E-05,4.2255,0
0.2826,-0.0001067521,4.239,0,0.2826,2.652018E-05,4.239,0
0.2835,-9.500267E-05,4.2525,0,0.2835,-1.577783E-05,4.2525,0
0.2844,-2.484169E-05,4.266,0,0.2844,-2.517739E-05,4.266,0
0.2853,6.143282E-05,4.2795,0,0.2853,-5.136187E-05,4.2795,0
0.2862,-1.510643E-05,4.293,0,0.2862,-6.042573E-06,4.293,0
0.2871,2.517739E-05,4.3065,0,0.2871,2.014191E-06,4.3065,0
0.288,2.081331E-05,4.32,0,0.288,-4.39765E-05,4.32,0
0.2889,6.311131E-05,4.3335,0,0.2889,-7.083238E-05,4.3335,0
0.2898,-3.826963E-05,4.347,0,0.2898,2.28275E-05,4.347,0
0.2907,1.376364E-05,4.3605,0,0.2907,0,4.3605,0
0.2916,0.0001017166,4.374,0,0.2916,-9.466698E-05,4.374,0
0.2925,-4.934768E-05,4.3875,0,0.2925,2.786297E-05,4.3875,0
0.2934,-5.270466E-05,4.401,0,0.2934,4.867628E-05,4.401,0
0.2943,1.947051E-05,4.4145,0,0.2943,-5.807584E-05,4.4145,0
0.2952,-0.0001618067,4.428,0,0.2952,-4.53193E-05,4.428,0
0.2961,-0.0001550927,4.4415,0,0.2961,8.392462E-06,4.4415,0
0.297,-2.786297E-05,4.455,0,0.297,1.342794E-06,4.455,0
0.2979,-4.33051E-05,4.4685,0,0.2979,-3.524834E-05,4.4685,0
0.2988,1.644922E-05,4.482,0,0.2988,-7.385367E-05,4.482,0
0.2997,1.779202E-05,4.4955,0,0.2997,1.376364E-05,4.4955,0
0.3006,-8.157473E-05,4.509,0,0.3006,1.242084E-05,4.509,0
0.3015,-4.599069E-05,4.5225,0,0.3015,-5.740444E-05,4.5225,0
0.3024,4.229801E-05,4.536,0,0.3024,-4.33051E-05,4.536,0
0.3033,-2.21561E-05,4.5495,0,0.3033,4.632639E-05,4.5495,0
0.3042,-7.989624E-05,4.563,0,0.3042,1.309224E-05,4.563,0
0.3051,7.116808E-05,4.5765,0,0.3051,-6.344701E-05,4.5765,0
0.306,2.652018E-05,4.59,0,0.306,4.36408E-06,4.59,0
0.3069,4.263371E-05,4.6035,0,0.3069,6.378271E-06,4.6035,0
0.3078,0.0001326009,4.617,0,0.3078,-6.61326E-05,4.617,0
0.3087,7.083238E-05,4.6305,0,0.3087,4.699779E-06,4.6305,0
0.3096,-3.054856E-05,4.644,0,0.3096,4.061952E-05,4.644,0
0.3105,3.759823E-05,4.6575,0,0.3105,-9.735256E-06,4.6575,0
0.3114,3.793393E-05,4.671,0,0.3114,-2.551309E-05,4.671,0
0.3123,-4.36408E-06,4.6845,0,0.3123,-7.922484E-05,4.6845,0
0.3132,-6.713969E-07,4.698,0,0.3132,-6.042573E-06,4.698,0
0.3141,-0.0001460288,4.7115,0,0.3141,-1.846342E-05,4.7115,0
0.315,-3.524834E-05,4.725,0,0.315,-6.176852E-05,4.725,0
0.3159,-1.678492E-06,4.7385,0,0.3159,-7.049668E-05,4.7385,0
0.3168,-7.217517E-05,4.752,0,0.3168,2.652018E-05,4.752,0
0.3177,-3.860533E-05,4.7655,0,0.3177,-6.713969E-06,4.7655,0
0.3186,4.53193E-05,4.779,0,0.3186,-0.0001077592,4.779,0
0.3195,-2.584878E-05,4.7925,0,0.3195,-1.678492E-06,4.7925,0
0.3204,1.644922E-05,4.806,0,0.3204,7.049668E-06,4.806,0
0.3213,1.477073E-05,4.8195,0,0.3213,-6.478981E-05,4.8195,0
0.3222,0.0001144732,4.833,0,0.3222,-5.203327E-05,4.833,0
0.3231,2.450599E-05,4.8465,0,0.3231,1.007095E-05,4.8465,0
0.324,-5.807584E-05,4.86,0,0.324,9.063859E-06,4.86,0
0.3249,-1.174945E-05,4.8735,0,0.3249,-1.074235E-05,4.8735,0
0.3258,0.0001299153,4.887,0,0.3258,-6.57969E-05,4.887,0
0.3267,1.443504E-05,4.9005,0,0.3267,3.189136E-05,4.9005,0
0.3276,-0.0001980621,4.914,0,0.3276,4.766919E-05,4.914,0
0.3285,-6.344701E-05,4.9275,0,0.3285,-2.316319E-05,4.9275,0
0.3294,-5.035477E-06,4.941,0,0.3294,-5.606165E-05,4.941,0
0.3303,-0.0001668421,4.9545,0,0.3303,2.349889E-05,4.9545,0
0.3312,-8.627451E-05,4.968,0,0.3312,1.577783E-05,4.968,0
0.3321,9.198138E-05,4.9815,0,0.3321,-5.203327E-05,4.9815,0
0.333,-5.941863E-05,4.995,0,0.333,4.800488E-05,4.995,0
0.3339,4.934768E-05,5.0085,0,0.3339,1.947051E-05,5.0085,0
0.3348,0.0001047379,5.022,0,0.3348,-8.090334E-05,5.022,0
0.3357,-4.901198E-05,5.0355,0,0.3357,3.692683E-06,5.0355,0
0.3366,-0.000102388,5.049,0,0.3366,3.994812E-05,5.049,0
0.3375,-2.014191E-05,5.0625,0,0.3375,-6.378271E-06,5.0625,0
0.3384,2.349889E-06,5.076,0,0.3384,-9.735256E-06,5.076,0
0.3393,-5.706874E-06,5.0895,0,0.3393,-5.069047E-05,5.0895,0
0.3402,3.088426E-05,5.103,0,0.3402,-8.392462E-06,5.103,0
0.3411,-2.081331E-05,5.1165,0,0.3411,-1.779202E-05,5.1165,0
0.342,-4.095522E-05,5.13,0,0.342,-7.083238E-05,5.13,0
0.3429,4.632639E-05,5.1435,0,0.3429,-6.277562E-05,5.1435,0
0.3438,-5.673304E-05,5.157,0,0.3438,2.014191E-05,5.157,0
0.3447,-4.867628E-05,5.1705,0,0.3447,3.189136E-05,5.1705,0
0.3456,0.0001030594,5.184,0,0.3456,-6.74754E-05,5.184,0
0.3465,-2.18204E-05,5.1975,0,0.3465,2.517739E-05,5.1975,0
0.3474,-2.819867E-05,5.211,0,0.3474,5.606165E-05,5.211,0
0.3483,4.599069E-05,5.2245,0,0.3483,-4.33051E-05,5.2245,0
0.3492,0.0001238727,5.238,0,0.3492,-3.726253E-05,5.238,0
0.3501,2.786297E-05,5.2515,0,0.3501,2.24918E-05,5.2515,0
0.351,-5.706874E-06,5.265,0,0.351,-5.706874E-06,5.265,0
0.3519,4.800488E-05,5.2785,0,0.3519,-2.954147E-05,5.2785,0
0.3528,7.754635E-05,5.292,0,0.3528,-6.143282E-05,5.292,0
0.3537,2.652018E-05,5.3055,0,0.3537,-7.721065E-06,5.3055,0
0.3546,-8.761731E-05,5.319,0,0.3546,-1.242084E-05,5.319,0
0.3555,-6.411841E-05,5.3325,0,0.3555,-4.934768E-05,5.3325,0
0.3564,-2.652018E-05,5.346,0,0.3564,-5.572595E-05,5.346,0
0.3573,-8.89601E-05,5.3595,0,0.3573,3.088426E-05,5.3595,0
0.3582,-2.719158E-05,5.373,0,0.3582,-3.155566E-05,5.373,0
0.3591,-1.342794E-06,5.3865,0,0.3591,-0.0001111162,5.3865,0
0.36,-6.6804E-05,5.4,0,0.36,9.063859E-06,5.4,0
0.3609,7.486076E-05,5.4135,0,0.3609,-6.713969E-07,5.4135,0
0.3618,3.457694E-05,5.427,0,0.3618,-9.298848E-05,5.427,0
0.3627,2.28275E-05,5.4405,0,0.3627,-5.471885E-05,5.4405,0
0.3636,1.040665E-05,5.454,0,0.3636,3.356985E-07,5.454,0
0.3645,-7.049668E-06,5.4675,0,0.3645,-3.826963E-05,5.4675,0
0.3654,-3.860533E-05,5.481,0,0.3654,-4.49836E-05,5.481,0
0.3663,5.740444E-05,5.4945,0,0.3663,-0.0001033951,5.4945,0
0.3672,5.807584E-05,5.508,0,0.3672,-2.349889E-05,5.508,0
0.3681,-9.903105E-05,5.5215,0,0.3681,-9.735256E-06,5.5215,0
0.369,-5.136187E-05,5.535,0,0.369,-3.826963E-05,5.535,0
0.3699,1.376364E-05,5.5485,0,0.3699,-6.6804E-05,5.5485,0
0.3708,-8.090334E-05,5.562,0,0.3708,1.947051E-05,5.562,0
0.3717,-3.155566E-05,5.5755,0,0.3717,3.356985E-07,5.5755,0
0.3726,0.0001285725,5.589,0,0.3726,-6.74754E-05,5.589,0
0.3735,-2.719158E-05,5.6025,0,0.3735,3.054856E-05,5.6025,0
0.3744,-2.719158E-05,5.616,0,0.3744,1.947051E-05,5.616,0
0.3753,3.189136E-05,5.6295,0,0.3753,-6.009003E-05,5.6295,0
0.3762,-8.392462E-06,5.643,0,0.3762,-1.544213E-05,5.643,0
0.3771,-0.0001373007,5.6565,0,0.3771,4.061952E-05,5.6565,0
0.378,-3.054856E-05,5.67,0,0.378,-1.242084E-05,5.67,0
0.3789,-1.913481E-05,5.6835,0,0.3789,-7.721065E-06,5.6835,0
0.3798,4.095522E-05,5.697,0,0.3798,-3.256275E-05,5.697,0
0.3807,8.459602E-05,5.7105,0,0.3807,4.49836E-05,5.7105,0
0.3816,-4.666209E-05,5.724,0,0.3816,1.812772E-05,5.724,0
0.3825,-3.021286E-05,5.7375,0,0.3825,-5.539025E-05,5.7375,0
0.3834,5.304036E-05,5.751,0,0.3834,-4.599069E-05,5.751,0
0.3843,-4.934768E-05,5.7645,0,0.3843,3.256275E-05,5.7645,0
0.3852,-1.644922E-05,5.778,0,0.3852,-2.18204E-05,5.778,0
0.3861,5.270466E-05,5.7915,0,0.3861,-0.0001040665,5.7915,0
0.387,-3.189136E-05,5.805,0,0.387,1.007095E-05,5.805,0
0.3879,3.054856E-05,5.8185,0,0.3879,2.014191E-05,5.8185,0
0.3888,9.634547E-05,5.832,0,0.3888,-6.478981E-05,5.832,0
0.3897,2.920577E-05,5.8455,0,0.3897,-3.961242E-05,5.8455,0
0.3906,-8.358892E-05,5.859,0,0.3906,2.24918E-05,5.859,0
0.3915,-7.217517E-05,5.8725,0,0.3915,-5.371176E-06,5.8725,0
0.3924,6.713969E-07,5.886,0,0.3924,-1.275654E-05,5.886,0
0.3933,4.800488E-05,5.8995,0,0.3933,-4.49836E-05,5.8995,0
0.3942,-4.36408E-06,5.913,0,0.3942,2.450599E-05,5.913,0
0.3951,-5.941863E-05,5.9265,0,0.3951,2.047761E-05,5.9265,0
0.396,1.477073E-05,5.94,0,0.396,-3.759823E-05,5.94,0
0.3969,-2.21561E-05,5.9535,0,0.3969,-7.217517E-05,5.9535,0
0.3978,-8.761731E-05,5.967,0,0.3978,2.584878E-05,5.967,0
0.3987,1.846342E-05,5.9805,0,0.3987,4.36408E-06,5.9805,0
0.3996,5.874724E-05,5.994,0,0.3996,-0.0001104448,5.994,0
0.4005,-4.53193E-05,6.0075,0,0.4005,-3.356985E-06,6.0075,0
0.4014,6.915389E-05,6.021,0,0.4014,1.980621E-05,6.021,0
0.4023,0.0001054093,6.0345,0,0.4023,-6.210422E-05,6.0345,0
0.4032,1.040665E-05,6.048,0,0.4032,-4.733349E-05,6.048,0
0.4041,-5.438316E-05,6.0615,0,0.4041,-6.713969E-07,6.0615,0
0.405,-5.001907E-05,6.075,0,0.405,-1.644922E-05,6.075,0
0.4059,-2.18204E-05,6.0885,0,0.4059,-2.21561E-05,6.0885,0
0.4068,3.054856E-05,6.102,0,0.4068,-4.632639E-05,6.102,0
0.4077,5.136187E-05,6.1155,0,0.4077,3.726253E-05,6.1155,0
0.4086,-6.277562E-05,6.129,0,0.4086,4.934768E-05,6.129,0
0.4095,-1.779202E-05,6.1425,0,0.4095,-9.063859E-06,6.1425,0
0.4104,4.800488E-05,6.156,0,0.4104,-2.652018E-05,6.156,0
0.4113,-8.493171E-05,6.1695,0,0.4113,4.46479E-05,6.1695,0
0.4122,-3.860533E-05,6.183,0,0.4122,2.349889E-06,6.183,0
0.4131,0.0001097734,6.1965,0,0.4131,-6.277562E-05,6.1965,0
0.414,-9.433127E-05,6.21,0,0.414,3.860533E-05,6.21,0
0.4149,-0.0001406577,6.2235,0,0.4149,3.189136E-05,6.2235,0
0.4158,0,6.237,0,0.4158,-6.61326E-05,6.237,0
0.4167,-7.553216E-05,6.2505,0,0.4167,-3.054856E-05,6.2505,0
0.4176,-0.0001393149,6.264,0,0.4176,-3.356985E-07,6.264,0
0.4185,-5.606165E-05,6.2775,0,0.4185,-4.46479E-05,6.2775,0
0.4194,-1.007095E-05,6.291,0,0.4194,-2.987716E-05,6.291,0
0.4203,3.356985E-06,6.3045,0,0.4203,-6.6804E-05,6.3045,0
0.4212,-4.36408E-06,6.318,0,0.4212,-2.21561E-05,6.318,0
0.4221,-3.961242E-05,6.3315,0,0.4221,-3.927672E-05,6.3315,0
0.423,-5.941863E-05,6.345,0,0.423,-7.083238E-05,6.345,0
0.4239,2.954147E-05,6.3585,0,0.4239,-5.908293E-05,6.3585,0
0.4248,2.987716E-05,6.372,0,0.4248,4.33051E-05,6.372,0
0.4257,-2.316319E-05,6.3855,0,0.4257,-2.047761E-05,6.3855,0
0.4266,9.466698E-05,6.399,0,0.4266,-8.92958E-05,6.399,0
0.4275,5.975433E-05,6.4125,0,0.4275,1.980621E-05,6.4125,0
0.4284,1.644922E-05,6.426,0,0.4284,3.256275E-05,6.426,0
0.4293,2.417029E-05,6.4395,0,0.4293,-5.035477E-05,6.4395,0
0.4302,8.72816E-05,6.453,0,0.4302,2.383459E-05,6.453,0
0.4311,-5.874724E-05,6.4665,0,0.4311,7.989624E-05,6.4665,0
0.432,-2.551309E-05,6.48,0,0.432,2.920577E-05,6.48,0
0.4329,1.443504E-05,6.4935,0,0.4329,-8.392462E-06,6.4935,0
0.4338,0.0001252155,6.507,0,0.4338,-4.39765E-05,6.507,0
0.4347,1.443504E-05,6.5205,0,0.4347,1.174945E-05,6.5205,0
0.4356,-0.000140322,6.534,0,0.4356,-1.745632E-05,6.534,0
0.4365,-1.779202E-05,6.5475,0,0.4365,-7.150377E-05,6.5475,0
0.4374,7.721065E-06,6.561,0,0.4374,-7.989624E-05,6.561,0
0.4383,-0.0001050736,6.5745,0,0.4383,-9.399558E-06,6.5745,0
0.4392,-3.591974E-05,6.588,0,0.4392,-2.920577E-05,6.588,0
0.4401,7.016098E-05,6.6015,0,0.4401,-0.0001185016,6.6015,0
0.441,-6.210422E-05,6.615,0,0.441,5.706874E-06,6.615,0
0.4419,6.411841E-05,6.6285,0,0.4419,3.054856E-05,6.6285,0
0.4428,9.768826E-05,6.642,0,0.4428,-5.539025E-05,6.642,0
0.4437,-4.934768E-05,6.6555,0,0.4437,-2.819867E-05,6.6555,0
0.4446,-7.385367E-05,6.669,0,0.4446,2.517739E-05,6.669,0
0.4455,3.457694E-05,6.6825,0,0.4455,-1.107805E-05,6.6825,0
0.4464,6.713969E-07,6.696,0,0.4464,-2.450599E-05,6.696,0
0.4473,0,6.7095,0,0.4473,-9.332418E-05,6.7095,0
0.4482,3.894102E-05,6.723,0,0.4482,-7.049668E-06,6.723,0
0.4491,5.001907E-05,6.7365,0,0.4491,2.517739E-05,6.7365,0
0.45,-9.063859E-06,6.75,0,0.45,-5.001907E-05,6.75,0
0.4509,4.53193E-05,6.7635,0,0.4509,-4.49836E-05,6.7635,0
0.4518,-5.136187E-05,6.777,0,0.4518,3.088426E-05,6.777,0
0.4527,-2.349889E-05,6.7905,0,0.4527,1.376364E-05,6.7905,0
0.4536,0.0001285725,6.804,0,0.4536,-8.291753E-05,6.804,0
0.4545,-1.376364E-05,6.8175,0,0.4545,2.887007E-05,6.8175,0
0.4554,-5.404745E-05,6.831,0,0.4554,3.424125E-05,6.831,0
0.4563,2.316319E-05,6.8445,0,0.4563,-4.599069E-05,6.8445,0
0.4572,-7.721065E-05,6.858,0,0.4572,2.014191E-06,6.858,0
0.4581,-0.0001272297,6.8715,0,0.4581,4.095522E-05,6.8715,0
0.459,-0.0001097734,6.885,0,0.459,1.309224E-05,6.885,0
0.4599,-3.726253E-05,6.8985,0,0.4599,-1.644922E-05,6.8985,0
0.4608,1.846342E-05,6.912,0,0.4608,-6.210422E-05,6.912,0
0.4617,2.786297E-05,6.9255,0,0.4617,-2.752728E-05,6.9255,0
0.4626,6.378271E-06,6.939,0,0.4626,5.035477E-06,6.939,0
0.4635,-4.39765E-05,6.9525,0,0.4635,-4.867628E-05,6.9525,0
0.4644,1.040665E-05,6.966,0,0.4644,-6.814679E-05,6.966,0
0.4653,-2.316319E-05,6.9795,0,0.4653,1.712062E-05,6.9795,0
0.4662,-3.121996E-05,6.993,0,0.4662,-2.920577E-05,6.993,0
0.4671,3.659113E-05,7.0065,0,0.4671,-0.0001017166,7.0065,0
0.468,-4.766919E-05,7.02,0,0.468,1.577783E-05,7.02,0
0.4689,2.584878E-05,7.0335,0,0.4689,1.141375E-05,7.0335,0
0.4698,-3.692683E-06,7.047,0,0.4698,-5.807584E-05,7.047,0
0.4707,0.0001097734,7.0605,0,0.4707,-5.035477E-06,7.0605,0
0.4716,3.424125E-05,7.074,0,0.4716,2.652018E-05,7.074,0
0.4725,-3.625543E-05,7.0875,0,0.4725,1.342794E-06,7.0875,0
0.4734,6.378271E-06,7.101,0,0.4734,-2.24918E-05,7.101,0
0.4743,0.0001017166,7.1145,0,0.4743,-8.191043E-05,7.1145,0
0.4752,2.652018E-05,7.128,0,0.4752,-8.392462E-06,7.128,0
0.4761,-6.848249E-05,7.1415,0,0.4761,-3.356985E-07,7.1415,0
0.477,-8.392462E-06,7.155,0,0.477,-2.719158E-05,7.155,0
0.4779,2.584878E-05,7.1685,0,0.4779,-3.558404E-05,7.1685,0
0.4788,-6.948959E-05,7.182,0,0.4788,3.927672E-05,7.182,0
0.4797,-4.733349E-05,7.1955,0,0.4797,1.644922E-05,7.1955,0
0.4806,0.0001252155,7.209,0,0.4806,-9.433127E-05,7.209,0
0.4815,-6.51255E-05,7.2225,0,0.4815,2.21561E-05,7.2225,0
0.4824,-0.0001205158,7.236,0,0.4824,3.189136E-05,7.236,0
0.4833,-2.484169E-05,7.2495,0,0.4833,-5.404745E-05,7.2495,0
0.4842,-5.136187E-05,7.263,0,0.4842,-3.155566E-05,7.263,0
0.4851,-0.0001597925,7.2765,0,0.4851,1.477073E-05,7.2765,0
0.486,-6.61326E-05,7.29,0,0.486,-2.786297E-05,7.29,0
0.4869,-5.941863E-05,7.3035,0,0.4869,-2.584878E-05,7.3035,0
0.4878,2.349889E-06,7.317,0,0.4878,-7.351797E-05,7.317,0
0.4887,8.72816E-05,7.3305,0,0.4887,2.047761E-05,7.3305,0
0.4896,5.874724E-05,7.344,0,0.4896,8.728161E-06,7.344,0
0.4905,4.49836E-05,7.3575,0,0.4905,-5.203327E-05,7.3575,0
0.4914,6.78111E-05,7.371,0,0.4914,-3.457694E-05,7.371,0
0.4923,-1.174945E-05,7.3845,0,0.4923,3.524834E-05,7.3845,0
0.4932,-3.356985E-06,7.398,0,0.4932,-1.409934E-05,7.398,0
0.4941,4.867628E-05,7.4115,0,0.4941,-9.231708E-05,7.4115,0
0.495,-2.349889E-05,7.425,0,0.495,2.24918E-05,7.425,0
0.4959,-0.0001151446,7.4385,0,0.4959,3.558404E-05,7.4385,0
0.4968,-5.673304E-05,7.452,0,0.4968,-3.894102E-05,7.452,0
0.4977,2.584878E-05,7.4655,0,0.4977,-3.390555E-05,7.4655,0
0.4986,-0.0001356222,7.479,0,0.4986,-1.174945E-05,7.479,0
0.4995,-4.36408E-05,7.4925,0,0.4995,-5.270466E-05,7.4925,0
0.5004,4.901198E-05,7.506,0,0.5004,-5.673304E-05,7.506,0
0.5013,1.947051E-05,7.5195,0,0.5013,-0.0001037308,7.5195,0
0.5022,1.544213E-05,7.533,0,0.5022,-1.712062E-05,7.533,0
0.5031,-2.1149E-05,7.5465,0,0.5031,2.383459E-05,7.5465,0
0.504,-3.356985E-07,7.56,0,0.504,-2.752728E-05,7.56,0
0.5049,-4.36408E-06,7.5735,0,0.5049,-4.36408E-05,7.5735,0
0.5058,-5.203327E-05,7.587,0,0.5058,5.337606E-05,7.587,0
0.5067,2.987716E-05,7.6005,0,0.5067,1.208515E-05,7.6005,0
0.5076,6.411841E-05,7.614,0,0.5076,-9.063859E-05,7.614,0
0.5085,-2.18204E-05,7.6275,0,0.5085,3.927672E-05,7.6275,0
0.5094,0.0001003738,7.641,0,0.5094,2.450599E-05,7.641,0
0.5103,0.0001225299,7.6545,0,0.5103,-6.915389E-05,7.6545,0
0.5112,5.908293E-05,7.668,0,0.5112,2.349889E-06,7.668,0
0.5121,-3.256275E-05,7.6815,0,0.5121,4.599069E-05,7.6815,0
0.513,-4.632639E-05,7.695,0,0.513,-7.049668E-06,7.695,0
0.5139,-3.356985E-07,7.7085,0,0.5139,-3.256275E-05,7.7085,0
0.5148,3.927672E-05,7.722,0,0.5148,-7.418937E-05,7.722,0
0.5157,4.263371E-05,7.7355,0,0.5157,1.376364E-05,7.7355,0
0.5166,-0.0001957122,7.749,0,0.5166,-2.349889E-06,7.749,0
0.5175,-9.365987E-05,7.7625,0,0.5175,-6.210422E-05,7.7625,0
0.5184,3.524834E-05,7.776,0,0.5184,-6.881819E-05,7.776,0
0.5193,-0.0001104448,7.7895,0,0.5193,7.721065E-06,7.7895,0
0.5202,-6.009003E-05,7.803,0,0.5202,-3.558404E-05,7.803,0
0.5211,9.735256E-05,7.8165,0,0.5211,-0.0001044022,7.8165,0
0.522,-2.316319E-05,7.83,0,0.522,-1.477073E-05,7.83,0
0.5229,8.023193E-05,7.8435,0,0.5229,-1.107805E-05,7.8435,0
0.5238,0.0001873197,7.857,0,0.5238,-0.0001003738,7.857,0
0.5247,3.591974E-05,7.8705,0,0.5247,-3.323415E-05,7.8705,0
0.5256,-3.356985E-05,7.884,0,0.5256,8.392462E-06,7.884,0
0.5265,6.378271E-06,7.8975,0,0.5265,-3.121996E-05,7.8975,0
0.5274,4.196231E-05,7.911,0,0.5274,-3.256275E-05,7.911,0
0.5283,3.189136E-05,7.9245,0,0.5283,-8.090334E-05,7.9245,0
0.5292,-2.316319E-05,7.938,0,0.5292,-1.913481E-05,7.938,0
0.5301,-6.277562E-05,7.9515,0,0.5301,-2.719158E-05,7.9515,0
0.531,-2.18204E-05,7.965,0,0.531,-5.673304E-05,7.965,0
0.5319,4.53193E-05,7.9785,0,0.5319,-6.344701E-05,7.9785,0
0.5328,7.721065E-06,7.992,0,0.5328,4.263371E-05,7.992,0
0.5337,-7.284657E-05,8.0055,0,0.5337,2.047761E-05,8.0055,0
0.5346,7.486076E-05,8.019,0,0.5346,-3.793393E-05,8.019,0
0.5355,7.284657E-05,8.0325,0,0.5355,6.143282E-05,8.0325,0
0.5364,-4.867628E-05,8.046,0,0.5364,5.874724E-05,8.046,0
0.5373,3.457694E-05,8.0595,0,0.5373,-3.524834E-05,8.0595,0
0.5382,5.841154E-05,8.073,0,0.5382,-3.692683E-06,8.073,0
0.5391,-7.956054E-05,8.0865,0,0.5391,5.874724E-05,8.0865,0
0.54,-8.123904E-05,8.1,0,0.54,1.309224E-05,8.1,0
0.5409,-2.047761E-05,8.1135,0,0.5409,-2.987716E-05,8.1135,0
0.5418,3.726253E-05,8.127,0,0.5418,-7.486076E-05,8.127,0
0.5427,-6.848249E-05,8.1405,0,0.5427,-5.706874E-06,8.1405,0
0.5436,-0.000179263,8.154,0,0.5436,-1.812772E-05,8.154,0
0.5445,-5.572595E-05,8.1675,0,0.5445,-6.478981E-05,8.1675,0
0.5454,-1.644922E-05,8.181,0,0.5454,-7.083238E-05,8.181,0
0.5463,-0.0001033951,8.1945,0,0.5463,8.056763E-06,8.1945,0
0.5472,-8.69459E-05,8.208,0,0.5472,-1.846342E-05,8.208,0
0.5481,1.846342E-05,8.2215,0,0.5481,-9.164568E-05,8.2215,0
0.549,-6.814679E-05,8.235,0,0.549,2.349889E-05,8.235,0
0.5499,-3.457694E-05,8.2485,0,0.5499,2.652018E-05,8.2485,0
0.5508,8.96315E-05,8.262,0,0.5508,-3.894102E-05,8.262,0
0.5517,8.291753E-05,8.2755,0,0.5517,9.399558E-06,8.2755,0
0.5526,-3.189136E-05,8.289,0,0.5526,4.196231E-05,8.289,0
0.5535,4.36408E-06,8.3025,0,0.5535,9.735256E-06,8.3025,0
0.5544,1.577783E-05,8.316,0,0.5544,-5.371176E-06,8.316,0
0.5553,0.0001084306,8.3295,0,0.5553,-6.915389E-05,8.3295,0
0.5562,1.342794E-06,8.343,0,0.5562,-8.728161E-06,8.343,0
0.5571,-0.0001715419,8.3565,0,0.5571,-3.390555E-05,8.3565,0
0.558,-3.793393E-05,8.37,0,0.558,-0.0001111162,8.37,0
0.5589,9.063859E-06,8.3835,0,0.5589,-0.0001195087,8.3835,0
0.5598,-0.0001618067,8.397,0,0.5598,-3.256275E-05,8.397,0
0.5607,-9.835965E-05,8.4105,0,0.5607,-4.46479E-05,8.4105,0
0.5616,4.800488E-05,8.424,0,0.5616,-0.0001292439,8.424,0
0.5625,-6.378271E-06,8.4375,0,0.5625,-1.745632E-05,8.4375,0
0.5634,-3.054856E-05,8.451,0,0.5634,4.229801E-05,8.451,0
0.5643,6.915389E-05,8.4645,0,0.5643,7.049668E-06,8.4645,0
0.5652,4.867628E-05,8.478,0,0.5652,0.0001044022,8.478,0
0.5661,-5.102617E-05,8.4915,0,0.5661,0.0001312581,8.4915,0
0.567,1.309224E-05,8.505,0,0.567,7.956054E-05,8.505,0
0.5679,3.155566E-05,8.5185,0,0.5679,4.53193E-05,8.5185,0
0.5688,2.652018E-05,8.532,0,0.5688,-1.376364E-05,8.532,0
0.5697,6.277562E-05,8.5455,0,0.5697,2.450599E-05,8.5455,0
0.5706,0.000144686,8.559,0,0.5706,3.155566E-05,8.559,0
0.5715,6.78111E-05,8.5725,0,0.5715,-2.316319E-05,8.5725,0
0.5724,0.000109102,8.586,0,0.5724,-2.987716E-05,8.586,0
0.5733,2.517739E-05,8.5995,0,0.5733,2.719158E-05,8.5995,0
0.5742,1.577783E-05,8.613,0,0.5742,-3.457694E-05,8.613,0
0.5751,7.956054E-05,8.6265,0,0.5751,-0.0001033951,8.6265,0
0.576,-2.047761E-05,8.64,0,0.576,6.378271E-06,8.64,0
0.5769,-3.390555E-05,8.6535,0,0.5769,-9.063859E-06,8.6535,0
0.5778,3.155566E-05,8.667,0,0.5778,-6.378271E-05,8.667,0
0.5787,-7.016098E-05,8.6805,0,0.5787,-1.141375E-05,8.6805,0
0.5796,-7.989624E-05,8.694,0,0.5796,2.719158E-05,8.694,0
0.5805,-7.553216E-05,8.7075,0,0.5805,-8.392462E-06,8.7075,0
0.5814,-5.001907E-05,8.721,0,0.5814,-3.189136E-05,8.721,0
0.5823,3.189136E-05,8.7345,0,0.5823,-9.399557E-05,8.7345,0
0.5832,-3.021286E-05,8.748,0,0.5832,-3.356985E-05,8.748,0
0.5841,-0.0001215228,8.7615,0,0.5841,-5.337606E-05,8.7615,0
0.585,-0.0001000381,8.775,0,0.585,-0.0001178302,8.775,0
0.5859,-3.424125E-05,8.7885,0,0.5859,-0.000136965,8.7885,0
0.5868,-0.0001366293,8.802,0,0.5868,-4.867628E-05,8.802,0
0.5877,-8.191043E-05,8.8155,0,0.5877,-3.524834E-05,8.8155,0
0.5886,0.0001000381,8.829,0,0.5886,-0.0001040665,8.829,0
0.5895,-4.39765E-05,8.8425,0,0.5895,2.349889E-06,8.8425,0
0.5904,0.0001211871,8.856,0,0.5904,2.24918E-05,8.856,0
0.5913,0.0002252537,8.8695,0,0.5913,-4.867628E-05,8.8695,0
0.5922,-3.289845E-05,8.883,0,0.5922,2.047761E-05,8.883,0
0.5931,-9.433127E-05,8.8965,0,0.5931,9.735256E-05,8.8965,0
0.594,-2.719158E-05,8.91,0,0.594,7.385367E-05,8.91,0
0.5949,-8.056763E-06,8.9235,0,0.5949,8.526741E-05,8.9235,0
0.5958,3.524834E-05,8.937,0,0.5958,2.383459E-05,8.937,0
0.5967,5.874724E-05,8.9505,0,0.5967,6.478981E-05,8.9505,0
0.5976,-0.0001232013,8.964,0,0.5976,4.33051E-05,8.964,0
0.5985,-8.627451E-05,8.9775,0,0.5985,-8.056763E-06,8.9775,0
0.5994,3.726253E-05,8.991,0,0.5994,-6.076142E-05,8.991,0
0.6003,-3.323415E-05,9.0045,0,0.6003,-1.678492E-06,9.0045,0
0.6012,-9.533837E-05,9.018,0,0.6012,-7.888914E-05,9.018,0
0.6021,3.021286E-06,9.0315,0,0.6021,-0.0001634852,9.0315,0
0.603,-7.620356E-05,9.045,0,0.603,-7.620356E-05,9.045,0
0.6039,-7.385367E-05,9.0585,0,0.6039,-0.0001050736,9.0585,0
0.6048,-1.376364E-05,9.072001,0,0.6048,-0.000200412,9.072001,0
0.6057,5.069047E-05,9.0855,0,0.6057,-0.0001866484,9.0855,0
0.6066,-0.0001064164,9.099,0,0.6066,-0.0001144732,9.099,0
0.6075,-4.666209E-05,9.1125,0,0.6075,-0.0001420005,9.1125,0
0.6084,6.344701E-05,9.126,0,0.6084,-9.500267E-05,9.126,0
0.6093,3.860533E-05,9.1395,0,0.6093,-1.510643E-05,9.1395,0
0.6102,7.217517E-05,9.153,0,0.6102,0.0001285725,9.153,0
0.6111,8.291753E-05,9.1665,0,0.6111,0.0002581521,9.1665,0
0.612,6.57969E-05,9.18,0,0.612,0.0002564736,9.18,0
0.6129,4.699779E-05,9.1935,0,0.6129,0.0001453574,9.1935,0
0.6138,-6.713969E-07,9.207,0,0.6138,0.0001628138,9.207,0
0.6147,2.1149E-05,9.2205,0,0.6147,8.291753E-05,9.2205,0
0.6156,2.450599E-05,9.234,0,0.6156,-6.344701E-05,9.234,0
0.6165,-4.39765E-05,9.2475,0,0.6165,-7.049668E-06,9.2475,0
0.6174,6.042573E-06,9.261,0,0.6174,-7.150377E-05,9.261,0
0.6183,5.001907E-05,9.2745,0,0.6183,-0.0001493858,9.2745,0
0.6192,0.0002171969,9.288,0,0.6192,-2.853437E-05,9.288,0
0.6201,9.701686E-05,9.3015,0,0.6201,7.385367E-05,9.3015,0
0.621,8.69459E-05,9.315,0,0.621,6.881819E-05,9.315,0
0.6219,3.994812E-05,9.3285,0,0.6219,-1.779202E-05,9.3285,0
0.6228,2.1149E-05,9.342,0,0.6228,-7.821774E-05,9.342,0
0.6237,-5.572595E-05,9.3555,0,0.6237,1.007095E-06,9.3555,0
0.6246,-0.0001923552,9.369,0,0.6246,-8.392462E-06,9.369,0
0.6255,-8.627451E-05,9.3825,0,0.6255,-6.51255E-05,9.3825,0
0.6264,1.443504E-05,9.396,0,0.6264,-0.0001007095,9.396,0
0.6273,-0.0001628138,9.4095,0,0.6273,5.035477E-06,9.4095,0
0.6282,-0.0001386435,9.423,0,0.6282,3.927672E-05,9.423,0
0.6291,-1.107805E-05,9.4365,0,0.6291,-2.786297E-05,9.4365,0
0.63,-0.0001346151,9.45,0,0.63,0.0001070878,9.45,0
0.6309,-0.0001641566,9.4635,0,0.6309,0.0001064164,9.4635,0
0.6318,-7.586786E-05,9.477,0,0.6318,-1.678492E-05,9.477,0
0.6327,-0.0002531167,9.4905,0,0.6327,-0.0001064164,9.4905,0
0.6336,-0.0002588235,9.504,0,0.6336,-0.0001889983,9.504,0
0.6345,-0.000158114,9.5175,0,0.6345,-0.0002541238,9.5175,0
0.6354,-3.994812E-05,9.531,0,0.6354,-0.000224918,9.531,0
0.6363,-1.443504E-05,9.5445,0,0.6363,-0.0002064546,9.5445,0
0.6372,3.927672E-05,9.558,0,0.6372,-7.016098E-05,9.558,0
0.6381,9.332418E-05,9.5715,0,0.6381,-1.409934E-05,9.5715,0
0.639,0.0001087663,9.585,0,0.639,-3.021286E-05,9.585,0
0.6399,0.0002145113,9.5985,0,0.6399,-6.210422E-05,9.5985,0
0.6408,8.761731E-05,9.612,0,0.6408,1.812772E-05,9.612,0
0.6417,-1.846342E-05,9.6255,0,0.6417,2.551309E-05,9.6255,0
0.6426,7.418937E-05,9.639,0,0.6426,-2.450599E-05,9.639,0
0.6435,-1.007095E-06,9.6525,0,0.6435,9.500267E-05,9.6525,0
0.6444,-0.0001722133,9.666,0,0.6444,9.231708E-05,9.666,0
0.6453,-8.459602E-05,9.6795,0,0.6453,-5.404745E-05,9.6795,0
0.6462,5.471885E-05,9.693,0,0.6462,-2.920577E-05,9.693,0
0.6471,-0.0001910124,9.7065,0,0.6471,2.887007E-05,9.7065,0
0.648,-0.0001507286,9.72,0,0.648,2.551309E-05,9.72,0
0.6489,-2.551309E-05,9.7335,0,0.6489,5.001907E-05,9.7335,0
0.6498,3.222705E-05,9.747,0,0.6498,1.980621E-05,9.747,0
0.6507,-4.028382E-05,9.7605,0,0.6507,8.72816E-05,9.7605,0
0.6516,-2.316319E-05,9.774,0,0.6516,7.888914E-05,9.774,0
0.6525,0.0001312581,9.7875,0,0.6525,5.471885E-05,9.7875,0
0.6534,0.0001540856,9.801,0,0.6534,3.625543E-05,9.801,0
0.6543,5.874724E-05,9.8145,0,0.6543,4.666209E-05,9.8145,0
0.6552,0.000109102,9.828,0,0.6552,-3.591974E-05,9.828,0
0.6561,0.0001795987,9.8415,0,0.6561,-0.0001205158,9.8415,0
0.657,5.136187E-05,9.855,0,0.657,-2.014191E-06,9.855,0
0.6579,5.606165E-05,9.8685,0,0.6579,-2.349889E-06,9.8685,0
0.6588,9.164568E-05,9.882,0,0.6588,2.28275E-05,9.882,0
0.6597,-5.471885E-05,9.8955,0,0.6597,0.0001111162,9.8955,0
0.6606,-0.0001571069,9.909,0,0.6606,8.258183E-05,9.909,0
0.6615,-4.33051E-05,9.9225,0,0.6615,3.726253E-05,9.9225,0
0.6624,3.793393E-05,9.936,0,0.6624,0.0001003738,9.936,0
0.6633,0.000119173,9.9495,0,0.6633,5.001907E-05,9.9495,0
0.6642,9.634547E-05,9.963,0,0.6642,6.210422E-05,9.963,0
0.6651,9.903105E-05,9.976501,0,0.6651,0.0001000381,9.976501,0
0.666,0.0002017548,9.99,0,0.666,-1.443504E-05,9.99,0
0.6669,0.0001164874,10.0035,0,0.6669,-0.0001564355,10.0035,0
0.6678,-0.0001151446,10.017,0,0.6678,-0.0001346151,10.017,0
0.6687,-7.486076E-05,10.0305,0,0.6687,-0.0001379721,10.0305,0
0.6696,3.927672E-05,10.044,0,0.6696,-0.0001916838,10.044,0
0.6705,-9.567407E-05,10.0575,0,0.6705,-9.030289E-05,10.0575,0
0.6714,-0.0001990692,10.071,0,0.6714,-0.0001010452,10.071,0
0.6723,-0.0001084306,10.0845,0,0.6723,-0.000207126,10.0845,0
0.6732,-0.0002420386,10.098,0,0.6732,-0.000109102,10.098,0
0.6741,-0.0002299535,10.1115,0,0.6741,-3.994812E-05,10.1115,0
0.675,-0.0001131304,10.125,0,0.675,-0.0001416648,10.125,0
0.6759,-0.0001215228,10.1385,0,0.6759,-0.0001154803,10.1385,0
0.6768,-5.807584E-05,10.152,0,0.6768,-0.0001292439,10.152,0
0.6777,0.0001017166,10.1655,0,0.6777,-9.198138E-05,10.1655,0
0.6786,0.0002279393,10.179,0,0.6786,-9.298848E-05,10.179,0
0.6795,0.000295079,10.1925,0,0.6795,-0.0001282368,10.1925,0
0.6804,0.0004917983,10.206,0,0.6804,-5.774014E-05,10.206,0
0.6813,0.0004394293,10.2195,0,0.6813,-3.189136E-05,10.2195,0
0.6822,0.0002547952,10.233,0,0.6822,-7.217517E-05,10.233,0
0.6831,0.0002923934,10.2465,0,0.6831,-5.572595E-05,10.2465,0
0.684,0.0001413291,10.26,0,0.684,7.922484E-05,10.26,0
0.6849,-0.0001094377,10.2735,0,0.6849,2.450599E-05,10.2735,0
0.6858,-0.0001000381,10.287,0,0.6858,-0.0001453574,10.287,0
0.6867,-9.231708E-05,10.3005,0,0.6867,-0.0001863127,10.3005,0
0.6876,-0.0002165255,10.314,0,0.6876,-0.0001279011,10.314,0
0.6885,-0.0002474098,10.3275,0,0.6885,-5.069047E-05,10.3275,0
0.6894,-0.0002252537,10.341,0,0.6894,1.443504E-05,10.341,0
0.6903,-0.0001977264,10.3545,0,0.6903,5.371176E-06,10.3545,0
0.6912,-0.0001238727,10.368,0,0.6912,4.800488E-05,10.368,0
0.6921,-4.33051E-05,10.3815,0,0.6921,-8.86244E-05,10.3815,0
0.693,3.088426E-05,10.395,0,0.693,-0.0001990692,10.395,0
0.6939,-4.599069E-05,10.4085,0,0.6939,-9.970245E-05,10.4085,0
0.6948,-0.0001379721,10.422,0,0.6948,0.0001550927,10.422,0
0.6957,-0.0001201801,10.4355,0,0.6957,0.0001420005,10.4355,0
0.6966,-1.107805E-05,10.449,0,0.6966,0.0001366293,10.449,0
0.6975,-8.82887E-05,10.4625,0,0.6975,0.0004508431,10.4625,0
0.6984,-0.0001822843,10.476,0,0.6984,0.00039411,10.476,0
0.6993,-0.000207126,10.4895,0,0.6993,0.0001500572,10.4895,0
0.7002,-3.961242E-05,10.503,0,0.7002,0.0001218585,10.503,0
0.7011,-7.553216E-05,10.5165,0,0.7011,-7.721065E-06,10.5165,0
0.702,-3.088426E-05,10.53,0,0.702,-0.0001607996,10.53,0
0.7029,7.183947E-05,10.5435,0,0.7029,-0.0002030976,10.5435,0
0.7038,0.0001661708,10.557,0,0.7038,-0.0002017548,10.557,0
0.7047,0.000246067,10.5705,0,0.7047,-0.0001564355,10.5705,0
0.7056,7.486076E-05,10.584,0,0.7056,-0.0001752346,10.584,0
0.7065,4.800488E-05,10.5975,0,0.7065,-4.800488E-05,10.5975,0
0.7074,0.0001238727,10.611,0,0.7074,8.761731E-05,10.611,0
0.7083,-5.673304E-05,10.6245,0,0.7083,0.0001795987,10.6245,0
0.7092,-8.69459E-05,10.638,0,0.7092,0.0002467384,10.638,0
0.7101,7.821774E-05,10.6515,0,0.7101,0.0001060807,10.6515,0
0.711,-0.0001037308,10.665,0,0.711,6.71397E-05,10.665,0
0.7119,-0.0001171588,10.6785,0,0.7119,6.009003E-05,10.6785,0
0.7128,7.318227E-05,10.692,0,0.7128,1.040665E-05,10.692,0
0.7137,0.0001607996,10.7055,0,0.7137,-1.644922E-05,10.7055,0
0.7146,-7.049668E-06,10.719,0,0.7146,6.210422E-05,10.719,0
0.7155,2.349889E-05,10.7325,0,0.7155,3.524834E-05,10.7325,0
0.7164,2.853437E-05,10.746,0,0.7164,4.53193E-05,10.746,0
0.7173,6.78111E-05,10.7595,0,0.7173,-8.661021E-05,10.7595,0
0.7182,-5.069047E-05,10.773,0,0.7182,-7.687495E-05,10.773,0
0.7191,-0.0001997406,10.7865,0,0.7191,-7.687495E-05,10.7865,0
0.72,-0.0002124971,10.8,0,0.72,-0.0002188754,10.8,0
0.7209,-0.0001389792,10.8135,0,0.7209,-0.0004404364,10.8135,0
0.7218,-0.0001618067,10.827,0,0.7218,-0.0004038453,10.827,0
0.7227,-0.0001326009,10.8405,0,0.7227,-0.0003299916,10.8405,0
0.7236,-7.016098E-05,10.854,0,0.7236,-0.0003561761,10.854,0
0.7245,-0.0001070878,10.8675,0,0.7245,-0.0001262226,10.8675,0
0.7254,7.183947E-05,10.881,0,0.7254,8.72816E-05,10.881,0
0.7263,0.0001748989,10.8945,0,0.7263,0.000291722,10.8945,0
0.7272,8.426032E-05,10.908,0,0.7272,0.0004327153,10.908,0
0.7281,-1.678492E-06,10.9215,0,0.7281,0.0003565118,10.9215,0
0.729,1.980621E-05,10.935,0,0.729,0.0001218585,10.935,0
0.7299,-5.706874E-06,10.9485,0,0.7299,-4.699779E-06,10.9485,0
0.7308,0.0001312581,10.962,0,0.7308,-0.0001433432,10.962,0
0.7317,0.0001500572,10.9755,0,0.7317,-6.881819E-05,10.9755,0
0.7326,-6.814679E-05,10.989,0,0.7326,-9.903105E-05,10.989,0
0.7335,-1.107805E-05,11.0025,0,0.7335,-0.000158114,11.0025,0
0.7344,0.0001064164,11.016,0,0.7344,-5.236896E-05,11.016,0
0.7353,-3.256275E-05,11.0295,0,0.7353,0.000203769,11.0295,0
0.7362,-1.913481E-05,11.043,0,0.7362,0.0002588235,11.043,0
0.7371,2.484169E-05,11.0565,0,0.7371,0.0001107805,11.0565,0
0.738,-7.821774E-05,11.07,0,0.738,9.600977E-05,11.07,0
0.7389,3.826963E-05,11.0835,0,0.7389,5.136187E-05,11.0835,0
0.7398,7.116808E-05,11.097,0,0.7398,-8.82887E-05,11.097,0
0.7407,-4.061952E-05,11.1105,0,0.7407,-0.000148043,11.1105,0
0.7416,-0.0001708705,11.124,0,0.7416,-0.0002014191,11.124,0
0.7425,-0.000154757,11.1375,0,0.7425,-0.0002370031,11.1375,0
0.7434,-6.74754E-05,11.151,0,0.7434,-0.0001201801,11.151,0
0.7443,-1.510643E-05,11.1645,0,0.7443,-1.980621E-05,11.1645,0
0.7452,7.284657E-05,11.178,0,0.7452,4.263371E-05,11.178,0
0.7461,-0.0001111162,11.1915,0,0.7461,-6.54612E-05,11.1915,0
0.747,-0.0001174945,11.205,0,0.747,-0.000235996,11.205,0
0.7479,1.779202E-05,11.2185,0,0.7479,-0.0002433814,11.2185,0
0.7488,-0.0001144732,11.232,0,0.7488,-3.558404E-05,11.232,0
0.7497,-9.063859E-05,11.2455,0,0.7497,-6.61326E-05,11.2455,0
0.7506,9.365987E-05,11.259,0,0.7506,-0.0001742275,11.259,0
0.7515,-3.524834E-05,11.2725,0,0.7515,6.948959E-05,11.2725,0
0.7524,0.0001104448,11.286,0,0.7524,0.0003615473,11.286,0
0.7533,0.0003595331,11.2995,0,0.7533,0.0003199207,11.2995,0
0.7542,0.0003212634,11.313,0,0.7542,0.0003622186,11.313,0
0.7551,9.063859E-05,11.3265,0,0.7551,0.0004938125,11.3265,0
0.756,0.0001215228,11.34,0,0.756,0.0003189135,11.34,0
0.7569,0.0001285725,11.3535,0,0.7569,0.0001208515,11.3535,0
0.7578,3.860533E-05,11.367,0,0.7578,-3.457694E-05,11.367,0
0.7587,4.39765E-05,11.3805,0,0.7587,-3.054856E-05,11.3805,0
0.7596,0.000105745,11.394,0,0.7596,-0.0001352865,11.394,0
0.7605,4.666209E-05,11.4075,0,0.7605,-0.000443122,11.4075,0
0.7614,1.577783E-05,11.421,0,0.7614,-0.0005784085,11.421,0
0.7623,-5.035477E-05,11.4345,0,0.7623,-0.000446479,11.4345,0
0.7632,-7.821774E-05,11.448,0,0.7632,-0.0004746777,11.448,0
0.7641,5.136187E-05,11.4615,0,0.7641,-0.0005233539,11.4615,0
0.765,-7.956054E-05,11.475,0,0.765,-0.0001994049,11.475,0
0.7659,-0.0001426719,11.4885,0,0.7659,0.0003246204,11.4885,0
0.7668,-0.0001591211,11.502,0,0.7668,0.0006569619,11.502,0
0.7677,-0.0003215991,11.5155,0,0.7677,0.0005985504,11.5155,0
0.7686,-0.000376318,11.529,0,0.7686,0.000372961,11.529,0
0.7695,-0.0002752728,11.5425,0,0.7695,0.0002138399,11.5425,0
0.7704,-0.0001493858,11.556,0,0.7704,0.0001326009,11.556,0
0.7713,0.0001168231,11.5695,0,0.7713,-0.0001544213,11.5695,0
0.7722,0.000235996,11.583,0,0.7722,-0.0002333104,11.583,0
0.7731,0.0001487144,11.5965,0,0.7731,-0.0003420768,11.5965,0
0.774,9.164568E-05,11.61,0,0.774,-0.0004004883,11.61,0
0.7749,-1.712062E-05,11.6235,0,0.7749,-0.0004260014,11.6235,0
0.7758,-7.284657E-05,11.637,0,0.7758,-0.0001393149,11.637,0
0.7767,6.277562E-05,11.6505,0,0.7767,0.0002333104,11.6505,0
0.7776,0.0002135042,11.664,0,0.7776,9.634547E-05,11.664,0
0.7785,3.356985E-06,11.6775,0,0.7785,7.016098E-05,11.6775,0
0.7794,-1.947051E-05,11.691,0,0.7794,9.399557E-05,11.691,0
0.7803,2.786297E-05,11.7045,0,0.7803,-8.224613E-05,11.7045,0
0.7812,-0.0002296178,11.718,0,0.7812,-0.0001111162,11.718,0
0.7821,-0.0002836652,11.7315,0,0.7821,-6.6804E-05,11.7315,0
0.783,-7.620356E-05,11.745,0,0.783,-7.351797E-05,11.745,0
0.7839,-7.385367E-05,11.7585,0,0.7839,-3.961242E-05,11.7585,0
0.7848,-1.376364E-05,11.772,0,0.7848,-4.196231E-05,11.772,0
0.7857,1.779202E-05,11.7855,0,0.7857,3.356985E-05,11.7855,0
0.7866,-0.0001571069,11.799,0,0.7866,-4.699779E-06,11.799,0
0.7875,-0.0001728847,11.8125,0,0.7875,-0.0002242466,11.8125,0
0.7884,5.035477E-06,11.826,0,0.7884,-0.0002843366,11.826,0
0.7893,-0.0001829557,11.8395,0,0.7893,-0.0002376745,11.8395,0
0.7902,-0.0003481193,11.853,0,0.7902,-0.0003155566,11.853,0
0.7911,-0.0001846342,11.8665,0,0.7911,-0.0003259632,11.8665,0
0.792,1.812772E-05,11.88,0,0.792,1.040665E-05,11.88,0
0.7929,0.0003283131,11.8935,0,0.7929,0.0003346914,11.8935,0
0.7938,0.0003474479,11.907,0,0.7938,0.000383032,11.907,0
0.7947,0.000330663,11.9205,0,0.7947,0.0003857175,11.9205,0
0.7956,0.0002205539,11.934,0,0.7956,0.0002655375,11.934,0
0.7965,0.0001389792,11.9475,0,0.7965,7.721065E-05,11.9475,0
0.7974,8.795301E-05,11.961,0,0.7974,-6.57969E-05,11.961,0
0.7983,9.835965E-05,11.9745,0,0.7983,-0.0001171588,11.9745,0
0.7992,7.553216E-05,11.988,0,0.7992,4.33051E-05,11.988,0
0.8001,-9.869535E-05,12.0015,0,0.8001,0.0001148089,12.0015,0
0.801,6.54612E-05,12.015,0,0.801,4.968337E-05,12.015,0
0.8019,0.0001134661,12.0285,0,0.8019,9.567407E-05,12.0285,0
0.8028,0.0001178302,12.042,0,0.8028,0.0001560998,12.042,0
0.8037,0.000154757,12.0555,0,0.8037,2.383459E-05,12.0555,0
0.8046,0.0001232013,12.069,0,0.8046,-0.0001607996,12.069,0
0.8055,-4.733349E-05,12.0825,0,0.8055,-0.0001440146,12.0825,0
0.8064,-1.376364E-05,12.096,0,0.8064,-0.0001661708,12.096,0
0.8073,5.673304E-05,12.1095,0,0.8073,-0.0002746014,12.1095,0
0.8082,0.0001275654,12.123,0,0.8082,-0.0002420386,12.123,0
0.8091,1.544213E-05,12.1365,0,0.8091,-0.0001010452,12.1365,0
0.81,-0.0001107805,12.15,0,0.81,-3.323415E-05,12.15,0
0.8109,-0.000109102,12.1635,0,0.8109,3.054856E-05,12.1635,0
0.8118,-4.028382E-05,12.177,0,0.8118,0.0001675135,12.177,0
0.8127,-6.109713E-05,12.1905,0,0.8127,0.0002410315,12.1905,0
0.8136,-0.0001926909,12.204,0,0.8136,0.000207126,12.204,0
0.8145,-6.478981E-05,12.2175,0,0.8145,8.157473E-05,12.2175,0
0.8154,4.129091E-05,12.231,0,0.8154,-2.618448E-05,12.231,0
0.8163,-0.0001326009,12.2445,0,0.8163,-6.713969E-07,12.2445,0
0.8172,-9.533837E-05,12.258,0,0.8172,-4.699779E-05,12.258,0
0.8181,0.000158114,12.2715,0,0.8181,-0.000109102,12.2715,0
0.819,-2.014191E-05,12.285,0,0.819,-6.78111E-05,12.285,0
0.8199,7.284657E-05,12.2985,0,0.8199,1.443504E-05,12.2985,0
0.8208,0.0002245823,12.312,0,0.8208,6.243992E-05,12.312,0
0.8217,5.706874E-05,12.3255,0,0.8217,7.083238E-05,12.3255,0
0.8226,-6.076142E-05,12.339,0,0.8226,-1.678492E-06,12.339,0
0.8235,-2.081331E-05,12.3525,0,0.8235,-0.0001040665,12.3525,0
0.8244,-1.242084E-05,12.366,0,0.8244,-9.936675E-05,12.366,0
0.8253,-1.644922E-05,12.3795,0,0.8253,-0.0001456931,12.3795,0
0.8262,-7.486076E-05,12.393,0,0.8262,-5.304036E-05,12.393,0
0.8271,-0.0001668421,12.4065,0,0.8271,3.356985E-07,12.4065,0
0.828,-9.903105E-05,12.42,0,0.828,-1.376364E-05,12.42,0
0.8289,2.316319E-05,12.4335,0,0.8289,-2.349889E-05,12.4335,0
0.8298,-7.620356E-05,12.447,0,0.8298,3.927672E-05,12.447,0
0.8307,-0.0001379721,12.4605,0,0.8307,-2.28275E-05,12.4605,0
0.8316,-3.021286E-05,12.474,0,0.8316,-0.0001772488,12.474,0
0.8325,-7.553216E-05,12.4875,0,0.8325,-9.970245E-05,12.4875,0
0.8334,-2.987716E-05,12.501,0,0.8334,-0.0001349508,12.501,0
0.8343,5.606165E-05,12.5145,0,0.8343,-0.0002259251,12.5145,0
0.8352,-3.659113E-05,12.528,0,0.8352,-0.0002047761,12.528,0
0.8361,3.726253E-05,12.5415,0,0.8361,-8.560311E-05,12.5415,0
0.837,5.606165E-05,12.555,0,0.837,4.33051E-05,12.555,0
0.8379,5.740444E-05,12.5685,0,0.8379,0.0001487144,12.5685,0
0.8388,5.337606E-05,12.582,0,0.8388,-1.812772E-05,12.582,0
0.8397,9.735256E-06,12.5955,0,0.8397,-2.752728E-05,12.5955,0
0.8406,-8.627451E-05,12.609,0,0.8406,-0.0001319295,12.609,0
0.8415,-0.0001020523,12.6225,0,0.8415,-0.0002202182,12.6225,0
0.8424,-1.913481E-05,12.636,0,0.8424,-0.0001131304,12.636,0
0.8433,2.21561E-05,12.6495,0,0.8433,0.000197055,12.6495,0
0.8442,2.1149E-05,12.663,0,0.8442,0.0004078737,12.663,0
0.8451,-4.36408E-06,12.6765,0,0.8451,0.0002746014,12.6765,0
0.846,-0.0001299153,12.69,0,0.846,0.0002014191,12.69,0
0.8469,-0.000136965,12.7035,0,0.8469,0.0001487144,12.7035,0
0.8478,-4.33051E-05,12.717,0,0.8478,4.699779E-05,12.717,0
0.8487,-0.0001628138,12.7305,0,0.8487,5.069047E-05,12.7305,0
0.8496,-0.0001990692,12.744,0,0.8496,4.49836E-05,12.744,0
0.8505,9.063859E-06,12.7575,0,0.8505,-4.632639E-05,12.7575,0
0.8514,0.0002591592,12.771,0,0.8514,-6.243992E-05,12.771,0
0.8523,0.0002947433,12.7845,0,0.8523,-0.0002658732,12.7845,0
0.8532,7.821774E-05,12.798,0,0.8532,-0.0003397269,12.798,0
0.8541,-0.0001225299,12.8115,0,0.8541,-0.0002423743,12.8115,0
0.855,-9.970245E-05,12.825,0,0.855,-0.000322942,12.825,0
0.8559,0.0001104448,12.8385,0,0.8559,-0.0002554666,12.8385,0
0.8568,0.0001473716,12.852,0,0.8568,-1.376364E-05,12.852,0
0.8577,0.0001641566,12.8655,0,0.8577,0.0001178302,12.8655,0
0.8586,0.0002161898,12.879,0,0.8586,0.0001225299,12.879,0
0.8595001,2.853437E-05,12.8925,0,0.8595001,9.332418E-05,12.8925,0
0.8604,-9.365987E-05,12.906,0,0.8604,7.486076E-05,12.906,0
0.8613,3.793393E-05,12.9195,0,0.8613,0.0001782559,12.9195,0
0.8622,4.632639E-05,12.933,0,0.8622,0.0003138781,12.933,0
0.8631,-0.0002064546,12.9465,0,0.8631,0.0002346532,12.9465,0
0.864,-0.000172549,12.96,0,0.864,4.800488E-05,12.96,0
0.8649,6.478981E-05,12.9735,0,0.8649,-7.721065E-06,12.9735,0
0.8658,0.0001097734,12.987,0,0.8658,-6.51255E-05,12.987,0
0.8667,0.0001017166,13.0005,0,0.8667,4.49836E-05,13.0005,0
0.8676,-7.553216E-05,13.014,0,0.8676,8.493171E-05,13.014,0
0.8685,-0.0001027237,13.0275,0,0.8685,9.970245E-05,13.0275,0
0.8694,-7.183947E-05,13.041,0,0.8694,-3.860533E-05,13.041,0
0.8703,-0.0001346151,13.0545,0,0.8703,-6.478981E-05,13.0545,0
0.8712,-0.0001033951,13.068,0,0.8712,-0.0001315938,13.068,0
0.8721,3.054856E-05,13.0815,0,0.8721,-0.000249424,13.0815,0
0.873,-9.433127E-05,13.095,0,0.873,-0.0003017929,13.095,0
0.8739,-2.517739E-05,13.1085,0,0.8739,-0.000400824,13.1085,0
0.8748,-3.793393E-05,13.122,0,0.8748,-0.0004458076,13.122,0
0.8757,-6.51255E-05,13.1355,0,0.8757,-0.0003360342,13.1355,0
0.8766,-0.000148043,13.149,0,0.8766,-0.0001916838,13.149,0
0.8775,-0.0001319295,13.1625,0,0.8775,2.853437E-05,13.1625,0
0.8784,-8.627451E-05,13.176,0,0.8784,0.0004327153,13.176,0
0.8793,-4.095522E-05,13.1895,0,0.8793,0.0004696422,13.1895,0
0.8802,-3.021286E-05,13.203,0,0.8802,0.0002084688,13.203,0
0.8811,-6.076142E-05,13.2165,0,0.8811,0.0001131304,13.2165,0
0.882,3.356985E-05,13.23,0,0.882,8.761731E-05,13.23,0
0.8829,2.316319E-05,13.2435,0,0.8829,4.666209E-05,13.2435,0
0.8838,-0.0001252155,13.257,0,0.8838,6.848249E-05,13.257,0
0.8847,-0.0001967193,13.2705,0,0.8847,-6.61326E-05,13.2705,0
0.8856,-0.0001097734,13.284,0,0.8856,-0.0002692302,13.284,0
0.8865,-0.0001715419,13.2975,0,0.8865,-0.0001453574,13.2975,0
0.8874,1.644922E-05,13.311,0,0.8874,-0.0001077592,13.311,0
0.8883,4.095522E-05,13.3245,0,0.8883,-0.0002366674,13.3245,0
0.8892,-0.0001174945,13.338,0,0.8892,-9.903105E-05,13.338,0
0.8901,3.927672E-05,13.3515,0,0.8901,5.270466E-05,13.3515,0
0.891,0.0003132067,13.365,0,0.891,6.948959E-05,13.365,0
0.8919,0.000197055,13.3785,0,0.8919,4.565499E-05,13.3785,0
0.8928,0.0001896696,13.392,0,0.8928,-4.699779E-06,13.392,0
0.8937,0.0002413672,13.4055,0,0.8937,1.040665E-05,13.4055,0
0.8946,0.0001473716,13.419,0,0.8946,-8.392462E-06,13.419,0
0.8955,9.768826E-05,13.4325,0,0.8955,-2.24918E-05,13.4325,0
0.8964,0.0001514,13.446,0,0.8964,-3.793393E-05,13.446,0
0.8973,1.678492E-06,13.4595,0,0.8973,-3.121996E-05,13.4595,0
0.8982,-7.217517E-05,13.473,0,0.8982,-8.090334E-05,13.473,0
0.8991,9.198138E-05,13.4865,0,0.8991,-0.0001319295,13.4865,0
0.9,1.174945E-05,13.5,0,0.9,5.102617E-05,13.5,0
0.9009,-0.0002044404,13.5135,0,0.9009,0.0001399863,13.5135,0
0.9018,-0.0001138018,13.527,0,0.9018,7.418937E-05,13.527,0
0.9027,-4.43122E-05,13.5405,0,0.9027,0.0001151446,13.5405,0
0.9036,-0.0002356603,13.554,0,0.9036,6.948959E-05,13.554,0
0.9045,-0.0002829938,13.5675,0,0.9045,-6.109713E-05,13.5675,0
0.9054,-0.0002793011,13.581,0,0.9054,-9.365987E-05,13.581,0
0.9063,-0.0001769131,13.5945,0,0.9063,-0.0001221943,13.5945,0
0.9072,-5.740444E-05,13.608,0,0.9072,-0.000312871,13.608,0
0.9081,2.349889E-06,13.6215,0,0.9081,-0.000597879,13.6215,0
0.909,0.0001255512,13.635,0,0.909,-0.000657969,13.635,0
0.9099,0.0001366293,13.6485,0,0.9099,-0.0005626307,13.6485,0
0.9108,0.0001433432,13.662,0,0.9108,-0.0003105211,13.662,0
0.9117,0.000288365,13.6755,0,0.9117,0.0002017548,13.6755,0
0.9126,0.0002722515,13.689,0,0.9126,0.0007945983,13.689,0
0.9135,3.860533E-05,13.7025,0,0.9135,0.0008738231,13.7025,0
0.9144,-8.123904E-05,13.716,0,0.9144,0.000640177,13.716,0
0.9153,-4.43122E-05,13.7295,0,0.9153,0.0002128328,13.7295,0
0.9162,-4.49836E-05,13.743,0,0.9162,9.970245E-05,13.743,0
0.9171,-5.673304E-05,13.7565,0,0.9171,7.989624E-05,13.7565,0
0.918,-2.014191E-05,13.77,0,0.918,0.0001688563,13.77,0
0.9189,-1.544213E-05,13.7835,0,0.9189,0.0001084306,13.7835,0
0.9198,-2.853437E-05,13.797,0,0.9198,-6.478981E-05,13.797,0
0.9207,5.035477E-06,13.8105,0,0.9207,-7.217517E-05,13.8105,0
0.9216,-0.0001255512,13.824,0,0.9216,-9.097429E-05,13.824,0
0.9225,-5.807584E-05,13.8375,0,0.9225,-8.090334E-05,13.8375,0
0.9234,5.572595E-05,13.851,0,0.9234,-0.0001514,13.851,0
0.9243,-6.076142E-05,13.8645,0,0.9243,-0.0001151446,13.8645,0
0.9252,-3.927672E-05,13.878,0,0.9252,-0.0001440146,13.878,0
0.9261,7.150377E-05,13.8915,0,0.9261,-0.0001265583,13.8915,0
0.927,-5.572595E-05,13.905,0,0.927,0.0001534142,13.905,0
0.9279,1.812772E-05,13.9185,0,0.9279,0.0001406577,13.9185,0
0.9288,0.0001279011,13.932,0,0.9288,-0.0001131304,13.932,0
0.9297,5.169757E-05,13.9455,0,0.9297,-0.0001406577,13.9455,0
0.9306,-2.349889E-06,13.959,0,0.9306,-6.277562E-05,13.959,0
0.9315,1.409934E-05,13.9725,0,0.9315,-6.948959E-05,13.9725,0
0.9324,-0.0001064164,13.986,0,0.9324,-0.0002500954,13.986,0
0.9333,-0.0001168231,13.9995,0,0.9333,-0.0003363699,13.9995,0
0.9342,-0.0001013809,14.013,0,0.9342,-0.0001467002,14.013,0
0.9351,-0.0001795987,14.0265,0,0.9351,-5.807584E-05,14.0265,0
0.936,-0.0001238727,14.04,0,0.936,-0.0001715419,14.04,0
0.9369,3.826963E-05,14.0535,0,0.9369,-0.0002806439,14.0535,0
0.9378,0.0001134661,14.067,0,0.9378,-6.076142E-05,14.067,0
0.9387,0.0001040665,14.0805,0,0.9387,-5.438316E-05,14.0805,0
0.9396001,0.0001930266,14.094,0,0.9396001,-8.86244E-05,14.094,0
0.9405,6.54612E-05,14.1075,0,0.9405,0.0004132448,14.1075,0
0.9414001,1.678492E-05,14.121,0,0.9414001,0.0005468528,14.121,0
0.9423,6.009003E-05,14.1345,0,0.9423,0.000295079,14.1345,0
0.9432001,0.0001443503,14.148,0,0.9432001,0.0002118257,14.148,0
0.9441,-7.721065E-06,14.1615,0,0.9441,0.0001842985,14.1615,0
0.9450001,-0.0001530785,14.175,0,0.9450001,-6.713969E-07,14.175,0
0.9459,-0.0002323034,14.1885,0,0.9459,-0.0001272297,14.1885,0
0.9468,-0.0001819486,14.202,0,0.9468,-0.000164828,14.202,0
0.9477,-0.0001668421,14.2155,0,0.9477,1.141375E-05,14.2155,0
0.9486,-0.0001440146,14.229,0,0.9486,6.6804E-05,14.229,0
0.9495,-1.678492E-06,14.2425,0,0.9495,1.174945E-05,14.2425,0
0.9504,0.000270573,14.256,0,0.9504,-3.457694E-05,14.256,0
0.9513,0.0004078737,14.2695,0,0.9513,3.457694E-05,14.2695,0
0.9522,0.0003461051,14.283,0,0.9522,-6.344701E-05,14.283,0
0.9531,0.000154757,14.2965,0,0.9531,-0.0002329748,14.2965,0
0.954,-2.1149E-05,14.31,0,0.954,-6.109713E-05,14.31,0
0.9549,2.014191E-05,14.3235,0,0.9549,-4.263371E-05,14.3235,0
0.9558,9.567407E-05,14.337,0,0.9558,-0.0002104829,14.337,0
0.9567,3.793393E-05,14.3505,0,0.9567,-0.0002574807,14.3505,0
0.9576,3.356985E-07,14.364,0,0.9576,-0.0002403601,14.364,0
0.9585,-4.196231E-05,14.3775,0,0.9585,-0.0003645686,14.3775,0
0.9594,-9.970245E-05,14.391,0,0.9594,-0.0005398032,14.391,0
0.9603,-1.309224E-05,14.4045,0,0.9603,-0.0006287632,14.4045,0
0.9612,-5.807584E-05,14.418,0,0.9612,-0.0003632258,14.418,0
0.9621,-0.0001994049,14.4315,0,0.9621,-0.0001735561,14.4315,0
0.963,-0.0001701991,14.445,0,0.963,8.661021E-05,14.445,0
0.9639,-3.793393E-05,14.4585,0,0.9639,0.000418616,14.4585,0
0.9648,-0.0001534142,14.472,0,0.9648,0.0007489433,14.472,0
0.9657,-4.599069E-05,14.4855,0,0.9657,0.0007435721,14.4855,0
0.9666,0.000164828,14.499,0,0.9666,0.0004682994,14.499,0
0.9675,3.524834E-05,14.5125,0,0.9675,0.0004723278,14.5125,0
0.9684,5.035477E-06,14.526,0,0.9684,0.0003578546,14.526,0
0.9693,0.000144686,14.5395,0,0.9693,8.358892E-05,14.5395,0
0.9702,-6.478981E-05,14.553,0,0.9702,4.095522E-05,14.553,0
0.9711,-0.0001782559,14.5665,0,0.9711,4.733349E-05,14.5665,0
0.972,-4.162661E-05,14.58,0,0.972,-4.800488E-05,14.58,0
0.9729,-3.356985E-07,14.5935,0,0.9729,-9.701686E-05,14.5935,0
0.9738,-4.36408E-06,14.607,0,0.9738,-0.0001715419,14.607,0
0.9747,5.740444E-05,14.6205,0,0.9747,-0.0001322652,14.6205,0
0.9756,5.874724E-05,14.634,0,0.9756,-0.0001947051,14.634,0
0.9765,2.719158E-05,14.6475,0,0.9765,-0.000260502,14.6475,0
0.9774,2.652018E-05,14.661,0,0.9774,-0.0002269322,14.661,0
0.9783,-2.685588E-05,14.6745,0,0.9783,-0.0001628138,14.6745,0
0.9792,-2.652018E-05,14.688,0,0.9792,-0.0002856794,14.688,0
0.9801,5.404745E-05,14.7015,0,0.9801,-0.0002843366,14.7015,0
0.981,-5.539025E-05,14.715,0,0.981,-0.0001373007,14.715,0
0.9819,-0.0001232013,14.7285,0,0.9819,-8.69459E-05,14.7285,0
0.9828,-2.28275E-05,14.742,0,0.9828,-4.29694E-05,14.742,0
0.9837,-4.263371E-05,14.7555,0,0.9837,0.0001134661,14.7555,0
0.9846,-0.0001560998,14.769,0,0.9846,0.0002410315,14.769,0
0.9855,-0.0001077592,14.7825,0,0.9855,0.0001554284,14.7825,0
0.9864,-2.349889E-05,14.796,0,0.9864,5.975433E-05,14.796,0
0.9873,-1.812772E-05,14.8095,0,0.9873,-3.054856E-05,14.8095,0
0.9882,-5.941863E-05,14.823,0,0.9882,7.083238E-05,14.823,0
0.9891,-2.18204E-05,14.8365,0,0.9891,2.920577E-05,14.8365,0
0.99,-2.21561E-05,14.85,0,0.99,-3.289845E-05,14.85,0
0.9909,4.867628E-05,14.8635,0,0.9909,-4.867628E-05,14.8635,0
0.9918,-5.069047E-05,14.877,0,0.9918,6.57969E-05,14.877,0
0.9927,-1.510643E-05,14.8905,0,0.9927,2.719158E-05,14.8905,0
0.9936,0.0001138018,14.904,0,0.9936,-6.143282E-05,14.904,0
0.9945,-1.779202E-05,14.9175,0,0.9945,-4.129091E-05,14.9175,0
0.9954,5.035477E-06,14.931,0,0.9954,-0.000109102,14.931,0
0.9963,2.18204E-05,14.9445,0,0.9963,-0.0001305867,14.9445,0
0.9972,-0.0001607996,14.958,0,0.9972,-0.0001225299,14.958,0
0.9981,-0.0001131304,14.9715,0,0.9981,-9.970245E-05,14.9715,0
0.999,-8.023193E-05,14.985,0,0.999,-0.0001540856,14.985,0
0.9999,-0.0001265583,14.9985,0,0.9999,-0.0001399863,14.9985,0
1.0008,-1.913481E-05,15.012,0,1.0008,-0.0001983978,15.012,0
1.0017,3.189136E-05,15.0255,0,1.0017,-0.0001537499,15.0255,0
1.0026,4.061952E-05,15.039,0,1.0026,-0.000148043,15.039,0
1.0035,4.53193E-05,15.0525,0,1.0035,-0.0001560998,15.0525,0
1.0044,0.0001245441,15.066,0,1.0044,-5.572595E-05,15.066,0
1.0053,-1.544213E-05,15.0795,0,1.0053,0.0001658351,15.0795,0
1.0062,-6.076142E-05,15.093,0,1.0062,7.821774E-05,15.093,0
1.0071,5.941863E-05,15.1065,0,1.0071,-0.0001577783,15.1065,0
1.008,3.591974E-05,15.12,0,1.008,1.141375E-05,15.12,0
1.0089,-1.409934E-05,15.1335,0,1.0089,0.0001111162,15.1335,0
1.0098,5.673304E-05,15.147,0,1.0098,-0.0001064164,15.147,0
1.0107,-7.284657E-05,15.1605,0,1.0107,0.0001262226,15.1605,0
1.0116,-0.0001329366,15.174,0,1.0116,0.0003434196,15.174,0
1.0125,4.867628E-05,15.1875,0,1.0125,8.761731E-05,15.1875,0
1.0134,2.484169E-05,15.201,0,1.0134,-0.0001221943,15.201,0
1.0143,5.337606E-05,15.2145,0,1.0143,-0.0002242466,15.2145,0
1.0152,6.74754E-05,15.228,0,1.0152,-0.0001399863,15.228,0
1.0161,6.143282E-05,15.2415,0,1.0161,-0.0001440146,15.2415,0
1.017,3.659113E-05,15.255,0,1.017,-4.196231E-05,15.255,0
1.0179,1.980621E-05,15.2685,0,1.0179,9.600977E-05,15.2685,0
1.0188,-4.46479E-05,15.282,0,1.0188,0.0002870222,15.282,0
1.0197,-1.913481E-05,15.2955,0,1.0197,0.0003145495,15.2955,0
1.0206,-4.565499E-05,15.309,0,1.0206,0.0002668803,15.309,0
1.0215,-0.0001782559,15.3225,0,1.0215,0.0001923552,15.3225,0
1.0224,-0.0001973907,15.336,0,1.0224,0.0001070878,15.336,0
1.0233,-0.0001554284,15.3495,0,1.0233,-0.0001070878,15.3495,0
1.0242,-0.0001628138,15.363,0,1.0242,-0.0001957122,15.363,0
1.0251,-0.0002044404,15.3765,0,1.0251,-0.0002343175,15.3765,0
1.026,-4.565499E-05,15.39,0,1.026,-0.0001534142,15.39,0
1.0269,0.0002168612,15.4035,0,1.0269,2.987716E-05,15.4035,0
1.0278,0.0002128328,15.417,0,1.0278,8.358892E-05,15.417,0
1.0287,0.0001537499,15.4305,0,1.0287,5.807584E-05,15.4305,0
1.0296,0.0001185016,15.444,0,1.0296,-0.0001252155,15.444,0
1.0305,0.0001802701,15.4575,0,1.0305,-0.0001842985,15.4575,0
1.0314,0.0002020905,15.471,0,1.0314,-0.0001735561,15.471,0
1.0323,0.000203769,15.4845,0,1.0323,-3.155566E-05,15.4845,0
1.0332,0.0002856794,15.498,0,1.0332,0.0001366293,15.498,0
1.0341,0.0002077974,15.5115,0,1.0341,0.0002319677,15.5115,0
1.035,6.076142E-05,15.525,0,1.035,0.0002165255,15.525,0
1.0359,-8.392462E-06,15.5385,0,1.0359,5.001907E-05,15.5385,0
1.0368,2.047761E-05,15.552,0,1.0368,-0.0003192493,15.552,0
1.0377,2.417029E-05,15.5655,0,1.0377,-0.0003481193,15.5655,0
1.0386,-0.0001285725,15.579,0,1.0386,-0.0003252918,15.579,0
1.0395,-4.196231E-05,15.5925,0,1.0395,-0.0003548333,15.5925,0
1.0404,-8.96315E-05,15.606,0,1.0404,-0.0002981003,15.606,0
1.0413,7.922484E-05,15.6195,0,1.0413,0.0001242084,15.6195,0
1.0422,0.0002145113,15.633,0,1.0422,0.0006992599,15.633,0
1.0431,-0.0001171588,15.6465,0,1.0431,0.00063682,15.6465,0
1.044,-0.0002067903,15.66,0,1.044,0.0003501335,15.66,0
1.0449,-9.198138E-05,15.6735,0,1.0449,0.0001658351,15.6735,0
1.0458,-0.0002034333,15.687,0,1.0458,0.000115816,15.687,0
1.0467,-0.0002091402,15.7005,0,1.0467,2.954147E-05,15.7005,0
1.0476,6.109713E-05,15.714,0,1.0476,-3.323415E-05,15.714,0
1.0485,-0.0001010452,15.7275,0,1.0485,-1.007095E-06,15.7275,0
1.0494,-0.0002662089,15.741,0,1.0494,-3.591974E-05,15.741,0
1.0503,-0.0002725872,15.7545,0,1.0503,-9.701686E-05,15.7545,0
1.0512,-0.0001963836,15.768,0,1.0512,-0.0001883268,15.768,0
1.0521,-0.0001795987,15.7815,0,1.0521,-9.433127E-05,15.7815,0
1.053,0.0002484169,15.795,0,1.053,-0.0001524071,15.795,0
1.0539,0.0002856794,15.8085,0,1.0539,-0.0003044785,15.8085,0
1.0548,0.0001272297,15.822,0,1.0548,-0.0003622186,15.822,0
1.0557,5.404745E-05,15.8355,0,1.0557,-0.0002101472,15.8355,0
1.0566,5.740444E-05,15.849,0,1.0566,-0.0001285725,15.849,0
1.0575,8.560311E-05,15.8625,0,1.0575,-0.0001164874,15.8625,0
1.0584,8.325322E-05,15.876,0,1.0584,-0.000112459,15.876,0
1.0593,3.189136E-05,15.8895,0,1.0593,-2.047761E-05,15.8895,0
1.0602,-2.786297E-05,15.903,0,1.0602,-2.28275E-05,15.903,0
1.0611,-3.155566E-05,15.9165,0,1.0611,-0.000172549,15.9165,0
1.062,-0.0002198825,15.93,0,1.062,-9.567407E-05,15.93,0
1.0629,-0.0003323415,15.9435,0,1.0629,-7.653925E-05,15.9435,0
1.0638,-0.0002309606,15.957,0,1.0638,-0.0001678492,15.957,0
1.0647,-9.903105E-05,15.9705,0,1.0647,-0.0001087663,15.9705,0
1.0656,-5.203327E-05,15.984,0,1.0656,3.524834E-05,15.984,0
1.0665,-1.779202E-05,15.9975,0,1.0665,9.970245E-05,15.9975,0
1.0674,1.846342E-05,16.011,0,1.0674,0.0001420005,16.011,0
1.0683,0.0001218585,16.0245,0,1.0683,4.36408E-05,16.0245,0
1.0692,2.584878E-05,16.038,0,1.0692,9.365987E-05,16.038,0
1.0701,-2.517739E-05,16.0515,0,1.0701,5.404745E-05,16.0515,0
1.071,5.471885E-05,16.065,0,1.071,-0.0001111162,16.065,0
1.0719,0.0001111162,16.0785,0,1.0719,-0.000144686,16.0785,0
1.0728,-6.411841E-05,16.092,0,1.0728,-2.1149E-05,16.092,0
1.0737,2.584878E-05,16.1055,0,1.0737,-6.042573E-06,16.1055,0
1.0746,0.0002866865,16.119,0,1.0746,-5.673304E-05,16.119,0
1.0755,0.0001238727,16.1325,0,1.0755,6.948959E-05,16.1325,0
1.0764,3.424125E-05,16.146,0,1.0764,3.121996E-05,16.146,0
1.0773,6.6804E-05,16.1595,0,1.0773,-0.0001708705,16.1595,0
1.0782,8.023193E-05,16.173,0,1.0782,-0.0001973907,16.173,0
1.0791,-7.183947E-05,16.1865,0,1.0791,-0.0001467002,16.1865,0
1.08,1.510643E-05,16.2,0,1.08,-0.0001326009,16.2,0
1.0809,3.457694E-05,16.2135,0,1.0809,6.411841E-05,16.2135,0
1.0818,1.510643E-05,16.227,0,1.0818,0.000231632,16.227,0
1.0827,-2.047761E-05,16.2405,0,1.0827,0.0003826963,16.2405,0
1.0836,-0.0001386435,16.254,0,1.0836,0.0003165637,16.254,0
1.0845,-0.0001168231,16.2675,0,1.0845,7.418937E-05,16.2675,0
1.0854,-5.841154E-05,16.281,0,1.0854,4.699779E-05,16.281,0
1.0863,-9.063859E-05,16.2945,0,1.0863,0.0001420005,16.2945,0
1.0872,-0.0001252155,16.308,0,1.0872,-2.853437E-05,16.308,0
1.0881,8.291753E-05,16.3215,0,1.0881,-0.0001134661,16.3215,0
1.089,-1.174945E-05,16.335,0,1.089,-0.0002977645,16.335,0
1.0899,-0.0001356222,16.3485,0,1.0899,-0.000513283,16.3485,0
1.0908,-4.699779E-06,16.362,0,1.0908,-0.0004065309,16.362,0
1.0917,3.961242E-05,16.3755,0,1.0917,-0.0001997406,16.3755,0
1.0926,-9.701686E-05,16.389,0,1.0926,-0.0001211871,16.389,0
1.0935,-9.030289E-05,16.4025,0,1.0935,0.0002504311,16.4025,0
1.0944,-2.081331E-05,16.416,0,1.0944,0.0006348058,16.416,0
1.0953,-0.0001037308,16.4295,0,1.0953,0.0004239872,16.4295,0
1.0962,-0.0001379721,16.443,0,1.0962,0.0003135424,16.443,0
1.0971,-0.0002235752,16.4565,0,1.0971,0.0002104829,16.4565,0
1.098,-2.920577E-05,16.47,0,1.098,2.584878E-05,16.47,0
1.0989,6.54612E-05,16.4835,0,1.0989,3.054856E-05,16.4835,0
1.0998,-2.752728E-05,16.497,0,1.0998,0.000115816,16.497,0
1.1007,3.591974E-05,16.5105,0,1.1007,4.632639E-05,16.5105,0
1.1016,6.6804E-05,16.524,0,1.1016,-8.157473E-05,16.524,0
1.1025,-2.1149E-05,16.5375,0,1.1025,4.867628E-05,16.5375,0
1.1034,0.0001701991,16.551,0,1.1034,8.291753E-05,16.551,0
1.1043,0.0002490883,16.5645,0,1.1043,-0.000105745,16.5645,0
1.1052,0.0002410315,16.578,0,1.1052,-3.961242E-05,16.578,0
1.1061,5.337606E-05,16.5915,0,1.1061,6.042573E-06,16.5915,0
1.107,5.035477E-06,16.605,0,1.107,-6.378271E-05,16.605,0
1.1079,-4.36408E-06,16.6185,0,1.1079,-7.888914E-05,16.6185,0
1.1088,5.069047E-05,16.632,0,1.1088,-0.0001816129,16.632,0
1.1097,-5.001907E-05,16.6455,0,1.1097,-0.0001822843,16.6455,0
1.1106,-0.0002245823,16.659,0,1.1106,-9.231708E-05,16.659,0
1.1115,-5.673304E-05,16.6725,0,1.1115,-2.987716E-05,16.6725,0
1.1124,1.443504E-05,16.686,0,1.1124,-0.0002161898,16.686,0
1.1133,-0.0001326009,16.6995,0,1.1133,-0.0001708705,16.6995,0
1.1142,0.000112459,16.713,0,1.1142,-0.0001524071,16.713,0
1.1151,0.000411902,16.7265,0,1.1151,-0.000322942,16.7265,0
1.116,0.0001889983,16.74,0,1.116,-0.000506569,16.74,0
1.1169,-0.0001816129,16.7535,0,1.1169,-0.0006019074,16.7535,0
1.1178,-0.0002440528,16.767,0,1.1178,-0.0005095903,16.767,0
1.1187,-0.0002598306,16.7805,0,1.1187,-0.0001550927,16.7805,0
1.1196,-0.0002400244,16.794,0,1.1196,0.000161471,16.794,0
1.1205,0.000144686,16.8075,0,1.1205,0.0003588617,16.8075,0
1.1214,0.00060795,16.821,0,1.1214,0.0006354772,16.821,0
1.1223,0.0004669566,16.8345,0,1.1223,0.0006650187,16.8345,0
1.1232,0.0001846342,16.848,0,1.1232,0.0005387961,16.848,0
1.1241,2.920577E-05,16.8615,0,1.1241,0.0003873961,16.8615,0
1.125,-5.572595E-05,16.875,0,1.125,0.0001359579,16.875,0
1.1259,-3.659113E-05,16.8885,0,1.1259,3.457694E-05,16.8885,0
1.1268,-9.231708E-05,16.902,0,1.1268,5.304036E-05,16.902,0
1.1277,-0.0001550927,16.9155,0,1.1277,-2.719158E-05,16.9155,0
1.1286,-3.356985E-05,16.929,0,1.1286,-0.0001722133,16.929,0
1.1295,-7.418937E-05,16.9425,0,1.1295,-0.0001134661,16.9425,0
1.1304,-0.0002819867,16.956,0,1.1304,-0.0001238727,16.956,0
1.1313,-0.0002709087,16.9695,0,1.1313,-0.0002507668,16.9695,0
1.1322,-0.0003635614,16.983,0,1.1322,-0.0001839628,16.983,0
1.1331,-0.0004847486,16.9965,0,1.1331,-0.0001379721,16.9965,0
1.134,-0.0004881056,17.01,0,1.134,-0.0001574426,17.01,0
1.1349,-0.0003837034,17.0235,0,1.1349,-0.0001769131,17.0235,0
1.1358,-0.0001638209,17.037,0,1.1358,-0.0002024262,17.037,0
1.1367,-0.0001265583,17.0505,0,1.1367,-0.0001453574,17.0505,0
1.1376,0.0001628138,17.064,0,1.1376,-0.0001077592,17.064,0
1.1385,0.0006240635,17.0775,0,1.1385,-0.0001732204,17.0775,0
1.1394,0.0006160067,17.091,0,1.1394,-0.0001440146,17.091,0
1.1403,0.0003964599,17.1045,0,1.1403,-5.304036E-05,17.1045,0
1.1412,0.0004830701,17.118,0,1.1412,-7.687495E-05,17.118,0
1.1421,0.0005152972,17.1315,0,1.1421,8.96315E-05,17.1315,0
1.143,0.0002789654,17.145,0,1.143,0.0003259632,17.145,0
1.1439,1.443504E-05,17.1585,0,1.1439,0.0001080949,17.1585,0
1.1448,1.007095E-06,17.172,0,1.1448,-8.526741E-05,17.172,0
1.1457,2.920577E-05,17.1855,0,1.1457,-6.915389E-05,17.1855,0
1.1466,-0.0001171588,17.199,0,1.1466,-1.309224E-05,17.199,0
1.1475,-0.0001356222,17.2125,0,1.1475,-2.383459E-05,17.2125,0
1.1484,-0.0001926909,17.226,0,1.1484,-4.699779E-06,17.226,0
1.1493,-1.275654E-05,17.2395,0,1.1493,-5.069047E-05,17.2395,0
1.1502,9.433127E-05,17.253,0,1.1502,6.848249E-05,17.253,0
1.1511,-0.0001373007,17.2665,0,1.1511,9.198138E-05,17.2665,0
1.152,-0.0001722133,17.28,0,1.152,2.349889E-06,17.28,0
1.1529,-5.975433E-05,17.2935,0,1.1529,2.551309E-05,17.2935,0
1.1538,-0.0001127947,17.307,0,1.1538,4.36408E-05,17.307,0
1.1547,-0.0001675135,17.3205,0,1.1547,-0.0002091402,17.3205,0
1.1556,-8.358892E-05,17.334,0,1.1556,-0.0004246586,17.334,0
1.1565,-0.000172549,17.3475,0,1.1565,-0.0002843366,17.3475,0
1.1574,-0.0001560998,17.361,0,1.1574,-0.0002363317,17.361,0
1.1583,-3.256275E-05,17.3745,0,1.1583,-0.0001305867,17.3745,0
1.1592,0.0001305867,17.388,0,1.1592,0.0001456931,17.388,0
1.1601,-9.701686E-05,17.4015,0,1.1601,-5.941863E-05,17.4015,0
1.161,-2.28275E-05,17.415,0,1.161,-0.0002289464,17.415,0
1.1619,7.217517E-05,17.4285,0,1.1619,-0.0001426719,17.4285,0
1.1628,4.699779E-05,17.442,0,1.1628,-1.913481E-05,17.442,0
1.1637,-9.399558E-06,17.4555,0,1.1637,0.0001849699,17.4555,0
1.1646,-0.0001594568,17.469,0,1.1646,0.0002192111,17.469,0
1.1655,-0.0001295796,17.4825,0,1.1655,0.0002487526,17.4825,0
1.1664,-5.404745E-05,17.496,0,1.1664,0.0001748989,17.496,0
1.1673,-9.332418E-05,17.5095,0,1.1673,0.0002645304,17.5095,0
1.1682,-8.89601E-05,17.523,0,1.1682,0.0003289845,17.523,0
1.1691,4.39765E-05,17.5365,0,1.1691,0.0002279393,17.5365,0
1.17,-4.33051E-05,17.55,0,1.17,0.0001567712,17.55,0
1.1709,0.0001050736,17.5635,0,1.1709,0.000172549,17.5635,0
1.1718,0.0002319677,17.577,0,1.1718,0.0001822843,17.577,0
1.1727,0.0001201801,17.5905,0,1.1727,2.1149E-05,17.5905,0
1.1736,1.577783E-05,17.604,0,1.1736,3.524834E-05,17.604,0
1.1745,-6.713969E-07,17.6175,0,1.1745,4.39765E-05,17.6175,0
1.1754,3.356985E-06,17.631,0,1.1754,-7.687495E-05,17.631,0
1.1763,0.000119173,17.6445,0,1.1763,-0.0001742275,17.6445,0
1.1772,-9.735256E-06,17.658,0,1.1772,-0.0001967193,17.658,0
1.1781,-0.0001322652,17.6715,0,1.1781,-0.0004448005,17.6715,0
1.179,1.007095E-05,17.685,0,1.179,-0.0006267491,17.685,0
1.1799,8.728161E-06,17.6985,0,1.1799,-0.0006512551,17.6985,0
1.1808,-8.661021E-05,17.712,0,1.1808,-0.0005169756,17.712,0
1.1817,-2.887007E-05,17.7255,0,1.1817,-0.0002299535,17.7255,0
1.1826,0.0001282368,17.739,0,1.1826,0.0004743419,17.739,0
1.1835,-5.740444E-05,17.7525,0,1.1835,0.0008523384,17.7525,0
1.1844,1.779202E-05,17.766,0,1.1844,0.0006022431,17.766,0
1.1853,0.0001896696,17.7795,0,1.1853,0.0004320439,17.7795,0
1.1862,2.1149E-05,17.793,0,1.1862,0.0003286488,17.793,0
1.1871,-8.89601E-05,17.8065,0,1.1871,0.000186984,17.8065,0
1.188,7.385367E-06,17.82,0,1.188,0.0001497215,17.82,0
1.1889,-1.174945E-05,17.8335,0,1.1889,5.874724E-05,17.8335,0
1.1898,-3.491264E-05,17.847,0,1.1898,-6.143282E-05,17.847,0
1.1907,-6.61326E-05,17.8605,0,1.1907,-2.316319E-05,17.8605,0
1.1916,-5.270466E-05,17.874,0,1.1916,-3.927672E-05,17.874,0
1.1925,-5.337606E-05,17.8875,0,1.1925,-0.0001436789,17.8875,0
1.1934,-8.090334E-05,17.901,0,1.1934,-0.0001755703,17.901,0
1.1943,-0.0001977264,17.9145,0,1.1943,-2.047761E-05,17.9145,0
1.1952,-0.0002279393,17.928,0,1.1952,-6.042573E-06,17.928,0
1.1961,8.89601E-05,17.9415,0,1.1961,-0.0001732204,17.9415,0
1.197,-7.385367E-05,17.955,0,1.197,-0.0002920577,17.955,0
1.1979,-0.0002907149,17.9685,0,1.1979,-0.0003934386,17.9685,0
1.1988,-9.600977E-05,17.982,0,1.1988,-0.0005468528,17.982,0
1.1997,0.0004132448,17.9955,0,1.1997,-0.0004850843,17.9955,0
1.2006,0.000555581,18.009,0,1.2006,-0.0003736324,18.009,0
1.2015,0.000470985,18.0225,0,1.2015,-0.0001218585,18.0225,0
1.2024,0.0003803464,18.036,0,1.2024,0.0001708705,18.036,0
1.2033,0.0002091402,18.0495,0,1.2033,0.0001554284,18.0495,0
1.2042,0.0001117876,18.063,0,1.2042,0.0002232395,18.063,0
1.2051,5.270466E-05,18.0765,0,1.2051,0.0001795987,18.0765,0
1.206,9.768826E-05,18.09,0,1.206,0.0001467002,18.09,0
1.2069,-4.36408E-06,18.1035,0,1.2069,5.203327E-05,18.1035,0
1.2078,-0.0001668421,18.117,0,1.2078,7.956054E-05,18.117,0
1.2087,-0.0002977645,18.1305,0,1.2087,2.719158E-05,18.1305,0
1.2096,-0.0002947433,18.144,0,1.2096,-4.867628E-05,18.144,0
1.2105,-0.0003138781,18.1575,0,1.2105,3.356985E-07,18.1575,0
1.2114,-4.33051E-05,18.171,0,1.2114,-4.968337E-05,18.171,0
1.2123,-5.539025E-05,18.1845,0,1.2123,-0.0001587854,18.1845,0
1.2132,-0.0001161517,18.198,0,1.2132,-0.0001097734,18.198,0
1.2141,-0.0001463645,18.2115,0,1.2141,-8.82887E-05,18.2115,0
1.215,-0.0002366674,18.225,0,1.215,-9.365987E-05,18.225,0
1.2159,-8.358892E-05,18.2385,0,1.2159,-0.0001070878,18.2385,0
1.2168,0.000144686,18.252,0,1.2168,-0.0002239109,18.252,0
1.2177,6.948959E-05,18.2655,0,1.2177,-0.0001087663,18.2655,0
1.2186,-1.846342E-05,18.279,0,1.2186,-3.390555E-05,18.279,0
1.2195,0.0001675135,18.2925,0,1.2195,-5.404745E-05,18.2925,0
1.2204,0.0001644923,18.306,0,1.2204,5.438316E-05,18.306,0
1.2213,-2.920577E-05,18.3195,0,1.2213,0.0001715419,18.3195,0
1.2222,-5.673304E-05,18.333,0,1.2222,0.0001185016,18.333,0
1.2231,6.411841E-05,18.3465,0,1.2231,-9.265278E-05,18.3465,0
1.224,-9.433127E-05,18.36,0,1.224,-4.129091E-05,18.36,0
1.2249,-0.0001339437,18.3735,0,1.2249,-9.970245E-05,18.3735,0
1.2258,-5.136187E-05,18.387,0,1.2258,-0.0003209277,18.387,0
1.2267,4.699779E-06,18.4005,0,1.2267,-0.0002423743,18.4005,0
1.2276,-7.318227E-05,18.414,0,1.2276,3.457694E-05,18.414,0
1.2285,-6.378271E-06,18.4275,0,1.2285,0.0001295796,18.4275,0
1.2294,3.121996E-05,18.441,0,1.2294,0.0001856413,18.441,0
1.2303,-0.0001044022,18.4545,0,1.2303,0.0002057832,18.4545,0
1.2312,-0.0001433432,18.468,0,1.2312,0.0002406958,18.468,0
1.2321,-0.0001755703,18.4815,0,1.2321,0.0002803082,18.4815,0
1.233,-0.0001514,18.495,0,1.233,0.0001460288,18.495,0
1.2339,-0.0001050736,18.5085,0,1.2339,-9.936675E-05,18.5085,0
1.2348,-0.0001668421,18.522,0,1.2348,-0.0001151446,18.522,0
1.2357,-0.0001225299,18.5355,0,1.2357,-0.0002044404,18.5355,0
1.2366,7.486076E-05,18.549,0,1.2366,-0.0002934005,18.549,0
1.2375,-1.376364E-05,18.5625,0,1.2375,-9.701686E-05,18.5625,0
1.2384,-4.095522E-05,18.576,0,1.2384,7.821774E-05,18.576,0
1.2393,7.721065E-05,18.5895,0,1.2393,8.123904E-05,18.5895,0
1.2402,-7.687495E-05,18.603,0,1.2402,0.0001185016,18.603,0
1.2411,-8.090334E-05,18.6165,0,1.2411,0.0001594568,18.6165,0
1.242,-3.256275E-05,18.63,0,1.242,8.92958E-05,18.63,0
1.2429,5.035477E-05,18.6435,0,1.2429,0.0001138018,18.6435,0
1.2438,7.217517E-05,18.657,0,1.2438,-2.24918E-05,18.657,0
1.2447,1.846342E-05,18.6705,0,1.2447,-3.021286E-05,18.6705,0
1.2456,2.853437E-05,18.684,0,1.2456,8.560311E-05,18.684,0
1.2465,4.53193E-05,18.6975,0,1.2465,3.994812E-05,18.6975,0
1.2474,4.53193E-05,18.711,0,1.2474,-9.970245E-05,18.711,0
1.2483,6.378271E-06,18.7245,0,1.2483,-2.786297E-05,18.7245,0
1.2492,7.083238E-05,18.738,0,1.2492,-7.452507E-05,18.738,0
1.2501,6.74754E-05,18.7515,0,1.2501,-0.0001816129,18.7515,0
1.251,-3.927672E-05,18.765,0,1.251,-0.0001423362,18.765,0
1.2519,4.028382E-06,18.7785,0,1.2519,-0.0001967193,18.7785,0
1.2528,2.24918E-05,18.792,0,1.2528,-0.0002450599,18.792,0
1.2537,-2.584878E-05,18.8055,0,1.2537,-6.478981E-05,18.8055,0
1.2546,-1.846342E-05,18.819,0,1.2546,6.344701E-05,18.819,0
1.2555,1.980621E-05,18.8325,0,1.2555,0.0001507286,18.8325,0
1.2564,-1.913481E-05,18.846,0,1.2564,0.0002030976,18.846,0
1.2573,6.143282E-05,18.8595,0,1.2573,9.399558E-06,18.8595,0
1.2582,1.644922E-05,18.873,0,1.2582,-0.0001114519,18.873,0
1.2591,-9.600977E-05,18.8865,0,1.2591,-0.0002286107,18.8865,0
1.26,-9.735256E-06,18.9,0,1.26,-0.0003581903,18.9,0
1.2609,5.606165E-05,18.9135,0,1.2609,-0.0003252918,18.9135,0
1.2618,-1.074235E-05,18.927,0,1.2618,-6.210422E-05,18.927,0
1.2627,1.846342E-05,18.9405,0,1.2627,-2.517739E-05,18.9405,0
1.2636,0.0001795987,18.954,0,1.2636,0.0001077592,18.954,0
1.2645,6.74754E-05,18.9675,0,1.2645,0.0005045548,18.9675,0
1.2654,-0.0001215228,18.981,0,1.2654,0.0002104829,18.981,0
1.2663,-6.478981E-05,18.9945,0,1.2663,-8.560311E-05,18.9945,0
1.2672,-0.0001426719,19.008,0,1.2672,-7.385367E-06,19.008,0
1.2681,-0.0001174945,19.0215,0,1.2681,5.136187E-05,19.0215,0
1.269,8.72816E-05,19.035,0,1.269,0.0002601663,19.035,0
1.2699,2.652018E-05,19.0485,0,1.2699,0.0004065309,19.0485,0
1.2708,-8.728161E-06,19.062,0,1.2708,0.0001923552,19.062,0
1.2717,-1.913481E-05,19.0755,0,1.2717,8.560311E-05,19.0755,0
1.2726,-0.000158114,19.089,0,1.2726,6.54612E-05,19.089,0
1.2735,-0.0001722133,19.1025,0,1.2735,-5.136187E-05,19.1025,0
1.2744,-5.673304E-05,19.116,0,1.2744,-0.0001366293,19.116,0
1.2753,-0.0001148089,19.1295,0,1.2753,-5.941863E-05,19.1295,0
1.2762,-7.821774E-05,19.143,0,1.2762,-0.0001883268,19.143,0
1.2771,7.821774E-05,19.1565,0,1.2771,-0.0002477455,19.1565,0
1.278,0.0003219348,19.17,0,1.278,-8.627451E-05,19.17,0
1.2789,0.0002997787,19.1835,0,1.2789,-6.176852E-05,19.1835,0
1.2798,0.0001003738,19.197,0,1.2798,-0.0001114519,19.197,0
1.2807,0.0001326009,19.2105,0,1.2807,-0.000136965,19.2105,0
1.2816,3.659113E-05,19.224,0,1.2816,-0.0001373007,19.224,0
1.2825,0.000133608,19.2375,0,1.2825,-0.0001920195,19.2375,0
1.2834,0.0002531167,19.251,0,1.2834,-8.761731E-05,19.251,0
1.2843,0.0002735943,19.2645,0,1.2843,6.378271E-05,19.2645,0
1.2852,6.478981E-05,19.278,0,1.2852,0.0001806058,19.278,0
1.2861,9.768826E-05,19.2915,0,1.2861,0.0001668421,19.2915,0
1.287,0.0001386435,19.305,0,1.287,0.0001171588,19.305,0
1.2879,-7.888914E-05,19.3185,0,1.2879,8.056764E-05,19.3185,0
1.2888,-0.0003497978,19.332,0,1.2888,-1.074235E-05,19.332,0
1.2897,-0.000252781,19.3455,0,1.2897,-9.869535E-05,19.3455,0
1.2906,-0.0001252155,19.359,0,1.2906,-0.0002121614,19.359,0
1.2915,-0.0001775845,19.3725,0,1.2915,-9.164568E-05,19.3725,0
1.2924,-8.493171E-05,19.386,0,1.2924,-0.000112459,19.386,0
1.2933,-0.0001463645,19.3995,0,1.2933,-0.0002067903,19.3995,0
1.2942,-0.0001916838,19.413,0,1.2942,-0.0001309224,19.413,0
1.2951,0.0002024262,19.4265,0,1.2951,3.121996E-05,19.4265,0
1.296,0.0003951171,19.44,0,1.296,2.853437E-05,19.44,0
1.2969,0.0002453956,19.4535,0,1.2969,-5.069047E-05,19.4535,0
1.2978,0.000164828,19.467,0,1.2978,2.1149E-05,19.467,0
1.2987,1.510643E-05,19.4805,0,1.2987,9.298848E-05,19.4805,0
1.2996,-4.196231E-05,19.494,0,1.2996,0.0001554284,19.494,0
1.3005,-0.0001064164,19.5075,0,1.3005,-1.678492E-06,19.5075,0
1.3014,-8.92958E-05,19.521,0,1.3014,-0.0001493858,19.521,0
1.3023,-0.0001994049,19.5345,0,1.3023,-8.291753E-05,19.5345,0
1.3032,-0.0002803082,19.548,0,1.3032,-0.0001567712,19.548,0
1.3041,-2.786297E-05,19.5615,0,1.3041,-0.0002286107,19.5615,0
1.305,-5.203327E-05,19.575,0,1.305,-3.927672E-05,19.575,0
1.3059,-0.0001842985,19.5885,0,1.3059,-3.021286E-06,19.5885,0
1.3068,-0.0001060807,19.602,0,1.3068,-0.0001285725,19.602,0
1.3077,-0.0001265583,19.6155,0,1.3077,-0.0001077592,19.6155,0
1.3086,-0.0002265965,19.629,0,1.3086,-4.733349E-05,19.629,0
1.3095,-0.0001621424,19.6425,0,1.3095,-5.539025E-05,19.6425,0
1.3104,-0.0001305867,19.656,0,1.3104,-7.217517E-05,19.656,0
1.3113,-0.0001366293,19.6695,0,1.3113,-1.980621E-05,19.6695,0
1.3122,-5.203327E-05,19.683,0,1.3122,9.600977E-05,19.683,0
1.3131,-0.0001107805,19.6965,0,1.3131,5.941863E-05,19.6965,0
1.314,3.558404E-05,19.71,0,1.314,-3.591974E-05,19.71,0
1.3149,0.0001379721,19.7235,0,1.3149,-0.0001178302,19.7235,0
1.3158,3.155566E-05,19.737,0,1.3158,-0.0001164874,19.737,0
1.3167,7.318227E-05,19.7505,0,1.3167,-9.130999E-05,19.7505,0
1.3176,0.0002413672,19.764,0,1.3176,-0.0001138018,19.764,0
1.3185,9.030289E-05,19.7775,0,1.3185,-3.256275E-05,19.7775,0
1.3194,6.143282E-05,19.791,0,1.3194,0.000144686,19.791,0
1.3203,4.263371E-05,19.8045,0,1.3203,0.0001769131,19.8045,0
1.3212,-1.409934E-05,19.818,0,1.3212,0.0002158541,19.818,0
1.3221,-5.102617E-05,19.8315,0,1.3221,0.0003387198,19.8315,0
1.323,-5.471885E-05,19.845,0,1.323,0.0001735561,19.845,0
1.3239,7.049668E-06,19.8585,0,1.3239,7.721065E-06,19.8585,0
1.3248,0.0001097734,19.872,0,1.3248,-7.553216E-05,19.872,0
1.3257,3.860533E-05,19.8855,0,1.3257,1.577783E-05,19.8855,0
1.3266,-7.754635E-05,19.899,0,1.3266,-4.934768E-05,19.899,0
1.3275,2.316319E-05,19.9125,0,1.3275,-9.130999E-05,19.9125,0
1.3284,9.298848E-05,19.926,0,1.3284,2.18204E-05,19.926,0
1.3293,-4.934768E-05,19.9395,0,1.3293,0.000109102,19.9395,0
1.3302,-3.826963E-05,19.953,0,1.3302,1.040665E-05,19.953,0
1.3311,2.819867E-05,19.9665,0,1.3311,-0.0001671778,19.9665,0
1.332,-4.867628E-05,19.98,0,1.332,-0.0001064164,19.98,0
1.3329,5.606165E-05,19.9935,0,1.3329,-6.009003E-05,19.9935,0
1.3338,0.000105745,20.007,0,1.3338,-4.968337E-05,20.007,0
1.3347,-2.18204E-05,20.0205,0,1.3347,9.298848E-05,20.0205,0
1.3356,3.524834E-05,20.034,0,1.3356,0.0001735561,20.034,0
1.3365,0.0001275654,20.0475,0,1.3365,0.0001010452,20.0475,0
1.3374,4.901198E-05,20.061,0,1.3374,1.712062E-05,20.061,0
1.3383,7.721065E-06,20.0745,0,1.3383,-0.0001245441,20.0745,0
1.3392,4.229801E-05,20.088,0,1.3392,-3.894102E-05,20.088,0
1.3401,7.385367E-06,20.1015,0,1.3401,-1.980621E-05,20.1015,0
1.341,9.063859E-06,20.115,0,1.341,-0.0001822843,20.115,0
1.3419,8.426032E-05,20.1285,0,1.3419,-0.0002954147,20.1285,0
1.3428,-2.987716E-05,20.142,0,1.3428,-0.0003924315,20.142,0
1.3437,-4.33051E-05,20.1555,0,1.3437,-0.000355169,20.1555,0
1.3446,0.0001218585,20.169,0,1.3446,-8.090334E-05,20.169,0
1.3455,1.007095E-06,20.1825,0,1.3455,0.0002735943,20.1825,0
1.3464,-9.768826E-05,20.196,0,1.3464,0.0001164874,20.196,0
1.3473,-3.121996E-05,20.2095,0,1.3473,-3.927672E-05,20.2095,0
1.3482,-7.721065E-06,20.223,0,1.3482,3.189136E-05,20.223,0
1.3491,-0.0001554284,20.2365,0,1.3491,0.0002118257,20.2365,0
1.35,-0.0001671778,20.25,0,1.35,0.0002923934,20.25,0
1.3509,-1.712062E-05,20.2635,0,1.3509,0.0004273442,20.2635,0
1.3518,0.0001017166,20.277,0,1.3518,0.0001983978,20.277,0
1.3527,0.0001856413,20.2905,0,1.3527,8.82887E-05,20.2905,0
1.3536,0.0001621424,20.304,0,1.3536,4.733349E-05,20.304,0
1.3545,4.263371E-05,20.3175,0,1.3545,-6.109713E-05,20.3175,0
1.3554,-5.035477E-05,20.331,0,1.3554,-7.083238E-05,20.331,0
1.3563,-0.0001668421,20.3445,0,1.3563,5.471885E-05,20.3445,0
1.3572,-0.0001201801,20.358,0,1.3572,-1.913481E-05,20.358,0
1.3581,-0.0001282368,20.3715,0,1.3581,-0.0001389792,20.3715,0
1.359,-0.0001033951,20.385,0,1.359,-0.0001812772,20.385,0
1.3599,0.000235996,20.3985,0,1.3599,-0.0002376745,20.3985,0
1.3608,0.0001983978,20.412,0,1.3608,-0.0002333104,20.412,0
1.3617,4.263371E-05,20.4255,0,1.3617,-0.000161471,20.4255,0
1.3626,-7.150377E-05,20.439,0,1.3626,-0.0001131304,20.439,0
1.3635,-4.599069E-05,20.4525,0,1.3635,-0.0001168231,20.4525,0
1.3644,-7.788205E-05,20.466,0,1.3644,-0.0001138018,20.466,0
1.3653,-0.0001765774,20.4795,0,1.3653,-0.0001289082,20.4795,0
1.3662,-0.0001762417,20.493,0,1.3662,-2.316319E-05,20.493,0
1.3671,-7.956054E-05,20.5065,0,1.3671,3.726253E-05,20.5065,0
1.368,0.0002594949,20.52,0,1.368,-7.049668E-05,20.52,0
1.3689,0.0003984741,20.5335,0,1.3689,-0.0001413291,20.5335,0
1.3698,0.000323949,20.547,0,1.3698,-5.035477E-06,20.547,0
1.3707,7.486076E-05,20.5605,0,1.3707,2.652018E-05,20.5605,0
1.3716,7.452507E-05,20.574,0,1.3716,-2.752728E-05,20.574,0
1.3725,-9.701686E-05,20.5875,0,1.3725,9.433127E-05,20.5875,0
1.3734,-0.0001493858,20.601,0,1.3734,8.96315E-05,20.601,0
1.3743,-5.740444E-05,20.6145,0,1.3743,7.049668E-06,20.6145,0
1.3752,-0.0001722133,20.628,0,1.3752,-1.947051E-05,20.628,0
1.3761,-0.0003111925,20.6415,0,1.3761,-0.0001017166,20.6415,0
1.377,-0.000197055,20.655,0,1.377,-0.000102388,20.655,0
1.3779,-0.0001876554,20.6685,0,1.3779,-6.71397E-05,20.6685,0
1.3788,-6.74754E-05,20.682,0,1.3788,-7.888914E-05,20.682,0
1.3797,5.706874E-06,20.6955,0,1.3797,-1.913481E-05,20.6955,0
1.3806,-0.0001198444,20.709,0,1.3806,-6.54612E-05,20.709,0
1.3815,-0.000158114,20.7225,0,1.3815,-0.000140322,20.7225,0
1.3824,4.028382E-06,20.736,0,1.3824,-0.0002272679,20.736,0
1.3833,2.786297E-05,20.7495,0,1.3833,-3.054856E-05,20.7495,0
1.3842,2.719158E-05,20.763,0,1.3842,0.0001131304,20.763,0
1.3851,3.121996E-05,20.7765,0,1.3851,0.0002789654,20.7765,0
1.386,8.761731E-05,20.79,0,1.386,0.0002652018,20.79,0
1.3869,0.0002051118,20.8035,0,1.3869,7.385367E-05,20.8035,0
1.3878,0.0001393149,20.817,0,1.3878,-7.016098E-05,20.817,0
1.3887,-1.040665E-05,20.8305,0,1.3887,-0.0001252155,20.8305,0
1.3896,-0.0001540856,20.844,0,1.3896,-0.0002239109,20.844,0
1.3905,-0.000164828,20.8575,0,1.3905,-0.0003098497,20.8575,0
1.3914,-8.86244E-05,20.871,0,1.3914,-0.000252781,20.871,0
1.3923,-1.174945E-05,20.8845,0,1.3923,-0.0001983978,20.8845,0
1.3932,-1.107805E-05,20.898,0,1.3932,0.0001087663,20.898,0
1.3941,-8.023193E-05,20.9115,0,1.3941,0.0004125734,20.9115,0
1.395,7.486076E-05,20.925,0,1.395,0.0003434196,20.925,0
1.3959,8.358892E-05,20.9385,0,1.3959,0.00024271,20.9385,0
1.3968,-3.860533E-05,20.952,0,1.3968,0.000337377,20.952,0
1.3977,-1.879912E-05,20.9655,0,1.3977,0.0001393149,20.9655,0
1.3986,1.846342E-05,20.979,0,1.3986,-0.0001779202,20.979,0
1.3995,-6.478981E-05,20.9925,0,1.3995,-6.210422E-05,20.9925,0
1.4004,7.687495E-05,21.006,0,1.4004,-2.24918E-05,21.006,0
1.4013,0.0001121233,21.0195,0,1.4013,-0.0001520714,21.0195,0
1.4022,1.007095E-06,21.033,0,1.4022,-8.560311E-05,21.033,0
1.4031,-6.009003E-05,21.0465,0,1.4031,-5.001907E-05,21.0465,0
1.404,-3.021286E-05,21.06,0,1.404,-0.0001094377,21.06,0
1.4049,2.24918E-05,21.0735,0,1.4049,-0.0001101091,21.0735,0
1.4058,5.874724E-05,21.087,0,1.4058,-0.0001467002,21.087,0
1.4067,5.035477E-05,21.1005,0,1.4067,-6.78111E-05,21.1005,0
1.4076,-4.632639E-05,21.114,0,1.4076,-9.735256E-06,21.114,0
1.4085,8.392462E-06,21.1275,0,1.4085,-9.768826E-05,21.1275,0
1.4094,6.344701E-05,21.141,0,1.4094,-7.284657E-05,21.141,0
1.4103,-8.89601E-05,21.1545,0,1.4103,3.558404E-05,21.1545,0
1.4112,-2.618448E-05,21.168,0,1.4112,-4.565499E-05,21.168,0
1.4121,0.0001500572,21.1815,0,1.4121,-7.452507E-05,21.1815,0
1.413,-0.0001107805,21.195,0,1.413,3.054856E-05,21.195,0
1.4139,-9.164568E-05,21.2085,0,1.4139,0.0001701991,21.2085,0
1.4148,7.754635E-05,21.222,0,1.4148,3.961242E-05,21.222,0
1.4157,-2.1149E-05,21.2355,0,1.4157,-6.51255E-05,21.2355,0
1.4166,-1.107805E-05,21.249,0,1.4166,5.471885E-05,21.249,0
1.4175,4.263371E-05,21.2625,0,1.4175,7.150377E-05,21.2625,0
1.4184,6.6804E-05,21.276,0,1.4184,5.807584E-05,21.276,0
1.4193,8.82887E-05,21.2895,0,1.4193,1.342794E-06,21.2895,0
1.4202,-1.309224E-05,21.303,0,1.4202,4.53193E-05,21.303,0
1.4211,-0.000161471,21.3165,0,1.4211,-1.107805E-05,21.3165,0
1.422,-0.0001406577,21.33,0,1.422,-9.433127E-05,21.33,0
1.4229,-6.243992E-05,21.3435,0,1.4229,3.021286E-06,21.3435,0
1.4238,-5.740444E-05,21.357,0,1.4238,0.0002155184,21.357,0
1.4247,-6.042573E-05,21.3705,0,1.4247,0.0001735561,21.3705,0
1.4256,-1.409934E-05,21.384,0,1.4256,-9.399558E-06,21.384,0
1.4265,-4.061952E-05,21.3975,0,1.4265,-0.0001064164,21.3975,0
1.4274,2.383459E-05,21.411,0,1.4274,-0.0001443503,21.411,0
1.4283,6.311131E-05,21.4245,0,1.4283,-0.0002507668,21.4245,0
1.4292,-1.007095E-06,21.438,0,1.4292,-0.0001641566,21.438,0
1.4301,3.424125E-05,21.4515,0,1.4301,0.0001174945,21.4515,0
1.431,0.0001121233,21.465,0,1.431,-3.088426E-05,21.465,0
1.4319,0.0001017166,21.4785,0,1.4319,-5.404745E-05,21.4785,0
1.4328,0.0001594568,21.492,0,1.4328,5.471885E-05,21.492,0
1.4337,5.941863E-05,21.5055,0,1.4337,0.0001930266,21.5055,0
1.4346,-5.807584E-05,21.519,0,1.4346,0.0001144732,21.519,0
1.4355,9.735256E-06,21.5325,0,1.4355,-4.867628E-05,21.5325,0
1.4364,-4.834058E-05,21.546,0,1.4364,-0.0001413291,21.546,0
1.4373,-0.000193698,21.5595,0,1.4373,-0.0001242084,21.5595,0
1.4382,-8.426032E-05,21.573,0,1.4382,-0.0001567712,21.573,0
1.4391,0.0001487144,21.5865,0,1.4391,-0.000193698,21.5865,0
1.44,-3.356985E-07,21.6,0,1.44,-0.0001215228,21.6,0
1.4409,-3.155566E-05,21.6135,0,1.4409,-0.0001195087,21.6135,0
1.4418,2.047761E-05,21.627,0,1.4418,-0.0001896696,21.627,0
1.4427,4.565499E-05,21.6405,0,1.4427,-0.0001607996,21.6405,0
1.4436,-0.0001399863,21.654,0,1.4436,-0.0001413291,21.654,0
1.4445,9.567407E-05,21.6675,0,1.4445,-2.652018E-05,21.6675,0
1.4454,0.0003004501,21.681,0,1.4454,5.941863E-05,21.681,0
1.4463,0.0003863889,21.6945,0,1.4463,0.000257145,21.6945,0
1.4472,0.000295079,21.708,0,1.4472,0.0003743038,21.708,0
1.4481,0.0001218585,21.7215,0,1.4481,0.0001544213,21.7215,0
1.449,1.577783E-05,21.735,0,1.449,5.136187E-05,21.735,0
1.4499,4.699779E-06,21.7485,0,1.4499,3.088426E-05,21.7485,0
1.4508,-0.0001178302,21.762,0,1.4508,3.726253E-05,21.762,0
1.4517,-0.0001228656,21.7755,0,1.4517,-3.121996E-05,21.7755,0
1.4526,3.457694E-05,21.789,0,1.4526,-0.0001332723,21.789,0
1.4535,-9.332418E-05,21.8025,0,1.4535,-3.323415E-05,21.8025,0
1.4544,-0.0002373388,21.816,0,1.4544,-3.390555E-05,21.816,0
1.4553,-0.0003887388,21.8295,0,1.4553,-0.0001111162,21.8295,0
1.4562,-0.0003850462,21.843,0,1.4562,-7.821774E-05,21.843,0
1.4571,-0.0002554666,21.8565,0,1.4571,-7.855344E-05,21.8565,0
1.458,-0.0001487144,21.87,0,1.458,-0.000133608,21.87,0
1.4589,-1.779202E-05,21.8835,0,1.4589,-0.0001064164,21.8835,0
1.4598,0.0001225299,21.897,0,1.4598,-0.0001916838,21.897,0
1.4607,0.0002312963,21.9105,0,1.4607,-9.030289E-05,21.9105,0
1.4616,0.0002890364,21.924,0,1.4616,-5.841154E-05,21.924,0
1.4625,4.061952E-05,21.9375,0,1.4625,-1.644922E-05,21.9375,0
1.4634,-2.21561E-05,21.951,0,1.4634,5.740444E-05,21.951,0
1.4643,-4.599069E-05,21.9645,0,1.4643,0.0001258869,21.9645,0
1.4652,-9.164568E-05,21.978,0,1.4652,7.284657E-05,21.978,0
1.4661,-6.210422E-05,21.9915,0,1.4661,-2.383459E-05,21.9915,0
1.467,-0.0001238727,22.005,0,1.467,9.030289E-05,22.005,0
1.4679,-0.0001201801,22.0185,0,1.4679,-2.316319E-05,22.0185,0
1.4688,-0.0001866484,22.032,0,1.4688,-0.0001208515,22.032,0
1.4697,-1.678492E-06,22.0455,0,1.4697,-4.632639E-05,22.0455,0
1.4706,-4.766919E-05,22.059,0,1.4706,-2.047761E-05,22.059,0
1.4715,-9.802396E-05,22.0725,0,1.4715,-0.0001594568,22.0725,0
1.4724,-6.74754E-05,22.086,0,1.4724,-0.0001171588,22.086,0
1.4733,0.0001064164,22.0995,0,1.4733,-0.0001453574,22.0995,0
1.4742,0.0001701991,22.113,0,1.4742,4.129091E-05,22.113,0
1.4751,-3.390555E-05,22.1265,0,1.4751,0.0001067521,22.1265,0
1.476,-4.867628E-05,22.14,0,1.476,-0.000140322,22.14,0
1.4769,3.356985E-07,22.1535,0,1.4769,-0.0001856413,22.1535,0
1.4778,-9.030289E-05,22.167,0,1.4778,-2.316319E-05,22.167,0
1.4787,-5.069047E-05,22.1805,0,1.4787,4.46479E-05,22.1805,0
1.4796,0.0001272297,22.194,0,1.4796,-3.390555E-05,22.194,0
1.4805,-2.450599E-05,22.2075,0,1.4805,8.358892E-05,22.2075,0
1.4814,-9.198138E-05,22.221,0,1.4814,5.203327E-05,22.221,0
1.4823,-3.121996E-05,22.2345,0,1.4823,-0.0001138018,22.2345,0
1.4832,2.24918E-05,22.248,0,1.4832,-0.0001067521,22.248,0
1.4841,-9.869535E-05,22.2615,0,1.4841,4.599069E-05,22.2615,0
1.485,-1.712062E-05,22.275,0,1.485,0.000281651,22.275,0
1.4859,-1.947051E-05,22.2885,0,1.4859,0.000312871,22.2885,0
1.4868,2.987716E-05,22.302,0,1.4868,0.0001030594,22.302,0
1.4877,0.0001272297,22.3155,0,1.4877,0.0001138018,22.3155,0
1.4886,-0.0001520714,22.329,0,1.4886,5.035477E-05,22.329,0
1.4895,-0.0001265583,22.3425,0,1.4895,-0.0001218585,22.3425,0
1.4904,-1.342794E-06,22.356,0,1.4904,-0.0001279011,22.356,0
1.4913,-0.0001094377,22.3695,0,1.4913,-5.069047E-05,22.3695,0
1.4922,-0.000115816,22.383,0,1.4922,-7.553216E-05,22.383,0
1.4931,3.692683E-06,22.3965,0,1.4931,-0.0001440146,22.3965,0
1.494,1.510643E-05,22.41,0,1.494,-4.699779E-06,22.41,0
1.4949,0.0001389792,22.4235,0,1.4949,-8.224613E-05,22.4235,0
1.4958,0.0001842985,22.437,0,1.4958,-0.0002276036,22.437,0
1.4967,3.894102E-05,22.4505,0,1.4967,-0.0002309606,22.4505,0
1.4976,-0.0001027237,22.464,0,1.4976,-0.0001262226,22.464,0
1.4985,-3.457694E-05,22.4775,0,1.4985,0,22.4775,0
1.4994,7.888914E-05,22.491,0,1.4994,0.0002380102,22.491,0
1.5003,0.0001097734,22.5045,0,1.5003,0.0002621805,22.5045,0
1.5012,7.016098E-05,22.518,0,1.5012,0.0002574807,22.518,0
1.5021,2.24918E-05,22.5315,0,1.5021,0.0001748989,22.5315,0
1.503,7.888914E-05,22.545,0,1.503,0.0001916838,22.545,0
1.5039,4.263371E-05,22.5585,0,1.5039,0.0001644923,22.5585,0
1.5048,-3.524834E-05,22.572,0,1.5048,0.0001164874,22.572,0
1.5057,2.987716E-05,22.5855,0,1.5057,1.644922E-05,22.5855,0
1.5066,7.385367E-05,22.599,0,1.5066,-7.553216E-05,22.599,0
1.5075,1.242084E-05,22.6125,0,1.5075,8.728161E-06,22.6125,0
1.5084,9.298848E-05,22.626,0,1.5084,2.349889E-06,22.626,0
1.5093,8.426032E-05,22.6395,0,1.5093,-0.0001356222,22.6395,0
1.5102,4.934768E-05,22.653,0,1.5102,-0.0001675135,22.653,0
1.5111,-9.634547E-05,22.6665,0,1.5111,-0.0001467002,22.6665,0
1.512,-0.0001289082,22.68,0,1.512,-0.000126894,22.68,0
1.5129,-0.0001218585,22.6935,0,1.5129,-0.0001027237,22.6935,0
1.5138,-5.136187E-05,22.707,0,1.5138,-5.841154E-05,22.707,0
1.5147,-2.014191E-06,22.7205,0,1.5147,3.021286E-05,22.7205,0
1.5156,-0.0001722133,22.734,0,1.5156,-6.713969E-07,22.734,0
1.5165,-1.007095E-06,22.7475,0,1.5165,-9.600977E-05,22.7475,0
1.5174,0.0001597925,22.761,0,1.5174,-0.0001359579,22.761,0
1.5183,-4.061952E-05,22.7745,0,1.5183,-9.835965E-05,22.7745,0
1.5192,5.874724E-05,22.788,0,1.5192,-0.0001245441,22.788,0
1.5201,0.0001846342,22.8015,0,1.5201,-0.0001755703,22.8015,0
1.521,-9.063859E-06,22.815,0,1.521,1.712062E-05,22.815,0
1.5219,1.376364E-05,22.8285,0,1.5219,5.941863E-05,22.8285,0
1.5228,0.0001070878,22.842,0,1.5228,-0.0001198444,22.842,0
1.5237,6.6804E-05,22.8555,0,1.5237,-5.941863E-05,22.8555,0
1.5246,5.606165E-05,22.869,0,1.5246,3.054856E-05,22.869,0
1.5255,7.721065E-06,22.8825,0,1.5255,4.666209E-05,22.8825,0
1.5264,-1.779202E-05,22.896,0,1.5264,6.51255E-05,22.896,0
1.5273,-3.659113E-05,22.9095,0,1.5273,-1.678492E-06,22.9095,0
1.5282,-2.853437E-05,22.923,0,1.5282,-0.0001379721,22.923,0
1.5291,3.457694E-05,22.9365,0,1.5291,-0.0001272297,22.9365,0
1.53,4.800488E-05,22.95,0,1.53,-0.0002366674,22.95,0
1.5309,8.258183E-05,22.9635,0,1.5309,-0.0002534524,22.9635,0
1.5318,9.164568E-05,22.977,0,1.5318,-0.0001017166,22.977,0
1.5327,6.277562E-05,22.9905,0,1.5327,6.411841E-05,22.9905,0
1.5336,4.666209E-05,23.004,0,1.5336,7.855344E-05,23.004,0
1.5345,-6.243992E-05,23.0175,0,1.5345,0.0001658351,23.0175,0
1.5354,6.042573E-06,23.031,0,1.5354,0.0001527428,23.031,0
1.5363,2.786297E-05,23.0445,0,1.5363,1.644922E-05,23.0445,0
1.5372,4.229801E-05,23.058,0,1.5372,3.491264E-05,23.058,0
1.5381,1.913481E-05,23.0715,0,1.5381,3.659113E-05,23.0715,0
1.539,4.53193E-05,23.085,0,1.539,3.088426E-05,23.085,0
1.5399,7.351797E-05,23.0985,0,1.5399,-1.812772E-05,23.0985,0
1.5408,0.0001497215,23.112,0,1.5408,-8.89601E-05,23.112,0
1.5417,-0.000102388,23.1255,0,1.5417,-1.443504E-05,23.1255,0
1.5426,-0.0003387198,23.139,0,1.5426,-2.349889E-06,23.139,0
1.5435,-0.0001849699,23.1525,0,1.5435,-4.699779E-05,23.1525,0
1.5444,-0.0001416648,23.166,0,1.5444,-6.57969E-05,23.166,0
1.5453,-0.0001997406,23.1795,0,1.5453,1.275654E-05,23.1795,0
1.5462,-8.72816E-05,23.193,0,1.5462,-8.392462E-06,23.193,0
1.5471,0.0001389792,23.2065,0,1.5471,-0.0001060807,23.2065,0
1.548,9.466698E-05,23.22,0,1.548,3.994812E-05,23.22,0
1.5489,-3.994812E-05,23.2335,0,1.5489,5.471885E-05,23.2335,0
1.5498,-8.795301E-05,23.247,0,1.5498,-0.0001030594,23.247,0
1.5507,-0.0001467002,23.2605,0,1.5507,-5.941863E-05,23.2605,0
1.5516,-0.0001836271,23.274,0,1.5516,4.129091E-05,23.274,0
1.5525,-4.733349E-05,23.2875,0,1.5525,-6.71397E-05,23.2875,0
1.5534,0.0001285725,23.301,0,1.5534,-9.567407E-05,23.301,0
1.5543,0.0001399863,23.3145,0,1.5543,-5.639734E-05,23.3145,0
1.5552,-1.107805E-05,23.328,0,1.5552,0.0001097734,23.328,0
1.5561,-0.0001735561,23.3415,0,1.5561,1.644922E-05,23.3415,0
1.557,-7.217517E-05,23.355,0,1.557,-9.231708E-05,23.355,0
1.5579,-3.323415E-05,23.3685,0,1.5579,-0.0001473716,23.3685,0
1.5588,-0.0002057832,23.382,0,1.5588,-3.793393E-05,23.382,0
1.5597,-0.0001185016,23.3955,0,1.5597,-3.457694E-05,23.3955,0
1.5606,7.049668E-06,23.409,0,1.5606,-0.0001326009,23.409,0
1.5615,-4.934768E-05,23.4225,0,1.5615,-7.754635E-05,23.4225,0
1.5624,-3.289845E-05,23.436,0,1.5624,1.712062E-05,23.436,0
1.5633,5.337606E-05,23.4495,0,1.5633,-4.33051E-05,23.4495,0
1.5642,0.0001094377,23.463,0,1.5642,-0.0001037308,23.463,0
1.5651,-4.196231E-05,23.4765,0,1.5651,-4.162661E-05,23.4765,0
1.566,-6.713969E-06,23.49,0,1.566,-6.881819E-05,23.49,0
1.5669,3.289845E-05,23.5035,0,1.5669,-4.49836E-05,23.5035,0
1.5678,1.409934E-05,23.517,0,1.5678,-7.385367E-06,23.517,0
1.5687,-3.860533E-05,23.5305,0,1.5687,3.457694E-05,23.5305,0
1.5696,-2.719158E-05,23.544,0,1.5696,0.0001097734,23.544,0
1.5705,-5.371176E-06,23.5575,0,1.5705,0.0002853437,23.5575,0
1.5714,5.001907E-05,23.571,0,1.5714,0.000257145,23.571,0
1.5723,-6.076142E-05,23.5845,0,1.5723,0.000172549,23.5845,0
1.5732,-6.814679E-05,23.598,0,1.5732,-5.304036E-05,23.598,0
1.5741,6.009003E-05,23.6115,0,1.5741,-0.0001990692,23.6115,0
1.575,-4.36408E-06,23.625,0,1.575,-5.236896E-05,23.625,0
1.5759,-5.505455E-05,23.6385,0,1.5759,-0.0001591211,23.6385,0
1.5768,-1.712062E-05,23.652,0,1.5768,-0.0002151827,23.652,0
1.5777,3.726253E-05,23.6655,0,1.5777,8.761731E-05,23.6655,0
1.5786,1.443504E-05,23.679,0,1.5786,0.0003857175,23.679,0
1.5795,-5.270466E-05,23.6925,0,1.5795,0.0003736324,23.6925,0
1.5804,-3.155566E-05,23.706,0,1.5804,0.0001634852,23.706,0
1.5813,3.927672E-05,23.7195,0,1.5813,1.577783E-05,23.7195,0
1.5822,-4.36408E-05,23.733,0,1.5822,3.659113E-05,23.733,0
1.5831,-0.0001678492,23.7465,0,1.5831,7.049668E-06,23.7465,0
1.584,-9.701686E-05,23.76,0,1.584,-8.82887E-05,23.76,0
1.5849,-4.867628E-05,23.7735,0,1.5849,-0.0001265583,23.7735,0
1.5858,-9.030289E-05,23.787,0,1.5858,-4.901198E-05,23.787,0
1.5867,9.735256E-06,23.8005,0,1.5867,-5.706874E-05,23.8005,0
1.5876,0.0001900053,23.814,0,1.5876,-0.0002138399,23.814,0
1.5885,1.174945E-05,23.8275,0,1.5885,-0.0001782559,23.8275,0
1.5894,0.0001285725,23.841,0,1.5894,-0.0001668421,23.841,0
1.5903,0.0001836271,23.8545,0,1.5903,-0.0002276036,23.8545,0
1.5912,-3.558404E-05,23.868,0,1.5912,-8.92958E-05,23.868,0
1.5921,-5.740444E-05,23.8815,0,1.5921,0.0001621424,23.8815,0
1.593,-1.644922E-05,23.895,0,1.593,0.0002665446,23.895,0
1.5939,-7.385367E-06,23.9085,0,1.5939,0.0001997406,23.9085,0
1.5948,2.719158E-05,23.922,0,1.5948,2.450599E-05,23.922,0
1.5957,5.136187E-05,23.9355,0,1.5957,1.174945E-05,23.9355,0
1.5966,-3.625543E-05,23.949,0,1.5966,-3.692683E-05,23.949,0
1.5975,-4.934768E-05,23.9625,0,1.5975,-0.000133608,23.9625,0
1.5984,-5.035477E-06,23.976,0,1.5984,-0.0001080949,23.976,0
1.5993,-8.392462E-06,23.9895,0,1.5993,5.035477E-06,23.9895,0
1.6002,4.53193E-05,24.003,0,1.6002,-9.735256E-06,24.003,0
1.6011,0.0001715419,24.0165,0,1.6011,-8.090334E-05,24.0165,0
1.602,6.344701E-05,24.03,0,1.602,-0.0001185016,24.03,0
1.6029,2.1149E-05,24.0435,0,1.6029,-8.023193E-05,24.0435,0
1.6038,3.491264E-05,24.057,0,1.6038,-9.399557E-05,24.057,0
1.6047,7.016098E-05,24.0705,0,1.6047,-0.0001201801,24.0705,0
1.6056,-0.0001299153,24.084,0,1.6056,-4.800488E-05,24.084,0
1.6065,-3.961242E-05,24.0975,0,1.6065,-4.39765E-05,24.0975,0
1.6074,0.0001033951,24.111,0,1.6074,-0.0001117876,24.111,0
1.6083,0.0001285725,24.1245,0,1.6083,-0.0001775845,24.1245,0
1.6092,0.0001178302,24.138,0,1.6092,-7.821774E-05,24.138,0
1.6101,-8.728161E-06,24.1515,0,1.6101,-6.042573E-05,24.1515,0
1.611,-3.021286E-05,24.165,0,1.611,-7.553216E-05,24.165,0
1.6119,-0.0001144732,24.1785,0,1.6119,-9.198138E-05,24.1785,0
1.6128,-0.0002255894,24.192,0,1.6128,-1.141375E-05,24.192,0
1.6137,-0.0002225681,24.2055,0,1.6137,-2.383459E-05,24.2055,0
1.6146,-0.0002702373,24.219,0,1.6146,-8.191043E-05,24.219,0
1.6155,-0.0002678874,24.2325,0,1.6155,2.920577E-05,24.2325,0
1.6164,-4.800488E-05,24.246,0,1.6164,7.721065E-06,24.246,0
1.6173,0.0001473716,24.2595,0,1.6173,-1.947051E-05,24.2595,0
1.6182,0.0001836271,24.273,0,1.6182,7.721065E-06,24.273,0
1.6191,8.82887E-05,24.2865,0,1.6191,-4.599069E-05,24.2865,0
1.62,7.754635E-05,24.3,0,1.62,-8.82887E-05,24.3,0
1.6209,6.143282E-05,24.3135,0,1.6209,-0.0001027237,24.3135,0
1.6218,0.0001117876,24.327,0,1.6218,-0.000109102,24.327,0
1.6227,0.0001077592,24.3405,0,1.6227,-2.618448E-05,24.3405,0
1.6236,-9.835965E-05,24.354,0,1.6236,7.385367E-06,24.354,0
1.6245,-6.042573E-05,24.3675,0,1.6245,7.888914E-05,24.3675,0
1.6254,7.083238E-05,24.381,0,1.6254,0.0001279011,24.381,0
1.6263,7.385367E-06,24.3945,0,1.6263,0.0001315938,24.3945,0
1.6272,0.0001675135,24.408,0,1.6272,7.452507E-05,24.408,0
1.6281,0.0001846342,24.4215,0,1.6281,1.980621E-05,24.4215,0
1.629,-0.0001631495,24.435,0,1.629,8.72816E-05,24.435,0
1.6299,-0.0001070878,24.4485,0,1.6299,2.1149E-05,24.4485,0
1.6308,0.0001030594,24.462,0,1.6308,-3.054856E-05,24.462,0
1.6317,0.0001373007,24.4755,0,1.6317,6.109713E-05,24.4755,0
1.6326,0.0001315938,24.489,0,1.6326,0.0001285725,24.489,0
1.6335,0.0001393149,24.5025,0,1.6335,1.309224E-05,24.5025,0
1.6344,0.0001607996,24.516,0,1.6344,-4.162661E-05,24.516,0
1.6353,7.183947E-05,24.5295,0,1.6353,-7.049668E-05,24.5295,0
1.6362,-1.242084E-05,24.543,0,1.6362,-1.208515E-05,24.543,0
1.6371,-7.217517E-05,24.5565,0,1.6371,7.049668E-06,24.5565,0
1.638,-7.821774E-05,24.57,0,1.638,-3.524834E-05,24.57,0
1.6389,-4.46479E-05,24.5835,0,1.6389,-4.968337E-05,24.5835,0
1.6398,-0.0001618067,24.597,0,1.6398,-4.095522E-05,24.597,0
1.6407,-0.0002175326,24.6105,0,1.6407,-0.0001373007,24.6105,0
1.6416,-7.486076E-05,24.624,0,1.6416,-0.0003125353,24.624,0
1.6425,-7.754635E-05,24.6375,0,1.6425,-0.0002329748,24.6375,0
1.6434,-0.0001030594,24.651,0,1.6434,-0.000172549,24.651,0
1.6443,7.653925E-05,24.6645,0,1.6443,-0.0001373007,24.6645,0
1.6452,5.471885E-05,24.678,0,1.6452,0.0001567712,24.678,0
1.6461,-0.0001423362,24.6915,0,1.6461,0.0003165637,24.6915,0
1.647,-0.0001013809,24.705,0,1.647,0.0003494621,24.705,0
1.6479,3.121996E-05,24.7185,0,1.6479,0.0002252537,24.7185,0
1.6488,5.740444E-05,24.732,0,1.6488,0.0001420005,24.732,0
1.6497,-5.236896E-05,24.7455,0,1.6497,1.678492E-06,24.7455,0
1.6506,-0.0001097734,24.759,0,1.6506,-0.000105745,24.759,0
1.6515,-5.471885E-05,24.7725,0,1.6515,-0.0001688563,24.7725,0
1.6524,-6.076142E-05,24.786,0,1.6524,-0.0002158541,24.786,0
1.6533,-0.0001211871,24.7995,0,1.6533,-4.061952E-05,24.7995,0
1.6542,-9.030289E-05,24.813,0,1.6542,9.399558E-06,24.813,0
1.6551,2.685588E-06,24.8265,0,1.6551,-3.524834E-05,24.8265,0
1.656,-3.189136E-05,24.84,0,1.656,0.0001765774,24.84,0
1.6569,2.887007E-05,24.8535,0,1.6569,0.0001285725,24.8535,0
1.6578,-4.699779E-06,24.867,0,1.6578,-0.0001698634,24.867,0
1.6587,-9.198138E-05,24.8805,0,1.6587,-0.0001601282,24.8805,0
1.6596,-0.0001654994,24.894,0,1.6596,-9.030289E-05,24.894,0
1.6605,-8.560311E-05,24.9075,0,1.6605,-8.627451E-05,24.9075,0
1.6614,-5.673304E-05,24.921,0,1.6614,-5.606165E-05,24.921,0
1.6623,6.61326E-05,24.9345,0,1.6623,-8.627451E-05,24.9345,0
1.6632,0.0001044022,24.948,0,1.6632,-8.392462E-06,24.948,0
1.6641,-3.793393E-05,24.9615,0,1.6641,1.342794E-06,24.9615,0
1.665,2.819867E-05,24.975,0,1.665,-2.417029E-05,24.975,0
1.6659,9.500267E-05,24.9885,0,1.6659,3.222705E-05,24.9885,0
1.6668,-4.263371E-05,25.002,0,1.6668,9.231708E-05,25.002,0
1.6677,-0.0001077592,25.0155,0,1.6677,-0.0001101091,25.0155,0
1.6686,5.706874E-06,25.029,0,1.6686,-0.0001322652,25.029,0
1.6695,-3.390555E-05,25.0425,0,1.6695,2.1149E-05,25.0425,0
1.6704,1.577783E-05,25.056,0,1.6704,3.591974E-05,25.056,0
1.6713,0.0001574426,25.0695,0,1.6713,-2.819867E-05,25.0695,0
1.6722,0.0001514,25.083,0,1.6722,6.948959E-05,25.083,0
1.6731,0.0001144732,25.0965,0,1.6731,0.0002484169,25.0965,0
1.674,0.0001467002,25.11,0,1.674,0.0001205158,25.11,0
1.6749,6.009003E-05,25.1235,0,1.6749,4.028382E-05,25.1235,0
1.6758,4.53193E-05,25.137,0,1.6758,-3.491264E-05,25.137,0
1.6767,1.107805E-05,25.1505,0,1.6767,1.007095E-05,25.1505,0
1.6776,-0.0001218585,25.164,0,1.6776,3.356985E-07,25.164,0
1.6785,-0.0001594568,25.1775,0,1.6785,-6.948959E-05,25.1775,0
1.6794,-0.0001497215,25.191,0,1.6794,-0.0001587854,25.191,0
1.6803,-0.0001775845,25.2045,0,1.6803,-6.009003E-05,25.2045,0
1.6812,-0.0001933623,25.218,0,1.6812,-4.53193E-05,25.218,0
1.6821,-9.735256E-06,25.2315,0,1.6821,-1.007095E-06,25.2315,0
1.683,5.606165E-05,25.245,0,1.683,0.0001688563,25.245,0
1.6839,0.0001500572,25.2585,0,1.6839,0.0001326009,25.2585,0
1.6848,0.0002064546,25.272,0,1.6848,-0.0001312581,25.272,0
1.6857,9.903105E-05,25.2855,0,1.6857,-0.0001863127,25.2855,0
1.6866,1.141375E-05,25.299,0,1.6866,-2.383459E-05,25.299,0
1.6875,0,25.3125,0,1.6875,-1.644922E-05,25.3125,0
1.6884,3.323415E-05,25.326,0,1.6884,-0.0001181659,25.326,0
1.6893,2.014191E-06,25.3395,0,1.6893,-0.0001272297,25.3395,0
1.6902,-4.36408E-05,25.353,0,1.6902,-3.256275E-05,25.353,0
1.6911,5.169757E-05,25.3665,0,1.6911,-2.987716E-05,25.3665,0
1.692,0.0001769131,25.38,0,1.692,-8.023193E-05,25.38,0
1.6929,0.0001782559,25.3935,0,1.6929,-4.733349E-05,25.3935,0
1.6938,0.0001178302,25.407,0,1.6938,8.69459E-05,25.407,0
1.6947,0.0001185016,25.4205,0,1.6947,2.1149E-05,25.4205,0
1.6956,0.0001144732,25.434,0,1.6956,-0.0001517357,25.434,0
1.6965,-1.712062E-05,25.4475,0,1.6965,-5.941863E-05,25.4475,0
1.6974,-2.719158E-05,25.461,0,1.6974,-1.342794E-05,25.461,0
1.6983,-7.721065E-05,25.4745,0,1.6983,-0.0001044022,25.4745,0
1.6992,-0.0001487144,25.488,0,1.6992,-5.975433E-05,25.488,0
1.7001,-0.0001295796,25.5015,0,1.7001,-4.36408E-06,25.5015,0
1.701,-9.164568E-05,25.515,0,1.701,-7.385367E-06,25.515,0
1.7019,3.692683E-06,25.5285,0,1.7019,-4.36408E-06,25.5285,0
1.7028,4.028382E-06,25.542,0,1.7028,-8.090334E-05,25.542,0
1.7037,-2.685588E-06,25.5555,0,1.7037,-1.678492E-06,25.5555,0
1.7046,-5.941863E-05,25.569,0,1.7046,-3.256275E-05,25.569,0
1.7055,-0.000119173,25.5825,0,1.7055,-0.0001205158,25.5825,0
1.7064,6.042573E-06,25.596,0,1.7064,-7.116808E-05,25.596,0
1.7073,-0.0001514,25.6095,0,1.7073,5.639734E-05,25.6095,0
1.7082,-9.399557E-05,25.623,0,1.7082,-1.779202E-05,25.623,0
1.7091,0.0001715419,25.6365,0,1.7091,-0.0001470359,25.6365,0
1.71,5.035477E-06,25.65,0,1.71,-5.606165E-05,25.65,0
1.7109,-0.0001003738,25.6635,0,1.7109,-2.752728E-05,25.6635,0
1.7118,-9.063859E-06,25.677,0,1.7118,-3.994812E-05,25.677,0
1.7127,3.356985E-06,25.6905,0,1.7127,5.874724E-05,25.6905,0
1.7136,-0.0001164874,25.704,0,1.7136,0.0001795987,25.704,0
1.7145,-7.788205E-05,25.7175,0,1.7145,0.0001393149,25.7175,0
1.7154,-9.231708E-05,25.731,0,1.7154,0.0001037308,25.731,0
1.7163,-4.599069E-05,25.7445,0,1.7163,1.510643E-05,25.7445,0
1.7172,-2.21561E-05,25.758,0,1.7172,3.591974E-05,25.758,0
1.7181,4.196231E-05,25.7715,0,1.7181,-2.584878E-05,25.7715,0
1.719,-1.980621E-05,25.785,0,1.719,-5.908293E-05,25.785,0
1.7199,1.678492E-06,25.7985,0,1.7199,-4.934768E-05,25.7985,0
1.7208,1.678492E-05,25.812,0,1.7208,2.685588E-05,25.812,0
1.7217,2.652018E-05,25.8255,0,1.7217,1.074235E-05,25.8255,0
1.7226,3.726253E-05,25.839,0,1.7226,-5.706874E-05,25.839,0
1.7235,-0.0001010452,25.8525,0,1.7235,-5.505455E-05,25.8525,0
1.7244,-0.0001537499,25.866,0,1.7244,-0.0001577783,25.866,0
1.7253,-1.510643E-05,25.8795,0,1.7253,-0.0002688945,25.8795,0
1.7262,2.786297E-05,25.893,0,1.7262,-0.0002151827,25.893,0
1.7271,-1.342794E-06,25.9065,0,1.7271,-0.0001913481,25.9065,0
1.728,0.0001198444,25.92,0,1.728,-0.0002286107,25.92,0
1.7289,6.143282E-05,25.9335,0,1.7289,-2.920577E-05,25.9335,0
1.7298,0.0001211871,25.947,0,1.7298,0.0001070878,25.947,0
1.7307,7.486076E-05,25.9605,0,1.7307,0.0001846342,25.9605,0
1.7316,-0.0001151446,25.974,0,1.7316,0.000249424,25.974,0
1.7325,-6.076142E-05,25.9875,0,1.7325,0.0002094759,25.9875,0
1.7334,-4.33051E-05,26.001,0,1.7334,0.0002145113,26.001,0
1.7343,-0.000169192,26.0145,0,1.7343,0.0002574807,26.0145,0
1.7352,-0.0001097734,26.028,0,1.7352,0.0001007095,26.028,0
1.7361,1.712062E-05,26.0415,0,1.7361,-3.692683E-05,26.0415,0
1.737,3.356985E-06,26.055,0,1.737,5.572595E-05,26.055,0
1.7379,0.0001151446,26.0685,0,1.7379,7.351797E-05,26.0685,0
1.7388,0.0001601282,26.082,0,1.7388,-7.754635E-05,26.082,0
1.7397,3.826963E-05,26.0955,0,1.7397,-0.0001097734,26.0955,0
1.7406,-6.042573E-05,26.109,0,1.7406,-6.143282E-05,26.109,0
1.7415,-1.544213E-05,26.1225,0,1.7415,-9.433127E-05,26.1225,0
1.7424,1.644922E-05,26.136,0,1.7424,-7.351797E-05,26.136,0
1.7433,-2.685588E-06,26.1495,0,1.7433,-0.0001326009,26.1495,0
1.7442,-2.584878E-05,26.163,0,1.7442,-6.6804E-05,26.163,0
1.7451,-7.418937E-05,26.1765,0,1.7451,-3.121996E-05,26.1765,0
1.746,-7.486076E-05,26.19,0,1.746,-8.392462E-05,26.19,0
1.7469,-1.443504E-05,26.2035,0,1.7469,-7.049668E-05,26.2035,0
1.7478,-0.000119173,26.217,0,1.7478,1.208515E-05,26.217,0
1.7487,-4.46479E-05,26.2305,0,1.7487,-7.754635E-05,26.2305,0
1.7496,0.0002077974,26.244,0,1.7496,-0.0001356222,26.244,0
1.7505,2.24918E-05,26.2575,0,1.7505,-1.174945E-05,26.2575,0
1.7514,-8.023193E-05,26.271,0,1.7514,-6.54612E-05,26.271,0
1.7523,7.888914E-05,26.2845,0,1.7523,-0.0001661708,26.2845,0
1.7532,3.994812E-05,26.298,0,1.7532,-9.701686E-05,26.298,0
1.7541,-0.000158114,26.3115,0,1.7541,-0.0001275654,26.3115,0
1.755,-5.270466E-05,26.325,0,1.755,-9.500267E-05,26.325,0
1.7559,4.095522E-05,26.3385,0,1.7559,-1.779202E-05,26.3385,0
1.7568,1.913481E-05,26.352,0,1.7568,8.426032E-05,26.352,0
1.7577,8.123904E-05,26.3655,0,1.7577,5.874724E-05,26.3655,0
1.7586,0.0001305867,26.379,0,1.7586,-0.000158114,26.379,0
1.7595,8.291753E-05,26.3925,0,1.7595,-0.0003222706,26.3925,0
1.7604,3.692683E-05,26.406,0,1.7604,-0.0002084688,26.406,0
1.7613,-2.047761E-05,26.4195,0,1.7613,-5.740444E-05,26.4195,0
1.7622,-3.256275E-05,26.433,0,1.7622,2.316319E-05,26.433,0
1.7631,7.284657E-05,26.4465,0,1.7631,0.0002386816,26.4465,0
1.764,-5.740444E-05,26.46,0,1.764,0.0005401389,26.46,0
1.7649,-6.881819E-05,26.4735,0,1.7649,0.0004155947,26.4735,0
1.7658,-2.584878E-05,26.487,0,1.7658,0.0002269322,26.487,0
1.7667,-0.0001493858,26.5005,0,1.7667,0.0002235752,26.5005,0
1.7676,-0.0001782559,26.514,0,1.7676,5.841154E-05,26.514,0
1.7685,-7.083238E-05,26.5275,0,1.7685,-9.970245E-05,26.5275,0
1.7694,-4.766919E-05,26.541,0,1.7694,-0.0001262226,26.541,0
1.7703,3.189136E-05,26.5545,0,1.7703,-0.0001597925,26.5545,0
1.7712,5.035477E-06,26.568,0,1.7712,-9.433127E-05,26.568,0
1.7721,-7.452507E-05,26.5815,0,1.7721,-2.853437E-05,26.5815,0
1.773,4.968337E-05,26.595,0,1.773,-1.947051E-05,26.595,0
1.7739,9.097429E-05,26.6085,0,1.7739,-5.706874E-06,26.6085,0
1.7748,2.1149E-05,26.622,0,1.7748,0.0001111162,26.622,0
1.7757,4.263371E-05,26.6355,0,1.7757,8.123904E-05,26.6355,0
1.7766,0.0001708705,26.649,0,1.7766,-3.121996E-05,26.649,0
1.7775,5.035477E-05,26.6625,0,1.7775,2.517739E-05,26.6625,0
1.7784,-4.36408E-06,26.676,0,1.7784,-4.36408E-06,26.676,0
1.7793,1.510643E-05,26.6895,0,1.7793,-9.063859E-05,26.6895,0
1.7802,7.418937E-05,26.703,0,1.7802,-4.095522E-05,26.703,0
1.7811,-6.277562E-05,26.7165,0,1.7811,5.706874E-06,26.7165,0
1.782,-4.33051E-05,26.73,0,1.782,-6.042573E-05,26.73,0
1.7829,-4.061952E-05,26.7435,0,1.7829,-8.69459E-05,26.7435,0
1.7838,0.0001765774,26.757,0,1.7838,-0.0001661708,26.757,0
1.7847,0.0003192493,26.7705,0,1.7847,-7.821774E-05,26.7705,0
1.7856,-2.551309E-05,26.784,0,1.7856,-0.0001117876,26.784,0
1.7865,-0.0001080949,26.7975,0,1.7865,-0.000123537,26.7975,0
1.7874,-1.712062E-05,26.811,0,1.7874,-0.0001319295,26.811,0
1.7883,-7.855344E-05,26.8245,0,1.7883,-2.517739E-05,26.8245,0
1.7892,-0.0001077592,26.838,0,1.7892,2.920577E-05,26.838,0
1.7901,4.49836E-05,26.8515,0,1.7901,-0.000105745,26.8515,0
1.791,-2.450599E-05,26.865,0,1.791,-3.961242E-05,26.865,0
1.7919,-0.0001359579,26.8785,0,1.7919,-3.860533E-05,26.8785,0
1.7928,-7.553216E-05,26.892,0,1.7928,-0.000102388,26.892,0
1.7937,-5.136187E-05,26.9055,0,1.7937,-8.996719E-05,26.9055,0
1.7946,-0.000144686,26.919,0,1.7946,-3.826963E-05,26.919,0
1.7955,-8.291753E-05,26.9325,0,1.7955,-2.920577E-05,26.9325,0
1.7964,2.752728E-05,26.946,0,1.7964,-3.256275E-05,26.946,0
1.7973,8.291753E-05,26.9595,0,1.7973,-9.835965E-05,26.9595,0
1.7982,3.994812E-05,26.973,0,1.7982,-1.644922E-05,26.973,0
1.7991,-6.009003E-05,26.9865,0,1.7991,-6.378271E-06,26.9865,0
1.8,-4.867628E-05,27,0,1.8,-2.954147E-05,27,0
1.8009,-9.097429E-05,27.0135,0,1.8009,-4.36408E-06,27.0135,0
1.8018,-6.344701E-05,27.027,0,1.8018,6.478981E-05,27.027,0
1.8027,0.0001621424,27.0405,0,1.8027,9.063859E-06,27.0405,0
1.8036,0.0001688563,27.054,0,1.8036,-0.0001500572,27.054,0
1.8045,5.203327E-05,27.0675,0,1.8045,-4.867628E-05,27.0675,0
1.8054,6.277562E-05,27.081,0,1.8054,-2.18204E-05,27.081,0
1.8063,4.263371E-05,27.0945,0,1.8063,-6.143282E-05,27.0945,0
1.8072,0.0001715419,27.108,0,1.8072,-9.735256E-06,27.108,0
1.8081,0.000133608,27.1215,0,1.8081,6.74754E-05,27.1215,0
1.809,-1.510643E-05,27.135,0,1.809,2.383459E-05,27.135,0
1.8099,-5.438316E-05,27.1485,0,1.8099,-5.471885E-05,27.1485,0
1.8108,-2.349889E-06,27.162,0,1.8108,-0.0001863127,27.162,0
1.8117,1.577783E-05,27.1755,0,1.8117,-0.0001386435,27.1755,0
1.8126,-0.0001077592,27.189,0,1.8126,-1.913481E-05,27.189,0
1.8135,-8.056763E-06,27.2025,0,1.8135,0.0001997406,27.2025,0
1.8144,9.164568E-05,27.216,0,1.8144,0.0002088045,27.216,0
1.8153,-2.584878E-05,27.2295,0,1.8153,0.0001037308,27.2295,0
1.8162,-0.0001064164,27.243,0,1.8162,0.0001030594,27.243,0
1.8171,2.786297E-05,27.2565,0,1.8171,1.510643E-05,27.2565,0
1.818,-0.0001430075,27.27,0,1.818,4.968337E-05,27.27,0
1.8189,-0.0001735561,27.2835,0,1.8189,7.385367E-05,27.2835,0
1.8198,-1.342794E-05,27.297,0,1.8198,6.143282E-05,27.297,0
1.8207,-9.097429E-05,27.3105,0,1.8207,6.243992E-05,27.3105,0
