X[s],"Trigno IM sensor 3: EMG 3 (IM)",X[s],"Trigno IM sensor 3: Mag 3.Z (IM)",X[s],"Trigno IM sensor 4: EMG 4 (IM)",X[s],"Trigno IM sensor 4: Mag 4.Z (IM)"
0.000000,1.275654E-05,0.000000,45,0.000000,-2.584878E-05,0.000000,105
0.0009,-5.203327E-05,0.0135,46,0.0009,3.558404E-05,0.0135,107
0.0018,-3.356985E-06,0.027,47,0.0018,6.74754E-05,0.027,101
0.0027,6.378271E-06,0.0405,47,0.0027,2.853437E-05,0.0405,106
0.0036,-8.627451E-05,0.054,46,0.0036,-3.054856E-05,0.054,107
0.0045,-6.243992E-05,0.0675,47,0.0045,-3.524834E-05,0.0675,103
0.0054,-2.349889E-06,0.081,47,0.0054,-1.644922E-05,0.081,100
0.0063,-7.284657E-05,0.0945,46,0.0063,-2.987716E-05,0.0945,104
0.0072,-6.378271E-06,0.108,46,0.0072,-3.524834E-05,0.108,103
0.0081,-9.735256E-06,0.1215,46,0.0081,-2.954147E-05,0.1215,102
0.009000001,-2.349889E-06,0.135,47,0.009000001,-2.719158E-05,0.135,107
0.0099,5.673304E-05,0.1485,45,0.0099,-9.735256E-06,0.1485,106
0.0108,5.975433E-05,0.162,46,0.0108,-2.18204E-05,0.162,104
0.0117,0.0001460288,0.1755,46,0.0117,-2.786297E-05,0.1755,107
0.0126,1.376364E-05,0.189,47,0.0126,-4.43122E-05,0.189,105
0.0135,3.323415E-05,0.2025,45,0.0135,-1.644922E-05,0.2025,107
0.0144,7.486076E-05,0.216,46,0.0144,-4.867628E-05,0.216,104
0.0153,-2.920577E-05,0.2295,47,0.0153,-2.450599E-05,0.2295,103
0.0162,2.349889E-06,0.243,47,0.0162,-2.316319E-05,0.243,106
0.0171,-0.0001178302,0.2565,45,0.0171,-7.049668E-05,0.2565,103
0.018,-0.0001161517,0.27,46,0.018,-4.632639E-05,0.27,106
0.0189,3.356985E-07,0.2835,46,0.0189,-5.069047E-05,0.2835,105
0.0198,-2.1149E-05,0.297,46,0.0198,-4.061952E-05,0.297,104
0.0207,-6.814679E-05,0.3105,47,0.0207,-1.779202E-05,0.3105,108
0.0216,-2.551309E-05,0.324,46,0.0216,-2.853437E-05,0.324,104
0.0225,-1.577783E-05,0.3375,46,0.0225,-2.719158E-05,0.3375,105
0.0234,0.0001433432,0.351,46,0.0234,-1.577783E-05,0.351,104
0.0243,7.150377E-05,0.3645,47,0.0243,-2.719158E-05,0.3645,109
0.0252,4.733349E-05,0.378,46,0.0252,8.728161E-06,0.378,105
0.0261,4.196231E-05,0.3915,48,0.0261,-6.713969E-07,0.3915,106
0.027,4.196231E-05,0.405,46,0.027,-1.242084E-05,0.405,107
0.0279,0.0001044022,0.4185,47,0.0279,-2.987716E-05,0.4185,107
0.0288,0.000105745,0.432,47,0.0288,-7.653925E-05,0.432,105
0.0297,-7.049668E-06,0.4455,46,0.0297,1.040665E-05,0.4455,107
0.0306,-0.0001641566,0.459,48,0.0306,-2.24918E-05,0.459,105
0.0315,-5.606165E-05,0.4725,47,0.0315,-6.51255E-05,0.4725,108
0.0324,-3.189136E-05,0.486,47,0.0324,-5.539025E-05,0.486,107
0.0333,-0.0001087663,0.4995,46,0.0333,3.726253E-05,0.4995,104
0.0342,1.309224E-05,0.513,47,0.0342,-2.987716E-05,0.513,105
0.0351,4.43122E-05,0.5265,46,0.0351,-0.000115816,0.5265,106
0.036,-5.136187E-05,0.54,46,0.036,1.040665E-05,0.54,105
0.0369,8.291753E-05,0.5535,47,0.0369,2.484169E-05,0.5535,100
0.0378,3.927672E-05,0.567,48,0.0378,-7.888914E-05,0.567,106
0.0387,-1.208515E-05,0.5805,48,0.0387,-4.666209E-05,0.5805,103
0.0396,-9.701686E-05,0.594,46,0.0396,3.894102E-05,0.594,101
0.0405,-5.706874E-05,0.6075,46,0.0405,3.692683E-05,0.6075,102
0.0414,-6.277562E-05,0.621,46,0.0414,3.793393E-05,0.621,102
0.0423,3.356985E-05,0.6345,46,0.0423,-4.061952E-05,0.6345,102
0.0432,3.457694E-05,0.648,46,0.0432,4.39765E-05,0.648,100
0.0441,6.51255E-05,0.6615,48,0.0441,5.606165E-05,0.6615,103
0.045,6.143282E-05,0.675,45,0.045,-3.726253E-05,0.675,104
0.0459,0.0001644923,0.6885,43,0.0459,-5.169757E-05,0.6885,101
0.0468,-2.14847E-05,0.702,43,0.0468,3.826963E-05,0.702,99
0.0477,-8.157473E-05,0.7155,45,0.0477,-3.692683E-06,0.7155,103
0.0486,8.89601E-05,0.729,44,0.0486,-0.0001000381,0.729,102
0.0495,-1.644922E-05,0.7425,44,0.0495,7.620356E-05,0.7425,103
0.0504,-0.0001762417,0.756,45,0.0504,5.203327E-05,0.756,103
0.0513,-8.493171E-05,0.7695,44,0.0513,-6.009003E-05,0.7695,101
0.0522,-5.404745E-05,0.783,44,0.0522,-1.107805E-05,0.783,102
0.0531,-0.0001366293,0.7965,45,0.0531,3.424125E-05,0.7965,99
0.054,-1.107805E-05,0.81,45,0.054,-9.735256E-06,0.81,100
0.0549,-3.256275E-05,0.8235,45,0.0549,-2.316319E-05,0.8235,101
0.0558,-7.385367E-06,0.837,47,0.0558,-8.090334E-05,0.837,104
0.0567,3.323415E-05,0.8505,44,0.0567,1.846342E-05,0.8505,103
0.0576,6.814679E-05,0.864,46,0.0576,5.035477E-06,0.864,103
0.0585,7.049668E-05,0.8775,46,0.0585,-3.759823E-05,0.8775,102
0.0594,4.196231E-05,0.891,45,0.0594,-2.349889E-05,0.891,103
0.0603,-4.229801E-05,0.9045,47,0.0603,5.941863E-05,0.9045,101
0.0612,-4.867628E-05,0.918,48,0.0612,1.779202E-05,0.918,100
0.0621,8.056764E-05,0.9315,48,0.0621,-0.0001040665,0.9315,107
0.063,4.599069E-05,0.945,48,0.063,1.443504E-05,0.945,103
0.0639,-5.572595E-05,0.9585,46,0.0639,1.409934E-05,0.9585,102
0.0648,-6.713969E-07,0.972,48,0.0648,-0.0001054093,0.972,101
0.0657,-6.74754E-05,0.9855,46,0.0657,-4.934768E-05,0.9855,103
0.0666,-0.000154757,0.999,49,0.0666,2.652018E-05,0.999,101
0.0675,-0.0001493858,1.0125,48,0.0675,2.349889E-06,1.0125,105
0.0684,-6.78111E-05,1.026,48,0.0684,9.063859E-06,1.026,102
0.0693,7.385367E-05,1.0395,47,0.0693,-6.109713E-05,1.0395,103
0.0702,-2.047761E-05,1.053,48,0.0702,2.786297E-05,1.053,106
0.0711,-8.358892E-05,1.0665,48,0.0711,2.584878E-05,1.0665,101
0.072,1.611353E-05,1.08,47,0.072,-6.814679E-05,1.08,102
0.0729,2.28275E-05,1.0935,47,0.0729,-6.915389E-05,1.0935,104
0.07380001,-8.325322E-05,1.107,48,0.07380001,2.24918E-05,1.107,100
0.07470001,-1.443504E-05,1.1205,47,0.07470001,-3.524834E-05,1.1205,101
0.0756,8.89601E-05,1.134,46,0.0756,-0.0001164874,1.134,103
0.0765,-5.001907E-05,1.1475,46,0.0765,1.242084E-05,1.1475,99
0.0774,7.049668E-05,1.161,47,0.0774,1.107805E-05,1.161,102
0.0783,0.0001453574,1.1745,47,0.0783,-0.0001087663,1.1745,104
0.0792,8.560311E-05,1.188,46,0.0792,-3.961242E-05,1.188,102
0.0801,-3.524834E-05,1.2015,47,0.0801,8.728161E-06,1.2015,102
0.081,7.150377E-05,1.215,47,0.081,-3.424125E-05,1.215,105
0.0819,-2.014191E-06,1.2285,47,0.0819,-4.39765E-05,1.2285,104
0.0828,4.095522E-05,1.242,46,0.0828,-0.0001047379,1.242,101
0.0837,5.035477E-05,1.2555,47,0.0837,1.846342E-05,1.2555,101
0.0846,-0.0001765774,1.269,47,0.0846,4.129091E-05,1.269,99
0.0855,-0.0001366293,1.2825,46,0.0855,-9.735256E-06,1.2825,100
0.0864,-2.349889E-06,1.296,47,0.0864,-2.987716E-05,1.296,101
0.0873,-0.0001295796,1.3095,46,0.0873,5.539025E-05,1.3095,98
0.0882,-7.855344E-05,1.323,45,0.0882,1.275654E-05,1.323,100
0.0891,0.0001460288,1.3365,46,0.0891,-7.351797E-05,1.3365,100
0.09,-6.076142E-05,1.35,45,0.09,5.539025E-05,1.35,100
0.0909,-3.826963E-05,1.3635,45,0.0909,1.846342E-05,1.3635,102
0.0918,5.606165E-05,1.377,47,0.0918,-6.71397E-05,1.377,106
0.0927,0.000197055,1.3905,47,0.0927,-1.208515E-05,1.3905,103
0.0936,-6.713969E-07,1.404,46,0.0936,1.510643E-05,1.404,103
0.09450001,-2.920577E-05,1.4175,46,0.09450001,-1.477073E-05,1.4175,101
0.09540001,3.390555E-05,1.431,45,0.09540001,-3.289845E-05,1.431,103
0.09630001,3.189136E-05,1.4445,45,0.09630001,-9.433127E-05,1.4445,103
0.0972,3.021286E-06,1.458,44,0.0972,1.007095E-06,1.458,103
0.0981,6.713969E-07,1.4715,46,0.0981,-8.728161E-06,1.4715,103
0.099,-4.43122E-05,1.485,44,0.099,-6.881819E-05,1.485,103
0.0999,2.316319E-05,1.4985,44,0.0999,-6.881819E-05,1.4985,104
0.1008,1.947051E-05,1.512,45,0.1008,2.349889E-06,1.512,105
0.1017,-1.510643E-05,1.5255,44,0.1017,-2.786297E-05,1.5255,104
0.1026,6.54612E-05,1.539,44,0.1026,-0.0001356222,1.539,101
0.1035,-3.692683E-06,1.5525,44,0.1035,1.846342E-05,1.5525,104
0.1044,-1.443504E-05,1.566,45,0.1044,3.558404E-05,1.566,105
0.1053,-4.061952E-05,1.5795,44,0.1053,-7.721065E-05,1.5795,100
0.1062,-0.0001262226,1.593,44,0.1062,-2.28275E-05,1.593,103
0.1071,-7.016098E-05,1.6065,44,0.1071,3.524834E-05,1.6065,100
0.108,-0.0001134661,1.62,44,0.108,-2.24918E-05,1.62,101
0.1089,-7.284657E-05,1.6335,44,0.1089,-2.719158E-05,1.6335,103
0.1098,5.841154E-05,1.647,45,0.1098,-5.975433E-05,1.647,102
0.1107,1.913481E-05,1.6605,44,0.1107,1.712062E-05,1.6605,101
0.1116,-0.0001010452,1.674,46,0.1116,1.174945E-05,1.674,104
0.1125,-3.524834E-05,1.6875,46,0.1125,-3.994812E-05,1.6875,101
0.1134,4.33051E-05,1.701,46,0.1134,-4.666209E-05,1.701,103
0.1143,-9.433127E-05,1.7145,45,0.1143,3.256275E-05,1.7145,104
0.1152,-5.404745E-05,1.728,44,0.1152,-8.392462E-06,1.728,103
0.1161,0.000169192,1.7415,46,0.1161,-9.298848E-05,1.7415,101
0.117,-3.625543E-05,1.755,45,0.117,2.014191E-05,1.755,102
0.1179,3.491264E-05,1.7685,46,0.1179,6.378271E-06,1.7685,103
0.1188,8.82887E-05,1.782,46,0.1188,-0.0001127947,1.782,102
0.1197,3.726253E-05,1.7955,43,0.1197,-1.913481E-05,1.7955,103
0.1206,-6.948959E-05,1.809,45,0.1206,4.162661E-05,1.809,104
0.1215,-3.256275E-05,1.8225,45,0.1215,1.980621E-05,1.8225,99
0.1224,-3.189136E-05,1.836,45,0.1224,3.692683E-06,1.836,104
0.1233,2.887007E-05,1.8495,45,0.1233,-5.505455E-05,1.8495,102
0.1242,9.231708E-05,1.863,45,0.1242,3.927672E-05,1.863,100
0.1251,2.047761E-05,1.8765,47,0.1251,4.599069E-05,1.8765,101
0.126,4.666209E-05,1.89,46,0.126,-4.061952E-05,1.89,99
0.1269,8.191043E-05,1.9035,45,0.1269,-6.411841E-05,1.9035,104
0.1278,-3.927672E-05,1.917,47,0.1278,4.901198E-05,1.917,102
0.1287,-1.644922E-05,1.9305,43,0.1287,1.745632E-05,1.9305,104
0.1296,0.0001221943,1.944,45,0.1296,-9.097429E-05,1.944,101
0.1305,-2.920577E-05,1.9575,45,0.1305,2.987716E-05,1.9575,105
0.1314,-0.0001806058,1.971,44,0.1314,2.618448E-05,1.971,101
0.1323,-5.941863E-05,1.9845,45,0.1323,-9.701686E-05,1.9845,100
0.1332,0.0001215228,1.998,45,0.1332,2.349889E-06,1.998,104
0.1341,-0.0001275654,2.0115,45,0.1341,2.685588E-05,2.0115,102
0.135,-8.795301E-05,2.025,46,0.135,-2.450599E-05,2.025,101
0.1359,1.242084E-05,2.0385,45,0.1359,-1.980621E-05,2.0385,99
0.1368,3.356985E-07,2.052,45,0.1368,-8.627451E-05,2.052,103
0.1377,-2.786297E-05,2.0655,44,0.1377,-7.049668E-06,2.0655,102
0.1386,-0.0001889983,2.079,45,0.1386,-3.457694E-05,2.079,101
0.1395,-0.0001265583,2.0925,45,0.1395,-7.956054E-05,2.0925,105
0.1404,-2.584878E-05,2.106,43,0.1404,-6.881819E-05,2.106,104
0.1413,-0.0001221943,2.1195,45,0.1413,2.752728E-05,2.1195,100
0.1422,-3.726253E-05,2.133,44,0.1422,1.678492E-06,2.133,103
0.1431,1.242084E-05,2.1465,43,0.1431,-5.941863E-05,2.1465,101
0.144,-5.304036E-05,2.16,42,0.144,4.800488E-05,2.16,104
0.1449,0.0001144732,2.1735,43,0.1449,3.390555E-05,2.1735,104
0.1458,9.835965E-05,2.187,43,0.1458,-9.567407E-05,2.187,100
0.1467,-6.78111E-05,2.2005,43,0.1467,-2.316319E-05,2.2005,101
0.1476,-8.191043E-05,2.214,43,0.1476,6.411841E-05,2.214,103
0.1485,-4.33051E-05,2.2275,44,0.1485,8.056763E-06,2.2275,104
0.1494,1.678492E-06,2.241,43,0.1494,-3.021286E-06,2.241,104
0.1503,8.526741E-05,2.2545,43,0.1503,-6.311131E-05,2.2545,103
0.1512,1.846342E-05,2.268,44,0.1512,4.095522E-05,2.268,100
0.1521,7.418937E-05,2.2815,44,0.1521,1.980621E-05,2.2815,102
0.153,5.807584E-05,2.295,42,0.153,-7.855344E-05,2.295,102
0.1539,0.0001500572,2.3085,43,0.1539,-8.92958E-05,2.3085,103
0.1548,-2.987716E-05,2.322,42,0.1548,1.443504E-05,2.322,105
0.1557,4.36408E-06,2.3355,43,0.1557,-3.189136E-05,2.3355,105
0.1566,0.0001567712,2.349,44,0.1566,-0.0001185016,2.349,99
0.1575,9.063859E-06,2.3625,43,0.1575,-1.007095E-06,2.3625,102
0.1584,-1.712062E-05,2.376,43,0.1584,-1.712062E-05,2.376,101
0.1593,0.0001003738,2.3895,43,0.1593,-9.198138E-05,2.3895,99
0.1602,-5.706874E-06,2.403,44,0.1602,-3.524834E-05,2.403,103
0.1611,-7.821774E-05,2.4165,43,0.1611,3.491264E-05,2.4165,104
0.162,2.24918E-05,2.43,42,0.162,1.443504E-05,2.43,107
0.1629,-4.968337E-05,2.4435,44,0.1629,-1.779202E-05,2.4435,100
0.1638,1.745632E-05,2.457,43,0.1638,-8.123904E-05,2.457,103
0.1647,4.800488E-05,2.4705,43,0.1647,2.047761E-05,2.4705,105
0.1656,-7.318227E-05,2.484,43,0.1656,2.853437E-05,2.484,103
0.1665,-6.143282E-05,2.4975,43,0.1665,-3.591974E-05,2.4975,102
0.1674,5.874724E-05,2.511,43,0.1674,-3.457694E-05,2.511,104
0.1683,-6.210422E-05,2.5245,41,0.1683,6.176852E-05,2.5245,103
0.1692,-0.0001346151,2.538,43,0.1692,2.719158E-05,2.538,102
0.1701,4.39765E-05,2.5515,42,0.1701,-8.358892E-05,2.5515,102
0.171,-2.316319E-05,2.565,42,0.171,3.558404E-05,2.565,103
0.1719,-0.0001799344,2.5785,42,0.1719,1.980621E-05,2.5785,101
0.1728,-8.627451E-05,2.592,42,0.1728,-8.795301E-05,2.592,102
0.1737,-3.927672E-05,2.6055,42,0.1737,-3.289845E-05,2.6055,103
0.1746,-0.0001483787,2.619,43,0.1746,1.376364E-05,2.619,104
0.1755,-9.030289E-05,2.6325,40,0.1755,-2.014191E-06,2.6325,101
0.1764,-2.887007E-05,2.646,42,0.1764,-1.141375E-05,2.646,104
0.1773,4.733349E-05,2.6595,42,0.1773,-8.358892E-05,2.6595,101
0.1782,1.309224E-05,2.673,44,0.1782,9.399558E-06,2.673,100
0.1791,-4.934768E-05,2.6865,43,0.1791,-1.007095E-06,2.6865,105
0.18,8.728161E-06,2.7,42,0.18,-6.076142E-05,2.7,105
0.1809,3.256275E-05,2.7135,42,0.1809,-5.841154E-05,2.7135,102
0.1818,-4.33051E-05,2.727,42,0.1818,2.887007E-05,2.727,100
0.1827,-6.378271E-06,2.7405,41,0.1827,-1.242084E-05,2.7405,106
0.1836,0.0001094377,2.754,40,0.1836,-0.0001037308,2.754,103
0.1845,3.994812E-05,2.7675,41,0.1845,3.390555E-05,2.7675,105
0.1854,0.0001164874,2.781,41,0.1854,5.337606E-05,2.781,102
0.1863,9.970245E-05,2.7945,42,0.1863,-8.123904E-05,2.7945,104
0.1872,-7.016098E-05,2.808,41,0.1872,-2.047761E-05,2.808,100
0.1881,-0.0001208515,2.8215,41,0.1881,4.53193E-05,2.8215,104
0.189,-9.063859E-06,2.835,40,0.189,1.678492E-06,2.835,103
0.1899,-4.43122E-05,2.8485,39,0.1899,-3.692683E-06,2.8485,102
0.1908,4.49836E-05,2.862,40,0.1908,-4.766919E-05,2.862,106
0.1917,6.61326E-05,2.8755,39,0.1917,3.457694E-05,2.8755,103
0.1926,-5.404745E-05,2.889,41,0.1926,3.591974E-05,2.889,105
0.1935,3.323415E-05,2.9025,40,0.1935,-1.577783E-05,2.9025,101
0.1944,9.030289E-05,2.916,41,0.1944,-4.229801E-05,2.916,103
0.1953,-0.0001000381,2.9295,40,0.1953,3.625543E-05,2.9295,103
0.1962,-8.392462E-06,2.943,40,0.1962,-1.107805E-05,2.943,101
0.1971,0.0001634852,2.9565,40,0.1971,-9.298848E-05,2.9565,103
0.198,-4.39765E-05,2.97,41,0.198,3.558404E-05,2.97,104
0.1989,8.89601E-05,2.9835,40,0.1989,1.644922E-05,2.9835,103
0.1998,0.0002353246,2.997,39,0.1998,-8.69459E-05,2.997,105
0.2007,-4.867628E-05,3.0105,40,0.2007,-5.270466E-05,3.0105,105
0.2016,-0.0001017166,3.024,39,0.2016,3.021286E-06,3.024,102
0.2025,2.1149E-05,3.0375,0,0.2025,-1.309224E-05,3.0375,0
0.2034,-1.174945E-05,3.051,0,0.2034,-1.980621E-05,3.051,0
0.2043,-1.275654E-05,3.0645,0,0.2043,-8.72816E-05,3.0645,0
0.2052,9.735256E-06,3.078,0,0.2052,3.121996E-05,3.078,0
0.2061,-6.6804E-05,3.0915,0,0.2061,2.652018E-05,3.0915,0
0.207,-8.560311E-05,3.105,0,0.207,-4.263371E-05,3.105,0
0.2079,4.599069E-05,3.1185,0,0.2079,-5.941863E-05,3.1185,0
0.2088,-9.869535E-05,3.132,0,0.2088,6.042573E-05,3.132,0
0.2097,-7.418937E-05,3.1455,0,0.2097,-7.049668E-06,3.1455,0
0.2106,8.795301E-05,3.159,0,0.2106,-0.0001399863,3.159,0
0.2115,3.054856E-05,3.1725,0,0.2115,-3.021286E-06,3.1725,0
0.2124,4.800488E-05,3.186,0,0.2124,-1.107805E-05,3.186,0
0.2133,0.0001037308,3.1995,0,0.2133,-0.0001228656,3.1995,0
0.2142,7.418937E-05,3.213,0,0.2142,-3.860533E-05,3.213,0
0.2151,-4.095522E-05,3.2265,0,0.2151,4.699779E-06,3.2265,0
0.216,-7.553216E-05,3.24,0,0.216,-3.121996E-05,3.24,0
0.2169,1.174945E-05,3.2535,0,0.2169,-2.18204E-05,3.2535,0
0.2178,3.894102E-05,3.267,0,0.2178,-8.69459E-05,3.267,0
0.2187,-3.726253E-05,3.2805,0,0.2187,0,3.2805,0
0.2196,-2.316319E-05,3.294,0,0.2196,2.18204E-05,3.294,0
0.2205,-3.356985E-07,3.3075,0,0.2205,-4.061952E-05,3.3075,0
0.2214,1.309224E-05,3.321,0,0.2214,-3.222705E-05,3.321,0
0.2223,-7.620356E-05,3.3345,0,0.2223,3.961242E-05,3.3345,0
0.2232,-3.256275E-05,3.348,0,0.2232,1.174945E-05,3.348,0
0.2241,7.821774E-05,3.3615,0,0.2241,-7.351797E-05,3.3615,0
0.225,-9.701686E-05,3.375,0,0.225,4.229801E-05,3.375,0
0.2259,-8.426032E-05,3.3885,0,0.2259,4.061952E-05,3.3885,0
0.2268,-2.752728E-05,3.402,0,0.2268,-5.539025E-05,3.402,0
0.2277,-0.000144686,3.4155,0,0.2277,3.021286E-06,3.4155,0
0.2286,-0.0001037308,3.429,0,0.2286,6.848249E-05,3.429,0
0.2295,-0.0001003738,3.4425,0,0.2295,1.040665E-05,3.4425,0
0.2304,-8.291753E-05,3.456,0,0.2304,-3.289845E-05,3.456,0
0.2313,4.800488E-05,3.4695,0,0.2313,-7.855344E-05,3.4695,0
0.2322,7.284657E-05,3.483,0,0.2322,2.349889E-05,3.483,0
0.2331,-0.0001188373,3.4965,0,0.2331,6.042573E-06,3.4965,0
0.234,-6.51255E-05,3.51,0,0.234,-7.083238E-05,3.51,0
0.2349,9.500267E-05,3.5235,0,0.2349,-8.224613E-05,3.5235,0
0.2358,-0.0001117876,3.537,0,0.2358,5.706874E-06,3.537,0
0.2367,-5.673304E-05,3.5505,0,0.2367,-5.404745E-05,3.5505,0
0.2376,0.0001550927,3.564,0,0.2376,-0.0001332723,3.564,0
0.2385,-2.450599E-05,3.5775,0,0.2385,2.014191E-05,3.5775,0
0.2394,5.136187E-05,3.591,0,0.2394,9.399558E-06,3.591,0
0.2403,0.0001641566,3.6045,0,0.2403,-8.96315E-05,3.6045,0
0.2412,-4.263371E-05,3.618,0,0.2412,-1.678492E-06,3.618,0
0.2421,-0.0001373007,3.6315,0,0.2421,2.1149E-05,3.6315,0
0.243,-4.129091E-05,3.645,0,0.243,-1.644922E-05,3.645,0
0.2439,-4.46479E-05,3.6585,0,0.2439,-1.678492E-05,3.6585,0
0.2448,3.524834E-05,3.672,0,0.2448,-7.049668E-05,3.672,0
0.2457,7.553216E-05,3.6855,0,0.2457,1.174945E-05,3.6855,0
0.2466,3.591974E-05,3.699,0,0.2466,-1.779202E-05,3.699,0
0.2475,-3.457694E-05,3.7125,0,0.2475,-7.553216E-05,3.7125,0
0.2484,2.551309E-05,3.726,0,0.2484,-6.109713E-05,3.726,0
0.2493,-4.968337E-05,3.7395,0,0.2493,3.524834E-05,3.7395,0
0.2502,-5.001907E-05,3.753,0,0.2502,-7.385367E-06,3.753,0
0.2511,5.001907E-05,3.7665,0,0.2511,-0.0001064164,3.7665,0
0.252,-1.577783E-05,3.78,0,0.252,7.721065E-06,3.78,0
0.2529,4.49836E-05,3.7935,0,0.2529,3.289845E-05,3.7935,0
0.2538,0.000144686,3.807,0,0.2538,-5.438316E-05,3.807,0
0.2547,0.000185977,3.8205,0,0.2547,-1.678492E-06,3.8205,0
0.2556,-2.719158E-05,3.834,0,0.2556,5.169757E-05,3.834,0
0.2565,-3.356985E-07,3.8475,0,0.2565,6.378271E-06,3.8475,0
0.2574,2.24918E-05,3.861,0,0.2574,-1.913481E-05,3.861,0
0.2583,6.344701E-05,3.8745,0,0.2583,-8.761731E-05,3.8745,0
0.2592,-1.342794E-06,3.888,0,0.2592,1.443504E-05,3.888,0
0.2601,-0.0001681849,3.9015,0,0.2601,1.980621E-05,3.9015,0
0.261,-5.136187E-05,3.915,0,0.261,-3.289845E-05,3.915,0
0.2619,-5.337606E-05,3.9285,0,0.2619,-2.18204E-05,3.9285,0
0.2628,-0.0001161517,3.942,0,0.2628,7.116808E-05,3.942,0
0.2637,0,3.9555,0,0.2637,1.644922E-05,3.9555,0
0.2646,4.028382E-05,3.969,0,0.2646,-9.634547E-05,3.969,0
0.2655,-5.270466E-05,3.9825,0,0.2655,2.819867E-05,3.9825,0
0.2664,1.846342E-05,3.996,0,0.2664,2.450599E-05,3.996,0
0.2673,4.33051E-05,4.0095,0,0.2673,-9.332418E-05,4.0095,0
0.2682,0.0001121233,4.023,0,0.2682,-1.779202E-05,4.023,0
0.2691,-2.987716E-05,4.0365,0,0.2691,6.74754E-05,4.0365,0
0.27,-5.807584E-05,4.05,0,0.27,8.728161E-06,4.05,0
0.2709,-3.189136E-05,4.0635,0,0.2709,-2.349889E-06,4.0635,0
0.2718,5.270466E-05,4.077,0,0.2718,-4.934768E-05,4.077,0
0.2727,8.358892E-05,4.0905,0,0.2727,2.1149E-05,4.0905,0
0.2736,-0.0001054093,4.104,0,0.2736,-1.678492E-05,4.104,0
0.2745,-2.316319E-05,4.1175,0,0.2745,-8.96315E-05,4.1175,0
0.2754,8.560311E-05,4.131,0,0.2754,-8.426032E-05,4.131,0
0.2763,-5.035477E-05,4.1445,0,0.2763,4.36408E-06,4.1445,0
0.2772,-6.143282E-05,4.158,0,0.2772,-7.049668E-06,4.158,0
0.2781,9.198138E-05,4.1715,0,0.2781,-0.0001205158,4.1715,0
0.279,-4.867628E-05,4.185,0,0.279,1.477073E-05,4.185,0
0.2799,-0.0001215228,4.1985,0,0.2799,1.846342E-05,4.1985,0
0.2808,9.735256E-06,4.212,0,0.2808,-9.701686E-05,4.212,0
0.2817,-5.069047E-05,4.2255,0,0.2817,-2.316319E-05,4.2255,0
0.2826,-0.0001440146,4.239,0,0.2826,2.517739E-05,4.239,0
0.2835,-8.96315E-05,4.2525,0,0.2835,-1.040665E-05,4.2525,0
0.2844,-3.356985E-07,4.266,0,0.2844,-2.1149E-05,4.266,0
0.2853,2.21561E-05,4.2795,0,0.2853,-9.164568E-05,4.2795,0
0.2862,3.021286E-06,4.293,0,0.2862,-1.678492E-06,4.293,0
0.2871,-5.639734E-05,4.3065,0,0.2871,-1.779202E-05,4.3065,0
0.288,-6.74754E-05,4.32,0,0.288,-7.956054E-05,4.32,0
0.2889,3.659113E-05,4.3335,0,0.2889,-4.39765E-05,4.3335,0
0.2898,1.678492E-06,4.347,0,0.2898,5.069047E-05,4.347,0
0.2907,-8.157473E-05,4.3605,0,0.2907,7.721065E-06,4.3605,0
0.2916,7.653925E-05,4.374,0,0.2916,-9.970245E-05,4.374,0
0.2925,6.277562E-05,4.3875,0,0.2925,2.1149E-05,4.3875,0
0.2934,6.881819E-05,4.401,0,0.2934,2.920577E-05,4.401,0
0.2943,0.0001393149,4.4145,0,0.2943,-8.92958E-05,4.4145,0
0.2952,0.0001238727,4.428,0,0.2952,-1.141375E-05,4.428,0
0.2961,5.035477E-06,4.4415,0,0.2961,6.478981E-05,4.4415,0
0.297,-5.404745E-05,4.455,0,0.297,-7.049668E-06,4.455,0
0.2979,4.36408E-06,4.4685,0,0.2979,-5.035477E-06,4.4685,0
0.2988,0.0001205158,4.482,0,0.2988,-6.61326E-05,4.482,0
0.2997,-3.961242E-05,4.4955,0,0.2997,7.049668E-06,4.4955,0
0.3006,-0.0001873197,4.509,0,0.3006,1.242084E-05,4.509,0
0.3015,-4.867628E-05,4.5225,0,0.3015,-3.591974E-05,4.5225,0
0.3024,-6.713969E-06,4.536,0,0.3024,-6.210422E-05,4.536,0
0.3033,-0.0001131304,4.5495,0,0.3033,3.457694E-05,4.5495,0
0.3042,-6.344701E-05,4.563,0,0.3042,1.208515E-05,4.563,0
0.3051,4.53193E-05,4.5765,0,0.3051,-7.284657E-05,4.5765,0
0.306,-3.524834E-05,4.59,0,0.306,4.129091E-05,4.59,0
0.3069,-2.316319E-05,4.6035,0,0.3069,4.263371E-05,4.6035,0
0.3078,6.210422E-05,4.617,0,0.3078,-6.478981E-05,4.617,0
0.3087,-5.001907E-05,4.6305,0,0.3087,-5.941863E-05,4.6305,0
0.3096,-0.0001094377,4.644,0,0.3096,-3.021286E-06,4.644,0
0.3105,1.409934E-05,4.6575,0,0.3105,-2.819867E-05,4.6575,0
0.3114,-3.021286E-06,4.671,0,0.3114,-4.733349E-05,4.671,0
0.3123,2.920577E-05,4.6845,0,0.3123,-0.0001185016,4.6845,0
0.3132,3.826963E-05,4.698,0,0.3132,-1.846342E-05,4.698,0
0.3141,-6.64683E-05,4.7115,0,0.3141,-1.174945E-05,4.7115,0
0.315,-3.860533E-05,4.725,0,0.315,-5.471885E-05,4.725,0
0.3159,9.500267E-05,4.7385,0,0.3159,-5.404745E-05,4.7385,0
0.3168,-0.0001104448,4.752,0,0.3168,7.351797E-05,4.752,0
0.3177,-7.284657E-05,4.7655,0,0.3177,-2.349889E-06,4.7655,0
0.3186,8.023193E-05,4.779,0,0.3186,-0.0001017166,4.779,0
0.3195,3.457694E-05,4.7925,0,0.3195,3.289845E-05,4.7925,0
0.3204,4.39765E-05,4.806,0,0.3204,3.088426E-05,4.806,0
0.3213,0.0001285725,4.8195,0,0.3213,-8.89601E-05,4.8195,0
0.3222,8.426032E-05,4.833,0,0.3222,-1.443504E-05,4.833,0
0.3231,-5.606165E-05,4.8465,0,0.3231,6.478981E-05,4.8465,0
0.324,1.007095E-06,4.86,0,0.324,1.376364E-05,4.86,0
0.3249,4.39765E-05,4.8735,0,0.3249,8.728161E-06,4.8735,0
0.3258,-1.141375E-05,4.887,0,0.3258,-5.035477E-05,4.887,0
0.3267,-2.584878E-05,4.9005,0,0.3267,2.819867E-05,4.9005,0
0.3276,-1.577783E-05,4.914,0,0.3276,6.378271E-06,4.914,0
0.3285,-5.001907E-05,4.9275,0,0.3285,-4.867628E-05,4.9275,0
0.3294,2.752728E-05,4.941,0,0.3294,-5.572595E-05,4.941,0
0.3303,-1.913481E-05,4.9545,0,0.3303,2.383459E-05,4.9545,0
0.3312,-5.270466E-05,4.968,0,0.3312,-1.544213E-05,4.968,0
0.3321,3.390555E-05,4.9815,0,0.3321,-0.0001047379,4.9815,0
0.333,-3.189136E-05,4.995,0,0.333,2.1149E-05,4.995,0
0.3339,-5.001907E-05,5.0085,0,0.3339,1.980621E-05,5.0085,0
0.3348,-2.349889E-05,5.022,0,0.3348,-8.224613E-05,5.022,0
0.3357,-3.356985E-07,5.0355,0,0.3357,-1.443504E-05,5.0355,0
0.3366,-3.994812E-05,5.049,0,0.3366,6.009003E-05,5.049,0
0.3375,-6.411841E-05,5.0625,0,0.3375,-4.36408E-06,5.0625,0
0.3384,-1.443504E-05,5.076,0,0.3384,-2.652018E-05,5.076,0
0.3393,4.934768E-05,5.0895,0,0.3393,-7.687495E-05,5.0895,0
0.3402,1.678492E-06,5.103,0,0.3402,1.007095E-05,5.103,0
0.3411,-0.0001748989,5.1165,0,0.3411,-3.692683E-06,5.1165,0
0.342,-0.0001017166,5.13,0,0.342,-5.404745E-05,5.13,0
0.3429,4.229801E-05,5.1435,0,0.3429,-6.143282E-05,5.1435,0
0.3438,-0.0001420005,5.157,0,0.3438,4.061952E-05,5.157,0
0.3447,-8.560311E-05,5.1705,0,0.3447,-2.014191E-06,5.1705,0
0.3456,0.0001070878,5.184,0,0.3456,-0.000105745,5.184,0
0.3465,-6.881819E-05,5.1975,0,0.3465,2.652018E-05,5.1975,0
0.3474,6.6804E-05,5.211,0,0.3474,6.109713E-05,5.211,0
0.3483,0.0001242084,5.2245,0,0.3483,-5.035477E-05,5.2245,0
0.3492,-5.774014E-05,5.238,0,0.3492,-7.721065E-06,5.238,0
0.3501,-6.411841E-05,5.2515,0,0.3501,4.39765E-05,5.2515,0
0.351,-1.040665E-05,5.265,0,0.351,2.584878E-05,5.265,0
0.3519,-8.560311E-05,5.2785,0,0.3519,4.028382E-06,5.2785,0
0.3528,7.049668E-06,5.292,0,0.3528,-3.692683E-05,5.292,0
0.3537,3.994812E-05,5.3055,0,0.3537,4.46479E-05,5.3055,0
0.3546,0.0001070878,5.319,0,0.3546,-7.049668E-06,5.319,0
0.3555,4.733349E-05,5.3325,0,0.3555,-5.841154E-05,5.3325,0
0.3564,0.0001211871,5.346,0,0.3564,-8.090334E-05,5.346,0
0.3573,3.356985E-06,5.3595,0,0.3573,7.049668E-06,5.3595,0
0.3582,3.692683E-06,5.373,0,0.3582,-5.035477E-06,5.373,0
0.3591,0.0001715419,5.3865,0,0.3591,-0.0001050736,5.3865,0
0.36,3.021286E-05,5.4,0,0.36,1.040665E-05,5.4,0
0.3609,-0.0001054093,5.4135,0,0.3609,3.121996E-05,5.4135,0
0.3618,3.021286E-06,5.427,0,0.3618,-9.903105E-05,5.427,0
0.3627,-4.599069E-05,5.4405,0,0.3627,-1.846342E-05,5.4405,0
0.3636,-0.0002054475,5.454,0,0.3636,6.009003E-05,5.454,0
0.3645,-9.634547E-05,5.4675,0,0.3645,1.443504E-05,5.4675,0
0.3654,3.625543E-05,5.481,0,0.3654,-2.1149E-05,5.481,0
0.3663,2.551309E-05,5.4945,0,0.3663,-8.224613E-05,5.4945,0
0.3672,1.174945E-05,5.508,0,0.3672,1.846342E-05,5.508,0
0.3681,-2.551309E-05,5.5215,0,0.3681,-1.342794E-06,5.5215,0
0.369,-3.256275E-05,5.535,0,0.369,-6.57969E-05,5.535,0
0.3699,-5.706874E-06,5.5485,0,0.3699,-4.599069E-05,5.5485,0
0.3708,-8.661021E-05,5.562,0,0.3708,2.786297E-05,5.562,0
0.3717,-3.021286E-05,5.5755,0,0.3717,-5.706874E-06,5.5755,0
0.3726,5.203327E-05,5.589,0,0.3726,-0.0001003738,5.589,0
0.3735,3.021286E-06,5.6025,0,0.3735,2.1149E-05,5.6025,0
0.3744,9.097429E-05,5.616,0,0.3744,2.047761E-05,5.616,0
0.3753,0.000154757,5.6295,0,0.3753,-9.903105E-05,5.6295,0
0.3762,0.000102388,5.643,0,0.3762,-5.841154E-05,5.643,0
0.3771,2.047761E-05,5.6565,0,0.3771,2.920577E-05,5.6565,0
0.378,1.544213E-05,5.67,0,0.378,-1.040665E-05,5.67,0
0.3789,-3.189136E-05,5.6835,0,0.3789,-2.081331E-05,5.6835,0
0.3798,4.263371E-05,5.697,0,0.3798,-7.519646E-05,5.697,0
0.3807,4.36408E-06,5.7105,0,0.3807,1.040665E-05,5.7105,0
0.3816,-8.82887E-05,5.724,0,0.3816,3.524834E-05,5.724,0
0.3825,9.063859E-06,5.7375,0,0.3825,-2.987716E-05,5.7375,0
0.3834,4.800488E-05,5.751,0,0.3834,-6.109713E-05,5.751,0
0.3843,-7.150377E-05,5.7645,0,0.3843,4.129091E-05,5.7645,0
0.3852,2.316319E-05,5.778,0,0.3852,6.378271E-06,5.778,0
0.3861,8.560311E-05,5.7915,0,0.3861,-0.000102388,5.7915,0
0.387,-7.016098E-05,5.805,0,0.387,1.644922E-05,5.805,0
0.3879,-0.0001487144,5.8185,0,0.3879,6.378271E-06,5.8185,0
0.3888,-0.000102388,5.832,0,0.3888,-6.915389E-05,5.832,0
0.3897,-4.968337E-05,5.8455,0,0.3897,-3.323415E-05,5.8455,0
0.3906,-0.0001497215,5.859,0,0.3906,4.800488E-05,5.859,0
0.3915,-2.719158E-05,5.8725,0,0.3915,-1.107805E-05,5.8725,0
0.3924,-5.539025E-05,5.886,0,0.3924,-4.599069E-05,5.886,0
0.3933,3.121996E-05,5.8995,0,0.3933,-8.92958E-05,5.8995,0
0.3942,0.0001312581,5.913,0,0.3942,-4.028382E-06,5.913,0
0.3951,6.378271E-05,5.9265,0,0.3951,1.275654E-05,5.9265,0
0.396,1.577783E-05,5.94,0,0.396,-5.404745E-05,5.94,0
0.3969,8.795301E-05,5.9535,0,0.3969,-7.150377E-05,5.9535,0
0.3978,-3.457694E-05,5.967,0,0.3978,1.007095E-05,5.967,0
0.3987,-8.426032E-05,5.9805,0,0.3987,-9.063859E-06,5.9805,0
0.3996,9.903105E-05,5.994,0,0.3996,-0.0001003738,5.994,0
0.4005,-4.766919E-05,6.0075,0,0.4005,4.29694E-05,6.0075,0
0.4014,-7.687495E-05,6.021,0,0.4014,4.229801E-05,6.021,0
0.4023,5.841154E-05,6.0345,0,0.4023,-5.941863E-05,6.0345,0
0.4032,0.0001265583,6.048,0,0.4032,-3.659113E-05,6.048,0
0.4041,-6.948959E-05,6.0615,0,0.4041,3.994812E-05,6.0615,0
0.405,-9.701686E-05,6.075,0,0.405,-1.443504E-05,6.075,0
0.4059,-3.356985E-06,6.0885,0,0.4059,-3.189136E-05,6.0885,0
0.4068,3.692683E-05,6.102,0,0.4068,-8.627451E-05,6.102,0
0.4077,-6.74754E-05,6.1155,0,0.4077,6.378271E-06,6.1155,0
0.4086,-0.0001866484,6.129,0,0.4086,4.834058E-05,6.129,0
0.4095,-9.634547E-05,6.1425,0,0.4095,-3.659113E-05,6.1425,0
0.4104,1.040665E-05,6.156,0,0.4104,-5.673304E-05,6.156,0
0.4113,-2.21561E-05,6.1695,0,0.4113,4.632639E-05,6.1695,0
0.4122,-5.404745E-05,6.183,0,0.4122,-1.443504E-05,6.183,0
0.4131,6.143282E-05,6.1965,0,0.4131,-0.000102388,6.1965,0
0.414,-2.517739E-05,6.21,0,0.414,2.349889E-06,6.21,0
0.4149,7.083238E-05,6.2235,0,0.4149,6.713969E-07,6.2235,0
0.4158,0.0001594568,6.237,0,0.4158,-6.915389E-05,6.237,0
0.4167,5.169757E-05,6.2505,0,0.4167,-8.728161E-06,6.2505,0
0.4176,-3.256275E-05,6.264,0,0.4176,2.786297E-05,6.264,0
0.4185,-3.659113E-05,6.2775,0,0.4185,8.392462E-06,6.2775,0
0.4194,-3.356985E-06,6.291,0,0.4194,-1.141375E-05,6.291,0
0.4203,0.0001413291,6.3045,0,0.4203,-7.284657E-05,6.3045,0
0.4212,9.735256E-06,6.318,0,0.4212,4.263371E-05,6.318,0
0.4221,-7.586786E-05,6.3315,0,0.4221,1.443504E-05,6.3315,0
0.423,5.136187E-05,6.345,0,0.423,-3.021286E-05,6.345,0
0.4239,4.800488E-05,6.3585,0,0.4239,-5.539025E-05,6.3585,0
0.4248,-0.0001359579,6.372,0,0.4248,4.53193E-05,6.372,0
0.4257,-7.553216E-05,6.3855,0,0.4257,-1.812772E-05,6.3855,0
0.4266,0.0001252155,6.399,0,0.4266,-9.164568E-05,6.399,0
0.4275,-9.063859E-05,6.4125,0,0.4275,4.263371E-05,6.4125,0
0.4284,-0.0001460288,6.426,0,0.4284,1.040665E-05,6.426,0
0.4293,2.752728E-05,6.4395,0,0.4293,-0.000119173,6.4395,0
0.4302,7.754635E-05,6.453,0,0.4302,-5.001907E-05,6.453,0
0.4311,-9.835965E-05,6.4665,0,0.4311,-3.692683E-06,6.4665,0
0.432,-1.107805E-05,6.48,0,0.432,-5.203327E-05,6.48,0
0.4329,-1.678492E-05,6.4935,0,0.4329,-4.061952E-05,6.4935,0
0.4338,-6.042573E-06,6.507,0,0.4338,-0.0001101091,6.507,0
0.4347,8.392462E-06,6.5205,0,0.4347,-5.035477E-06,6.5205,0
0.4356,-9.332418E-05,6.534,0,0.4356,6.713969E-07,6.534,0
0.4365,-2.786297E-05,6.5475,0,0.4365,-7.284657E-05,6.5475,0
0.4374,3.726253E-05,6.561,0,0.4374,-6.411841E-05,6.561,0
0.4383,1.577783E-05,6.5745,0,0.4383,2.584878E-05,6.5745,0
0.4392,-6.344701E-05,6.588,0,0.4392,-3.256275E-05,6.588,0
0.4401,6.915389E-05,6.6015,0,0.4401,-0.0001185016,6.6015,0
0.441,1.376364E-05,6.615,0,0.441,2.1149E-05,6.615,0
0.4419,-6.61326E-05,6.6285,0,0.4419,4.934768E-05,6.6285,0
0.4428,-1.409934E-05,6.642,0,0.4428,-3.424125E-05,6.642,0
0.4437,-9.567407E-05,6.6555,0,0.4437,-1.040665E-05,6.6555,0
0.4446,-0.0001621424,6.669,0,0.4446,5.001907E-05,6.669,0
0.4455,-8.191043E-05,6.6825,0,0.4455,4.36408E-06,6.6825,0
0.4464,3.625543E-05,6.696,0,0.4464,-2.450599E-05,6.696,0
0.4473,7.721065E-06,6.7095,0,0.4473,-6.344701E-05,6.7095,0
0.4482,3.994812E-05,6.723,0,0.4482,4.061952E-05,6.723,0
0.4491,7.385367E-05,6.7365,0,0.4491,2.584878E-05,6.7365,0
0.45,9.231708E-05,6.75,0,0.45,-3.625543E-05,6.75,0
0.4509,0.000109102,6.7635,0,0.4509,-3.860533E-05,6.7635,0
0.4518,-5.236896E-05,6.777,0,0.4518,6.54612E-05,6.777,0
0.4527,-9.735256E-06,6.7905,0,0.4527,4.36408E-06,6.7905,0
0.4536,9.063859E-05,6.804,0,0.4536,-9.198138E-05,6.804,0
0.4545,-1.007095E-05,6.8175,0,0.4545,3.826963E-05,6.8175,0
0.4554,2.584878E-05,6.831,0,0.4554,2.920577E-05,6.831,0
0.4563,4.800488E-05,6.8445,0,0.4563,-7.049668E-05,6.8445,0
0.4572,8.258183E-05,6.858,0,0.4572,-5.706874E-06,6.858,0
0.4581,4.36408E-05,6.8715,0,0.4581,3.021286E-05,6.8715,0
0.459,-1.779202E-05,6.885,0,0.459,1.812772E-05,6.885,0
0.4599,-2.786297E-05,6.8985,0,0.4599,4.699779E-06,6.8985,0
0.4608,6.344701E-05,6.912,0,0.4608,-5.438316E-05,6.912,0
0.4617,7.049668E-06,6.9255,0,0.4617,2.652018E-05,6.9255,0
0.4626,-0.0002601663,6.939,0,0.4626,9.735256E-06,6.939,0
0.4635,-0.000126894,6.9525,0,0.4635,-2.24918E-05,6.9525,0
0.4644,5.471885E-05,6.966,0,0.4644,-5.069047E-05,6.966,0
0.4653,-0.0001433432,6.9795,0,0.4653,2.618448E-05,6.9795,0
0.4662,-8.090334E-05,6.993,0,0.4662,-1.007095E-05,6.993,0
0.4671,0.0001326009,7.0065,0,0.4671,-9.567407E-05,7.0065,0
0.468,-3.390555E-05,7.02,0,0.468,2.047761E-05,7.02,0
0.4689,-2.853437E-05,7.0335,0,0.4689,2.719158E-05,7.0335,0
0.4698,3.356985E-05,7.047,0,0.4698,-8.69459E-05,7.047,0
0.4707,-4.36408E-06,7.0605,0,0.4707,-3.390555E-05,7.0605,0
0.4716,-9.936675E-05,7.074,0,0.4716,3.524834E-05,7.074,0
0.4725,-4.867628E-05,7.0875,0,0.4725,-1.342794E-05,7.0875,0
0.4734,5.941863E-05,7.101,0,0.4734,-5.404745E-05,7.101,0
0.4743,1.846342E-05,7.1145,0,0.4743,-0.0001104448,7.1145,0
0.4752,5.304036E-05,7.128,0,0.4752,-9.735256E-06,7.128,0
0.4761,7.721065E-06,7.1415,0,0.4761,-3.894102E-05,7.1415,0
0.477,-2.316319E-05,7.155,0,0.477,-8.96315E-05,7.155,0
0.4779,6.411841E-05,7.1685,0,0.4779,-5.270466E-05,7.1685,0
0.4788,-2.484169E-05,7.182,0,0.4788,3.625543E-05,7.182,0
0.4797,-6.64683E-05,7.1955,0,0.4797,-1.913481E-05,7.1955,0
0.4806,8.023193E-05,7.209,0,0.4806,-9.030289E-05,7.209,0
0.4815,1.947051E-05,7.2225,0,0.4815,2.18204E-05,7.2225,0
0.4824,1.812772E-05,7.236,0,0.4824,4.565499E-05,7.236,0
0.4833,0.0001305867,7.2495,0,0.4833,-3.323415E-05,7.2495,0
0.4842,8.89601E-05,7.263,0,0.4842,2.383459E-05,7.263,0
0.4851,4.196231E-05,7.2765,0,0.4851,5.975433E-05,7.2765,0
0.486,-3.021286E-06,7.29,0,0.486,-3.155566E-05,7.29,0
0.4869,1.174945E-05,7.3035,0,0.4869,-4.934768E-05,7.3035,0
0.4878,7.351797E-05,7.317,0,0.4878,-9.634547E-05,7.317,0
0.4887,-1.107805E-05,7.3305,0,0.4887,-3.155566E-05,7.3305,0
0.4896,-8.426032E-05,7.344,0,0.4896,-4.33051E-05,7.344,0
0.4905,2.081331E-05,7.3575,0,0.4905,-5.673304E-05,7.3575,0
0.4914,-3.356985E-07,7.371,0,0.4914,-4.196231E-05,7.371,0
0.4923,-9.701686E-05,7.3845,0,0.4923,5.673304E-05,7.3845,0
0.4932,1.510643E-05,7.398,0,0.4932,-1.007095E-06,7.398,0
0.4941,5.740444E-05,7.4115,0,0.4941,-0.0001070878,7.4115,0
0.495,-6.009003E-05,7.425,0,0.495,3.491264E-05,7.425,0
0.4959,-8.795301E-05,7.4385,0,0.4959,-8.056763E-06,7.4385,0
0.4968,-5.169757E-05,7.452,0,0.4968,-9.164568E-05,7.452,0
0.4977,2.819867E-05,7.4655,0,0.4977,-1.007095E-05,7.4655,0
0.4986,-8.258183E-05,7.479,0,0.4986,3.424125E-05,7.479,0
0.4995,-3.793393E-05,7.4925,0,0.4995,-1.007095E-06,7.4925,0
0.5004,-8.627451E-05,7.506,0,0.5004,-8.056763E-06,7.506,0
0.5013,4.095522E-05,7.5195,0,0.5013,-5.001907E-05,7.5195,0
0.5022,5.404745E-05,7.533,0,0.5022,1.712062E-05,7.533,0
0.5031,-7.351797E-05,7.5465,0,0.5031,7.721065E-06,7.5465,0
0.504,3.961242E-05,7.56,0,0.504,-5.270466E-05,7.56,0
0.5049,0.0001094377,7.5735,0,0.5049,-7.486076E-05,7.5735,0
0.5058,-6.210422E-05,7.587,0,0.5058,-1.980621E-05,7.587,0
0.5067,-7.754635E-05,7.6005,0,0.5067,-6.311131E-05,7.6005,0
0.5076,4.800488E-05,7.614,0,0.5076,-0.0001379721,7.614,0
0.5085,-3.457694E-05,7.6275,0,0.5085,5.740444E-05,7.6275,0
0.5094,-0.0001426719,7.641,0,0.5094,6.109713E-05,7.641,0
0.5103,2.047761E-05,7.6545,0,0.5103,-3.021286E-05,7.6545,0
0.5112,7.486076E-05,7.668,0,0.5112,0.0001003738,7.668,0
0.5121,-4.263371E-05,7.6815,0,0.5121,0.000161471,7.6815,0
0.513,-1.242084E-05,7.695,0,0.513,9.735256E-05,7.695,0
0.5139,1.678492E-06,7.7085,0,0.5139,6.881819E-05,7.7085,0
0.5148,5.337606E-05,7.722,0,0.5148,-2.853437E-05,7.722,0
0.5157,3.457694E-05,7.7355,0,0.5157,3.692683E-05,7.7355,0
0.5166,-4.968337E-05,7.749,0,0.5166,1.174945E-05,7.749,0
0.5175,-5.337606E-05,7.7625,0,0.5175,-6.74754E-05,7.7625,0
0.5184,2.24918E-05,7.776,0,0.5184,-3.961242E-05,7.776,0
0.5193,-7.217517E-05,7.7895,0,0.5193,7.083238E-05,7.7895,0
0.5202,-5.035477E-05,7.803,0,0.5202,-2.819867E-05,7.803,0
0.5211,7.486076E-05,7.8165,0,0.5211,-0.0001456931,7.8165,0
0.522,4.028382E-06,7.83,0,0.522,-6.243992E-05,7.83,0
0.5229,-0.0001712062,7.8435,0,0.5229,-7.687495E-05,7.8435,0
0.5238,-0.000109102,7.857,0,0.5238,-0.0001873197,7.857,0
0.5247,0.0001097734,7.8705,0,0.5247,-0.0001342794,7.8705,0
0.5256,-4.867628E-05,7.884,0,0.5256,-8.82887E-05,7.884,0
0.5265,-9.265278E-05,7.8975,0,0.5265,-7.049668E-05,7.8975,0
0.5274,-2.584878E-05,7.911,0,0.5274,-2.920577E-05,7.911,0
0.5283,6.57969E-05,7.9245,0,0.5283,1.779202E-05,7.9245,0
0.5292,-5.572595E-05,7.938,0,0.5292,0.0001698634,7.938,0
0.5301,-0.0002151827,7.9515,0,0.5301,0.0001117876,7.9515,0
0.531,-0.0001154803,7.965,0,0.531,3.692683E-06,7.965,0
0.5319,-1.510643E-05,7.9785,0,0.5319,-3.860533E-05,7.9785,0
0.5328,-0.0001255512,7.992,0,0.5328,-1.477073E-05,7.992,0
0.5337,-7.183947E-05,8.0055,0,0.5337,-9.634547E-05,8.0055,0
0.5346,6.411841E-05,8.019,0,0.5346,-0.0001500572,8.019,0
0.5355,-0.0001107805,8.0325,0,0.5355,3.054856E-05,8.0325,0
0.5364,-2.987716E-05,8.046,0,0.5364,-1.174945E-05,8.046,0
0.5373,9.970245E-05,8.0595,0,0.5373,-0.0001265583,8.0595,0
0.5382,0.0001587854,8.073,0,0.5382,-5.304036E-05,8.073,0
0.5391,6.915389E-05,8.0865,0,0.5391,3.289845E-05,8.0865,0
0.54,6.311131E-05,8.1,0,0.54,3.759823E-05,8.1,0
0.5409,4.934768E-05,8.1135,0,0.5409,0.000119173,8.1135,0
0.5418,0.0001433432,8.127,0,0.5418,6.64683E-05,8.127,0
0.5427,8.526741E-05,8.1405,0,0.5427,0.000172549,8.1405,0
0.5436,-8.157473E-05,8.154,0,0.5436,9.735256E-05,8.154,0
0.5445,-2.18204E-05,8.1675,0,0.5445,1.913481E-05,8.1675,0
0.5454,3.524834E-05,8.181,0,0.5454,7.721065E-06,8.181,0
0.5463,-5.572595E-05,8.1945,0,0.5463,9.701686E-05,8.1945,0
0.5472,-0.0001003738,8.208,0,0.5472,8.023193E-05,8.208,0
0.5481,8.69459E-05,8.2215,0,0.5481,7.721065E-06,8.2215,0
0.549,1.577783E-05,8.235,0,0.549,0.0001366293,8.235,0
0.5499,-1.611353E-05,8.2485,0,0.5499,4.46479E-05,8.2485,0
0.5508,0.0001242084,8.262,0,0.5508,-0.0001309224,8.262,0
0.5517,4.43122E-05,8.2755,0,0.5517,-0.0001003738,8.2755,0
0.5526,-0.0001319295,8.289,0,0.5526,-3.793393E-05,8.289,0
0.5535,-1.947051E-05,8.3025,0,0.5535,-7.016098E-05,8.3025,0
0.5544,5.505455E-05,8.316,0,0.5544,-9.835965E-05,8.316,0
0.5553,-6.713969E-07,8.3295,0,0.5553,-0.0001708705,8.3295,0
0.5562,1.913481E-05,8.343,0,0.5562,-7.888914E-05,8.343,0
0.5571,-5.169757E-05,8.3565,0,0.5571,-8.459602E-05,8.3565,0
0.558,-2.28275E-05,8.37,0,0.558,-0.0001601282,8.37,0
0.5589,0.0001728847,8.3835,0,0.5589,-0.0002292821,8.3835,0
0.5598,0.0001604639,8.397,0,0.5598,-0.0001185016,8.397,0
0.5607,7.083238E-05,8.4105,0,0.5607,-0.0001332723,8.4105,0
0.5616,0.0001138018,8.424,0,0.5616,-0.0001604639,8.424,0
0.5625,1.947051E-05,8.4375,0,0.5625,-1.007095E-06,8.4375,0
0.5634,2.081331E-05,8.451,0,0.5634,-1.443504E-05,8.451,0
0.5643,1.644922E-05,8.4645,0,0.5643,-0.0001279011,8.4645,0
0.5652,0.0001654994,8.478,0,0.5652,-1.846342E-05,8.478,0
0.5661,4.36408E-06,8.4915,0,0.5661,5.975433E-05,8.4915,0
0.567,4.46479E-05,8.505,0,0.567,0.0001379721,8.505,0
0.5679,3.591974E-05,8.5185,0,0.5679,0.0001285725,8.5185,0
0.5688,0.0001138018,8.532,0,0.5688,-4.129091E-05,8.532,0
0.5697,3.726253E-05,8.5455,0,0.5697,6.344701E-05,8.5455,0
0.5706,-5.438316E-05,8.559,0,0.5706,6.143282E-05,8.559,0
0.5715,-6.378271E-06,8.5725,0,0.5715,-3.155566E-05,8.5725,0
0.5724,1.712062E-05,8.586,0,0.5724,-6.009003E-05,8.586,0
0.5733,-0.000126894,8.5995,0,0.5733,7.620356E-05,8.5995,0
0.5742,-2.014191E-05,8.613,0,0.5742,1.376364E-05,8.613,0
0.5751,9.869535E-05,8.6265,0,0.5751,-0.0001591211,8.6265,0
0.576,-4.263371E-05,8.64,0,0.576,-9.970245E-05,8.64,0
0.5769,-5.337606E-05,8.6535,0,0.5769,-9.433127E-05,8.6535,0
0.5778,-3.894102E-05,8.667,0,0.5778,-0.0002581521,8.667,0
0.5787,-6.478981E-05,8.6805,0,0.5787,-0.0001698634,8.6805,0
0.5796,-0.0001641566,8.694,0,0.5796,-4.162661E-05,8.694,0
0.5805,-0.0001258869,8.7075,0,0.5805,-8.325322E-05,8.7075,0
0.5814,-7.620356E-05,8.721,0,0.5814,-0.0001225299,8.721,0
0.5823,-0.0001070878,8.7345,0,0.5823,-0.0001836271,8.7345,0
0.5832,-0.0001332723,8.748,0,0.5832,-0.000119173,8.748,0
0.5841,-0.0001876554,8.7615,0,0.5841,-6.814679E-05,8.7615,0
0.585,-4.061952E-05,8.775,0,0.585,5.035477E-06,8.775,0
0.5859,9.970245E-05,8.7885,0,0.5859,0.0001467002,8.7885,0
0.5868,-0.0001671778,8.802,0,0.5868,0.0002789654,8.802,0
0.5877,-0.0001641566,8.8155,0,0.5877,0.0001876554,8.8155,0
0.5886,7.855344E-05,8.829,0,0.5886,0.0001003738,8.829,0
0.5895,-5.404745E-05,8.8425,0,0.5895,0.000274937,8.8425,0
0.5904,-0.000148043,8.856,0,0.5904,0.0002870222,8.856,0
0.5913,1.712062E-05,8.8695,0,0.5913,3.659113E-05,8.8695,0
0.5922,0.0001262226,8.883,0,0.5922,-2.349889E-05,8.883,0
0.5931,-5.975433E-05,8.8965,0,0.5931,3.726253E-05,8.8965,0
0.594,-1.409934E-05,8.91,0,0.594,-0.000112459,8.91,0
0.5949,6.143282E-05,8.9235,0,0.5949,-0.0002195468,8.9235,0
0.5958,-2.18204E-05,8.937,0,0.5958,-0.0001685206,8.937,0
0.5967,-0.0001138018,8.9505,0,0.5967,-2.450599E-05,8.9505,0
0.5976,-0.0001339437,8.964,0,0.5976,4.699779E-06,8.964,0
0.5985,-7.888914E-05,8.9775,0,0.5985,-4.36408E-05,8.9775,0
0.5994,-7.788205E-05,8.991,0,0.5994,-0.0001151446,8.991,0
0.6003,-0.0001738918,9.0045,0,0.6003,-0.0001211871,9.0045,0
0.6012,-0.0001842985,9.018,0,0.6012,-0.0002544594,9.018,0
0.6021,-6.042573E-06,9.0315,0,0.6021,-0.000228275,9.0315,0
0.603,-8.761731E-05,9.045,0,0.603,5.069047E-05,9.045,0
0.6039,-7.418937E-05,9.0585,0,0.6039,0.0002400244,9.0585,0
0.6048,-0.0001312581,9.072001,0,0.6048,0.0001641566,9.072001,0
0.6057,-0.0001957122,9.0855,0,0.6057,0.0002061189,9.0855,0
0.6066,-0.0002128328,9.099,0,0.6066,0.0003528191,9.099,0
0.6075,-0.0001534142,9.1125,0,0.6075,0.0002809796,9.1125,0
0.6084,-0.0001775845,9.126,0,0.6084,0.0001983978,9.126,0
0.6093,-4.46479E-05,9.1395,0,0.6093,6.143282E-05,9.1395,0
0.6102,-3.692683E-06,9.153,0,0.6102,5.270466E-05,9.153,0
0.6111,3.726253E-05,9.1665,0,0.6111,-0.0001514,9.1665,0
0.612,0.0001510643,9.18,0,0.612,-0.0004508431,9.18,0
0.6129,0.0001688563,9.1935,0,0.6129,-0.0004337225,9.1935,0
0.6138,2.920577E-05,9.207,0,0.6138,-0.0002208896,9.207,0
0.6147,-5.975433E-05,9.2205,0,0.6147,-0.0002135042,9.2205,0
0.6156,9.970245E-05,9.234,0,0.6156,-0.0001675135,9.234,0
0.6165,-1.275654E-05,9.2475,0,0.6165,0.0001520714,9.2475,0
0.6174,-5.505455E-05,9.261,0,0.6174,8.560311E-05,9.261,0
0.6183,0.0001540856,9.2745,0,0.6183,-0.0001950408,9.2745,0
0.6192,0.0001839628,9.288,0,0.6192,-0.0001305867,9.288,0
0.6201,0.000203769,9.3015,0,0.6201,-1.980621E-05,9.3015,0
0.621,0.00048542,9.315,0,0.621,1.510643E-05,9.315,0
0.6219,0.0003850462,9.3285,0,0.6219,-4.800488E-05,9.3285,0
0.6228,0.00024271,9.342,0,0.6228,-0.0001493858,9.342,0
0.6237,0.0001930266,9.3555,0,0.6237,-1.409934E-05,9.3555,0
0.6246,4.263371E-05,9.369,0,0.6246,1.678492E-06,9.369,0
0.6255,4.196231E-05,9.3825,0,0.6255,8.72816E-05,9.3825,0
0.6264,6.411841E-05,9.396,0,0.6264,0.0002547952,9.396,0
0.6273,-9.701686E-05,9.4095,0,0.6273,0.0002051118,9.4095,0
0.6282,-0.0001799344,9.423,0,0.6282,-6.61326E-05,9.423,0
0.6291,-2.014191E-05,9.4365,0,0.6291,-0.0002719158,9.4365,0
0.63,2.685588E-06,9.45,0,0.63,-0.0002091402,9.45,0
0.6309,-2.987716E-05,9.4635,0,0.6309,-0.0002598306,9.4635,0
0.6318,4.867628E-05,9.477,0,0.6318,-0.0003145495,9.477,0
0.6327,-7.016098E-05,9.4905,0,0.6327,-0.0001379721,9.4905,0
0.6336,-0.0002061189,9.504,0,0.6336,-0.0001775845,9.504,0
0.6345,-0.0002088045,9.5175,0,0.6345,-0.0004004883,9.5175,0
0.6354,-0.000200412,9.531,0,0.6354,-0.000355169,9.531,0
0.6363,-0.0001863127,9.5445,0,0.6363,-0.0001983978,9.5445,0
0.6372,-0.0001493858,9.558,0,0.6372,0.0001597925,9.558,0
0.6381,-0.0002245823,9.5715,0,0.6381,0.0004105592,9.5715,0
0.639,-7.418937E-05,9.585,0,0.639,0.000695903,9.585,0
0.6399,6.411841E-05,9.5985,0,0.6399,0.00103093,9.5985,0
0.6408,9.164568E-05,9.612,0,0.6408,0.001037644,9.612,0
0.6417,0.0002225681,9.6255,0,0.6417,0.0006099641,9.6255,0
0.6426,0.0003649043,9.639,0,0.6426,0.0002514381,9.639,0
0.6435,6.54612E-05,9.6525,0,0.6435,0.0001373007,9.6525,0
0.6444,-5.975433E-05,9.666,0,0.6444,-0.0001722133,9.666,0
0.6453,4.766919E-05,9.6795,0,0.6453,-0.0004672923,9.6795,0
0.6462,0.0002232395,9.693,0,0.6462,-0.0006153353,9.693,0
0.6471,0.0001393149,9.7065,0,0.6471,-0.000541146,9.7065,0
0.648,4.263371E-05,9.72,0,0.648,-0.0003581903,9.72,0
0.6489,3.994812E-05,9.7335,0,0.6489,-0.0001735561,9.7335,0
0.6498,8.92958E-05,9.747,0,0.6498,-0.0001856413,9.747,0
0.6507,5.606165E-05,9.7605,0,0.6507,-0.0001037308,9.7605,0
0.6516,-0.0001631495,9.774,0,0.6516,0.000164828,9.774,0
0.6525,-6.042573E-05,9.7875,0,0.6525,0.0003877317,9.7875,0
0.6534,-1.409934E-05,9.801,0,0.6534,0.0002286107,9.801,0
0.6543,-0.0002729229,9.8145,0,0.6543,3.591974E-05,9.8145,0
0.6552,-0.0002406958,9.828,0,0.6552,-4.934768E-05,9.828,0
0.6561,0.0001070878,9.8415,0,0.6561,-7.721065E-06,9.8415,0
0.657,6.478981E-05,9.855,0,0.657,0.0001312581,9.855,0
0.6579,0.0003232776,9.8685,0,0.6579,0.0001607996,9.8685,0
0.6588,0.0003719539,9.882,0,0.6588,6.61326E-05,9.882,0
0.6597,0.000203769,9.8955,0,0.6597,7.351797E-05,9.8955,0
0.6606,4.162661E-05,9.909,0,0.6606,1.141375E-05,9.909,0
0.6615,-0.0001138018,9.9225,0,0.6615,-0.0004934767,9.9225,0
0.6624,-0.0002994431,9.936,0,0.6624,-0.0008630808,9.936,0
0.6633,-0.00024271,9.9495,0,0.6633,-0.0008288395,9.9495,0
0.6642,-0.0002618448,9.963,0,0.6642,-0.0005723659,9.963,0
0.6651,-0.0003944457,9.976501,0,0.6651,-0.0004689708,9.976501,0
0.666,-0.0003467765,9.99,0,0.666,-0.0002302892,9.99,0
0.6669,-0.0001232013,10.0035,0,0.6669,0.0004021668,10.0035,0
0.6678,-0.0001101091,10.017,0,0.6678,0.0008536812,10.017,0
0.6687,-0.0001832914,10.0305,0,0.6687,0.0005770657,10.0305,0
0.6696,-3.894102E-05,10.044,0,0.6696,5.069047E-05,10.044,0
0.6705,-0.0001211871,10.0575,0,0.6705,-2.18204E-05,10.0575,0
0.6714,2.786297E-05,10.071,0,0.6714,-4.565499E-05,10.071,0
0.6723,0.0002440528,10.0845,0,0.6723,-0.0002255894,10.0845,0
0.6732,0.0001456931,10.098,0,0.6732,-6.74754E-05,10.098,0
0.6741,-0.0001141375,10.1115,0,0.6741,0.0001675135,10.1115,0
0.675,1.544213E-05,10.125,0,0.675,0.0002762798,10.125,0
0.6759,0.0002185397,10.1385,0,0.6759,0.0003179065,10.1385,0
0.6768,0.0002863508,10.152,0,0.6768,0.0002333104,10.152,0
0.6777,0.0001406577,10.1655,0,0.6777,0.0001842985,10.1655,0
0.6786,-3.390555E-05,10.179,0,0.6786,0.0001010452,10.179,0
0.6795,-2.819867E-05,10.1925,0,0.6795,-3.927672E-05,10.1925,0
0.6804,-5.539025E-05,10.206,0,0.6804,-0.0001453574,10.206,0
0.6813,-0.0001755703,10.2195,0,0.6813,-5.304036E-05,10.2195,0
0.6822,-6.881819E-05,10.233,0,0.6822,-6.74754E-05,10.233,0
0.6831,-7.049668E-05,10.2465,0,0.6831,-0.0002202182,10.2465,0
0.684,-0.0001943694,10.26,0,0.684,-6.378271E-05,10.26,0
0.6849,-9.130999E-05,10.2735,0,0.6849,-0.0001500572,10.2735,0
0.6858,4.36408E-06,10.287,0,0.6858,-0.0003900816,10.287,0
0.6867,0.0002809796,10.3005,0,0.6867,-0.0004333867,10.3005,0
0.6876,0.0002695659,10.314,0,0.6876,-0.0002843366,10.314,0
0.6885,5.740444E-05,10.3275,0,0.6885,-0.0001923552,10.3275,0
0.6894,-5.270466E-05,10.341,0,0.6894,-0.0001661708,10.341,0
0.6903,7.821774E-05,10.3545,0,0.6903,1.779202E-05,10.3545,0
0.6912,3.659113E-05,10.368,0,0.6912,0.0003044785,10.368,0
0.6921,-0.0002057832,10.3815,0,0.6921,0.000355169,10.3815,0
0.693,-2.450599E-05,10.395,0,0.693,0.0002762798,10.395,0
0.6939,0.0002960861,10.4085,0,0.6939,0.0001305867,10.4085,0
0.6948,8.493171E-05,10.422,0,0.6948,0.0001245441,10.422,0
0.6957,-5.606165E-05,10.4355,0,0.6957,0.0001003738,10.4355,0
0.6966,-2.551309E-05,10.449,0,0.6966,-0.0001104448,10.449,0
0.6975,-0.0001665064,10.4625,0,0.6975,-8.325322E-05,10.4625,0
0.6984,-6.378271E-05,10.476,0,0.6984,-9.970245E-05,10.476,0
0.6993,0.0001309224,10.4895,0,0.6993,-0.0003158923,10.4895,0
0.7002,0.0001285725,10.503,0,0.7002,-0.0002245823,10.503,0
0.7011,0.0001164874,10.5165,0,0.7011,-0.0001225299,10.5165,0
0.702,0.0002695659,10.53,0,0.702,-0.0001980621,10.53,0
0.7029,0.0002628519,10.5435,0,0.7029,-0.0001994049,10.5435,0
0.7038,0.0001806058,10.557,0,0.7038,-0.0002474098,10.557,0
0.7047,0.0001379721,10.5705,0,0.7047,-9.063859E-06,10.5705,0
0.7056,2.920577E-05,10.584,0,0.7056,1.107805E-05,10.584,0
0.7065,4.229801E-05,10.5975,0,0.7065,-2.383459E-05,10.5975,0
0.7074,0.0001571069,10.611,0,0.7074,0.0001144732,10.611,0
0.7083,2.014191E-06,10.6245,0,0.7083,0.0002534524,10.6245,0
0.7092,-0.0001178302,10.638,0,0.7092,0.0002064546,10.638,0
0.7101,5.270466E-05,10.6515,0,0.7101,0.0001211871,10.6515,0
0.711,-8.493171E-05,10.665,0,0.711,0.0001443503,10.665,0
0.7119,-7.687495E-05,10.6785,0,0.7119,2.618448E-05,10.6785,0
0.7128,-2.014191E-06,10.692,0,0.7128,-0.0002709087,10.692,0
0.7137,-1.242084E-05,10.7055,0,0.7137,-0.0004192874,10.7055,0
0.7146,-0.0001094377,10.719,0,0.7146,-0.0004172732,10.719,0
0.7155,-6.881819E-05,10.7325,0,0.7155,-0.0004807202,10.7325,0
0.7164,3.457694E-05,10.746,0,0.7164,-0.0004025025,10.746,0
0.7173,0.0001232013,10.7595,0,0.7173,-0.000186984,10.7595,0
0.7182,-3.692683E-06,10.773,0,0.7182,0.0002380102,10.773,0
0.7191,-4.36408E-05,10.7865,0,0.7191,0.0002997787,10.7865,0
0.72,5.404745E-05,10.8,0,0.72,0.0002977645,10.8,0
0.7209,0,10.8135,0,0.7209,0.0003662471,10.8135,0
0.7218,-8.358892E-05,10.827,0,0.7218,0.0003367056,10.827,0
0.7227,3.323415E-05,10.8405,0,0.7227,0.00036289,10.8405,0
0.7236,0.0001326009,10.854,0,0.7236,0.0004743419,10.854,0
0.7245,-7.351797E-05,10.8675,0,0.7245,0.0005119402,10.8675,0
0.7254,-0.0001540856,10.881,0,0.7254,0.0002890364,10.881,0
0.7263,-7.754635E-05,10.8945,0,0.7263,4.33051E-05,10.8945,0
0.7272,-7.922484E-05,10.908,0,0.7272,-1.309224E-05,10.908,0
0.7281,-0.0001453574,10.9215,0,0.7281,-0.0001134661,10.9215,0
0.729,-5.001907E-05,10.935,0,0.729,-0.0001326009,10.935,0
0.7299,-0.0001520714,10.9485,0,0.7299,-7.888914E-05,10.9485,0
0.7308,-4.800488E-05,10.962,0,0.7308,-0.0001930266,10.962,0
0.7317,1.477073E-05,10.9755,0,0.7317,-0.0001628138,10.9755,0
0.7326,-9.970245E-05,10.989,0,0.7326,-0.0002413672,10.989,0
0.7335,-4.968337E-05,11.0025,0,0.7335,-0.0003038071,11.0025,0
0.7344,0.0001232013,11.016,0,0.7344,-0.0001735561,11.016,0
0.7353,-2.24918E-05,11.0295,0,0.7353,7.888914E-05,11.0295,0
0.7362,-0.0001399863,11.043,0,0.7362,0.0001050736,11.043,0
0.7371,2.920577E-05,11.0565,0,0.7371,8.728161E-06,11.0565,0
0.738,-7.821774E-05,11.07,0,0.738,7.217517E-05,11.07,0
0.7389,-0.0001326009,11.0835,0,0.7389,-8.526741E-05,11.0835,0
0.7398,-7.721065E-05,11.097,0,0.7398,-0.000270573,11.097,0
0.7407,-0.0003017929,11.1105,0,0.7407,-0.0003632258,11.1105,0
0.7416,-0.0003971313,11.124,0,0.7416,-0.0003565118,11.124,0
0.7425,-0.0002111543,11.1375,0,0.7425,-0.0004726635,11.1375,0
0.7434,6.042573E-05,11.151,0,0.7434,-0.0004229801,11.151,0
0.7443,0.000274937,11.1645,0,0.7443,-0.0002396887,11.1645,0
0.7452,0.0003998169,11.178,0,0.7452,6.378271E-06,11.178,0
0.7461,0.000361883,11.1915,0,0.7461,8.493171E-05,11.1915,0
0.747,0.0003944457,11.205,0,0.747,0.0002343175,11.205,0
0.7479,0.0003843748,11.2185,0,0.7479,0.0003739681,11.2185,0
0.7488,0.0001618067,11.232,0,0.7488,0.0004320439,11.232,0
0.7497,7.553216E-05,11.2455,0,0.7497,0.0002870222,11.2455,0
0.7506,0.000185977,11.259,0,0.7506,0.0002077974,11.259,0
0.7515,0.0001201801,11.2725,0,0.7515,0.0003719539,11.2725,0
0.7524,-6.713969E-07,11.286,0,0.7524,0.0002769512,11.286,0
0.7533,-1.107805E-05,11.2995,0,0.7533,7.016098E-05,11.2995,0
0.7542,0.0001923552,11.313,0,0.7542,1.846342E-05,11.313,0
0.7551,5.606165E-05,11.3265,0,0.7551,-1.342794E-06,11.3265,0
0.756,-7.150377E-05,11.34,0,0.756,-6.243992E-05,11.34,0
0.7569,-0.0001292439,11.3535,0,0.7569,-8.157473E-05,11.3535,0
0.7578,-2.047761E-05,11.367,0,0.7578,-0.000112459,11.367,0
0.7587,-5.136187E-05,11.3805,0,0.7587,-5.337606E-05,11.3805,0
0.7596,-0.0002413672,11.394,0,0.7596,-8.86244E-05,11.394,0
0.7605,-0.0001963836,11.4075,0,0.7605,-0.0001050736,11.4075,0
0.7614,-0.0002151827,11.421,0,0.7614,-3.692683E-05,11.421,0
0.7623,-0.0003645686,11.4345,0,0.7623,5.841154E-05,11.4345,0
0.7632,-0.00036289,11.448,0,0.7632,-2.786297E-05,11.448,0
0.7641,-0.0002400244,11.4615,0,0.7641,-0.0001406577,11.4615,0
0.765,-0.0004407721,11.475,0,0.765,2.484169E-05,11.475,0
0.7659,-0.0004058595,11.4885,0,0.7659,-5.404745E-05,11.4885,0
0.7668,-0.0003101854,11.502,0,0.7668,-0.000148043,11.502,0
0.7677,-0.0001258869,11.5155,0,0.7677,-0.0001980621,11.5155,0
0.7686,9.768826E-05,11.529,0,0.7686,-0.0002017548,11.529,0
0.7695,0.0004307012,11.5425,0,0.7695,-0.0003202563,11.5425,0
0.7704,0.0003014572,11.556,0,0.7704,-0.0004260014,11.556,0
0.7713,4.733349E-05,11.5695,0,0.7713,-0.0004159304,11.5695,0
0.7722,-3.356985E-05,11.583,0,0.7722,-0.0001930266,11.583,0
0.7731,-0.0001628138,11.5965,0,0.7731,-0.0001829557,11.5965,0
0.774,-9.970245E-05,11.61,0,0.774,-0.0001621424,11.61,0
0.7749,4.33051E-05,11.6235,0,0.7749,-4.46479E-05,11.6235,0
0.7758,-0.0002051118,11.637,0,0.7758,0.0002554666,11.637,0
0.7767,-0.0001775845,11.6505,0,0.7767,0.0003595331,11.6505,0
0.7776,6.411841E-05,11.664,0,0.7776,0.0003078355,11.664,0
0.7785,-6.478981E-05,11.6775,0,0.7785,0.0003823606,11.6775,0
0.7794,5.069047E-05,11.691,0,0.7794,0.0001836271,11.691,0
0.7803,0.000144686,11.7045,0,0.7803,-0.0001205158,11.7045,0
0.7812,9.634547E-05,11.718,0,0.7812,-0.0001393149,11.718,0
0.7821,-3.692683E-06,11.7315,0,0.7821,-1.174945E-05,11.7315,0
0.783,-1.980621E-05,11.745,0,0.783,-1.208515E-05,11.745,0
0.7839,6.076142E-05,11.7585,0,0.7839,1.644922E-05,11.7585,0
0.7848,6.411841E-05,11.772,0,0.7848,0.0002084688,11.772,0
0.7857,0.0001050736,11.7855,0,0.7857,0.0003669185,11.7855,0
0.7866,0.0002574807,11.799,0,0.7866,0.0002269322,11.799,0
0.7875,0.0001765774,11.8125,0,0.7875,4.901198E-05,11.8125,0
0.7884,9.600977E-05,11.826,0,0.7884,-0.0001406577,11.826,0
0.7893,5.136187E-05,11.8395,0,0.7893,-0.0001295796,11.8395,0
0.7902,4.162661E-05,11.853,0,0.7902,-0.0001910124,11.853,0
0.7911,0.000115816,11.8665,0,0.7911,-0.0002635233,11.8665,0
0.792,-1.644922E-05,11.88,0,0.792,-0.0001131304,11.88,0
0.7929,-0.000119173,11.8935,0,0.7929,-3.692683E-05,11.8935,0
0.7938,-2.18204E-05,11.907,0,0.7938,-0.0001064164,11.907,0
0.7947,7.586786E-05,11.9205,0,0.7947,-0.0001701991,11.9205,0
0.7956,-4.33051E-05,11.934,0,0.7956,-0.0002581521,11.934,0
0.7965,-7.351797E-05,11.9475,0,0.7965,-9.701686E-05,11.9475,0
0.7974,-2.484169E-05,11.961,0,0.7974,9.533837E-05,11.961,0
0.7983,0.000144686,11.9745,0,0.7983,1.678492E-06,11.9745,0
0.7992,6.344701E-05,11.988,0,0.7992,0.0001963836,11.988,0
0.8001,-0.000115816,12.0015,0,0.8001,0.0004723278,12.0015,0
0.801,-3.927672E-05,12.015,0,0.801,0.0004273442,12.015,0
0.8019,3.457694E-05,12.0285,0,0.8019,0.0002279393,12.0285,0
0.8028,-0.0001356222,12.042,0,0.8028,7.721065E-05,12.042,0
0.8037,-0.0001279011,12.0555,0,0.8037,-0.0001668421,12.0555,0
0.8046,-3.021286E-06,12.069,0,0.8046,-0.0003316701,12.069,0
0.8055,-2.047761E-05,12.0825,0,0.8055,-0.0002531167,12.0825,0
0.8064,-9.970245E-05,12.096,0,0.8064,-0.0003790036,12.096,0
0.8073,-8.291753E-05,12.1095,0,0.8073,-0.0005535668,12.1095,0
0.8082,-0.0002339818,12.123,0,0.8082,-0.0002588235,12.123,0
0.8091,-0.0002544594,12.1365,0,0.8091,8.761731E-05,12.1365,0
0.81,-7.553216E-05,12.15,0,0.81,0.0002853437,12.15,0
0.8109,1.040665E-05,12.1635,0,0.8109,0.0005495384,12.1635,0
0.8118,2.719158E-05,12.177,0,0.8118,0.0004018311,12.177,0
0.8127,9.500267E-05,12.1905,0,0.8127,0.0001265583,12.1905,0
0.8136,-3.524834E-05,12.204,0,0.8136,-1.544213E-05,12.204,0
0.8145,-6.713969E-06,12.2175,0,0.8145,-0.0001611353,12.2175,0
0.8154,0.0001688563,12.231,0,0.8154,-0.0002457313,12.231,0
0.8163,-1.275654E-05,12.2445,0,0.8163,-0.0001329366,12.2445,0
0.8172,-3.726253E-05,12.258,0,0.8172,-0.0002319677,12.258,0
0.8181,0.0001456931,12.2715,0,0.8181,-0.0003776608,12.2715,0
0.819,6.57969E-05,12.285,0,0.819,-0.0002433814,12.285,0
0.8199,0.0001272297,12.2985,0,0.8199,-6.51255E-05,12.2985,0
0.8208,8.795301E-05,12.312,0,0.8208,5.471885E-05,12.312,0
0.8217,-7.318227E-05,12.3255,0,0.8217,0.0002870222,12.3255,0
0.8226,-0.0001668421,12.339,0,0.8226,0.0001849699,12.339,0
0.8235,-0.000102388,12.3525,0,0.8235,9.030289E-05,12.3525,0
0.8244,8.96315E-05,12.366,0,0.8244,9.298848E-05,12.366,0
0.8253,0.0001238727,12.3795,0,0.8253,9.500267E-05,12.3795,0
0.8262,6.78111E-05,12.393,0,0.8262,0.0001712062,12.393,0
0.8271,2.584878E-05,12.4065,0,0.8271,0.0001789273,12.4065,0
0.828,-0.0001178302,12.42,0,0.828,0.0001604639,12.42,0
0.8289,-0.0002628519,12.4335,0,0.8289,3.155566E-05,12.4335,0
0.8298,-0.0003011215,12.447,0,0.8298,1.980621E-05,12.447,0
0.8307,-3.591974E-05,12.4605,0,0.8307,-8.493171E-05,12.4605,0
0.8316,0.0001386435,12.474,0,0.8316,-0.0001973907,12.474,0
0.8325,0.0002145113,12.4875,0,0.8325,-1.174945E-05,12.4875,0
0.8334,0.0003954528,12.501,0,0.8334,-8.89601E-05,12.501,0
0.8343,0.0003924315,12.5145,0,0.8343,-0.0002346532,12.5145,0
0.8352,0.0002161898,12.528,0,0.8352,-0.0002242466,12.528,0
0.8361,9.399558E-06,12.5415,0,0.8361,-0.0001064164,12.5415,0
0.837,-4.867628E-05,12.555,0,0.837,-0.0002319677,12.555,0
0.8379,-1.947051E-05,12.5685,0,0.8379,-0.0005092546,12.5685,0
0.8388,0.0001957122,12.582,0,0.8388,-0.0004760204,12.582,0
0.8397,0.0002641947,12.5955,0,0.8397,-0.000154757,12.5955,0
0.8406,6.915389E-05,12.609,0,0.8406,0.0001426719,12.609,0
0.8415,-0.0001238727,12.6225,0,0.8415,3.021286E-05,12.6225,0
0.8424,-0.0001587854,12.636,0,0.8424,-3.021286E-06,12.636,0
0.8433,-0.0003685969,12.6495,0,0.8433,0.0003145495,12.6495,0
0.8442,-0.0004061952,12.663,0,0.8442,0.0003561761,12.663,0
0.8451,-0.0002376745,12.6765,0,0.8451,0.0001507286,12.6765,0
0.846,-0.0004065309,12.69,0,0.846,0.0001339437,12.69,0
0.8469,-0.0003226062,12.7035,0,0.8469,-8.89601E-05,12.7035,0
0.8478,-0.000190341,12.717,0,0.8478,-0.0002074617,12.717,0
0.8487,-0.000390753,12.7305,0,0.8487,-0.0001554284,12.7305,0
0.8496,-0.0005579308,12.744,0,0.8496,-1.174945E-05,12.744,0
0.8505,-0.0003353628,12.7575,0,0.8505,9.970245E-05,12.7575,0
0.8514,-0.0001332723,12.771,0,0.8514,0.0001151446,12.771,0
0.8523,7.956054E-05,12.7845,0,0.8523,5.069047E-05,12.7845,0
0.8532,2.484169E-05,12.798,0,0.8532,2.316319E-05,12.798,0
0.8541,-3.692683E-05,12.8115,0,0.8541,1.577783E-05,12.8115,0
0.855,-6.713969E-07,12.825,0,0.855,-1.678492E-06,12.825,0
0.8559,3.323415E-05,12.8385,0,0.8559,-5.539025E-05,12.8385,0
0.8568,-9.802396E-05,12.852,0,0.8568,-0.0001054093,12.852,0
0.8577,-0.0001373007,12.8655,0,0.8577,-0.0002719158,12.8655,0
0.8586,9.365987E-05,12.879,0,0.8586,-0.0003776608,12.879,0
0.8595001,0.0001688563,12.8925,0,0.8595001,-0.0001470359,12.8925,0
0.8604,0.0001540856,12.906,0,0.8604,5.404745E-05,12.906,0
0.8613,0.0002051118,12.9195,0,0.8613,-2.14847E-05,12.9195,0
0.8622,0.0004521859,12.933,0,0.8622,3.860533E-05,12.933,0
0.8631,0.0002406958,12.9465,0,0.8631,9.634547E-05,12.9465,0
0.864,0.0001393149,12.96,0,0.864,-3.524834E-05,12.96,0
0.8649,0.0001644923,12.9735,0,0.8649,-7.217517E-05,12.9735,0
0.8658,0.0002104829,12.987,0,0.8658,8.291753E-05,12.987,0
0.8667,7.049668E-06,13.0005,0,0.8667,0.0005542382,13.0005,0
0.8676,-3.625543E-05,13.014,0,0.8676,0.0005404745,13.014,0
0.8685,0.0001064164,13.0275,0,0.8685,0.0002903792,13.0275,0
0.8694,2.517739E-05,13.041,0,0.8694,0.0001151446,13.041,0
0.8703,-0.0001064164,13.0545,0,0.8703,-4.699779E-06,13.0545,0
0.8712,-1.208515E-05,13.068,0,0.8712,-0.0002222324,13.068,0
0.8721,0.0001067521,13.0815,0,0.8721,-0.0003236133,13.0815,0
0.873,-4.061952E-05,13.095,0,0.873,-0.0001104448,13.095,0
0.8739,-0.0001604639,13.1085,0,0.8739,-0.0003118639,13.1085,0
0.8748,-0.0001366293,13.122,0,0.8748,-0.0001920195,13.122,0
0.8757,0,13.1355,0,0.8757,0.0001856413,13.1355,0
0.8766,-4.061952E-05,13.149,0,0.8766,0.0001587854,13.149,0
0.8775,8.224613E-05,13.1625,0,0.8775,0.0001077592,13.1625,0
0.8784,-8.358892E-05,13.176,0,0.8784,4.53193E-05,13.176,0
0.8793,4.095522E-05,13.1895,0,0.8793,-7.284657E-05,13.1895,0
0.8802,0.0002262608,13.203,0,0.8802,-8.795301E-05,13.203,0
0.8811,6.109713E-05,13.2165,0,0.8811,-0.0002044404,13.2165,0
0.882,4.36408E-06,13.23,0,0.882,-0.0003494621,13.23,0
0.8829,0.0001017166,13.2435,0,0.8829,-0.0004414435,13.2435,0
0.8838,-2.584878E-05,13.257,0,0.8838,-0.0003108568,13.257,0
0.8847,3.088426E-05,13.2705,0,0.8847,-0.000115816,13.2705,0
0.8856,0.0002544594,13.284,0,0.8856,0.0003427482,13.284,0
0.8865,7.049668E-06,13.2975,0,0.8865,0.0006804608,13.2975,0
0.8874,2.987716E-05,13.311,0,0.8874,0.0003662471,13.311,0
0.8883,0.0001094377,13.3245,0,0.8883,0.0001010452,13.3245,0
0.8892,0.0001943694,13.338,0,0.8892,-4.901198E-05,13.338,0
0.8901,-2.517739E-05,13.3515,0,0.8901,-6.51255E-05,13.3515,0
0.891,-3.121996E-05,13.365,0,0.891,-7.284657E-05,13.365,0
0.8919,5.941863E-05,13.3785,0,0.8919,-0.0001060807,13.3785,0
0.8928,4.263371E-05,13.392,0,0.8928,-0.0001661708,13.392,0
0.8937,1.678492E-06,13.4055,0,0.8937,-3.524834E-05,13.4055,0
0.8946,-9.433127E-05,13.419,0,0.8946,-4.33051E-05,13.419,0
0.8955,-0.0001077592,13.4325,0,0.8955,-0.0003370413,13.4325,0
0.8964,6.378271E-05,13.446,0,0.8964,-0.0005058976,13.446,0
0.8973,-1.443504E-05,13.4595,0,0.8973,-0.0003776608,13.4595,0
0.8982,-0.0001671778,13.473,0,0.8982,-0.0003524834,13.473,0
0.8991,-3.793393E-05,13.4865,0,0.8991,-0.0002111543,13.4865,0
0.9,-1.779202E-05,13.5,0,0.9,0.0003638972,13.5,0
0.9009,-2.383459E-05,13.5135,0,0.9009,0.0004823987,13.5135,0
0.9018,-5.471885E-05,13.527,0,0.9018,0.0002668803,13.527,0
0.9027,0.0001373007,13.5405,0,0.9027,0.0002910506,13.5405,0
0.9036,0.0001460288,13.554,0,0.9036,0.0002772869,13.554,0
0.9045,5.069047E-05,13.5675,0,0.9045,0.0001258869,13.5675,0
0.9054,5.606165E-05,13.581,0,0.9054,7.049668E-05,13.581,0
0.9063,8.82887E-05,13.5945,0,0.9063,-3.524834E-05,13.5945,0
0.9072,-8.761731E-05,13.608,0,0.9072,-0.0001681849,13.608,0
0.9081,-0.0001258869,13.6215,0,0.9081,-0.0001044022,13.6215,0
0.909,-1.141375E-05,13.635,0,0.909,-9.097429E-05,13.635,0
0.9099,-4.934768E-05,13.6485,0,0.9099,-2.819867E-05,13.6485,0
0.9108,-0.0002487526,13.662,0,0.9108,-8.392462E-06,13.662,0
0.9117,-0.0002276036,13.6755,0,0.9117,-0.0001044022,13.6755,0
0.9126,-6.478981E-05,13.689,0,0.9126,-0.0002977645,13.689,0
0.9135,-0.0002353246,13.7025,0,0.9135,-0.0001809415,13.7025,0
0.9144,-0.0001947051,13.716,0,0.9144,-0.0001490501,13.716,0
0.9153,0.0001514,13.7295,0,0.9153,-0.0001430075,13.7295,0
0.9162,0.0001319295,13.743,0,0.9162,2.517739E-05,13.743,0
0.9171,-4.061952E-05,13.7565,0,0.9171,9.835965E-05,13.7565,0
0.918,1.779202E-05,13.77,0,0.918,-1.678492E-06,13.77,0
0.9189,-3.692683E-06,13.7835,0,0.9189,-6.71397E-05,13.7835,0
0.9198,-3.692683E-06,13.797,0,0.9198,-0.0001440146,13.797,0
0.9207,2.1149E-05,13.8105,0,0.9207,5.236896E-05,13.8105,0
0.9216,-8.392462E-05,13.824,0,0.9216,6.64683E-05,13.824,0
0.9225,-3.021286E-06,13.8375,0,0.9225,-0.000102388,13.8375,0
0.9234,0.0001178302,13.851,0,0.9234,-0.000185977,13.851,0
0.9243,0.0001832914,13.8645,0,0.9243,7.788205E-05,13.8645,0
0.9252,0.0002796368,13.878,0,0.9252,0.000267216,13.878,0
0.9261,0.0003121996,13.8915,0,0.9261,0.0001789273,13.8915,0
0.927,-6.378271E-06,13.905,0,0.927,0.0002225681,13.905,0
0.9279,-0.0001198444,13.9185,0,0.9279,0.0001708705,13.9185,0
0.9288,-7.150377E-05,13.932,0,0.9288,9.701686E-05,13.932,0
0.9297,-0.000252781,13.9455,0,0.9297,3.558404E-05,13.9455,0
0.9306,-0.0004414435,13.959,0,0.9306,2.853437E-05,13.959,0
0.9315,-0.0003068284,13.9725,0,0.9315,1.007095E-05,13.9725,0
0.9324,-0.0001628138,13.986,0,0.9324,-8.392462E-06,13.986,0
0.9333,-0.0001238727,13.9995,0,0.9333,-0.0001185016,13.9995,0
0.9342,-0.0001453574,14.013,0,0.9342,-2.584878E-05,14.013,0
0.9351,-0.0002188754,14.0265,0,0.9351,6.243992E-05,14.0265,0
0.936,-0.0002688945,14.04,0,0.936,-0.0001604639,14.04,0
0.9369,-0.0001668421,14.0535,0,0.9369,-0.0004199588,14.0535,0
0.9378,-1.544213E-05,14.067,0,0.9378,-0.0002074617,14.067,0
0.9387,9.970245E-05,14.0805,0,0.9387,-9.164568E-05,14.0805,0
0.9396001,9.970245E-05,14.094,0,0.9396001,-0.0002212253,14.094,0
0.9405,9.298848E-05,14.1075,0,0.9405,-6.344701E-05,14.1075,0
0.9414001,7.586786E-05,14.121,0,0.9414001,5.035477E-06,14.121,0
0.9423,2.517739E-05,14.1345,0,0.9423,-5.169757E-05,14.1345,0
0.9432001,5.438316E-05,14.148,0,0.9432001,-2.920577E-05,14.148,0
0.9441,-3.894102E-05,14.1615,0,0.9441,0.0001467002,14.1615,0
0.9450001,-9.433127E-05,14.175,0,0.9450001,0.000235996,14.175,0
0.9459,-9.634547E-05,14.1885,0,0.9459,8.426032E-05,14.1885,0
0.9468,-0.0001591211,14.202,0,0.9468,-4.53193E-05,14.202,0
0.9477,-0.000345098,14.2155,0,0.9477,-6.344701E-05,14.2155,0
0.9486,-0.0002987717,14.229,0,0.9486,-0.0001712062,14.229,0
0.9495,-6.210422E-05,14.2425,0,0.9495,-0.0001393149,14.2425,0
0.9504,9.869535E-05,14.256,0,0.9504,-0.0001218585,14.256,0
0.9513,5.941863E-05,14.2695,0,0.9513,-0.0001285725,14.2695,0
0.9522,0.0003125353,14.283,0,0.9522,6.713969E-07,14.283,0
0.9531,0.0005186542,14.2965,0,0.9531,-5.404745E-05,14.2965,0
0.954,0.0001994049,14.31,0,0.954,1.947051E-05,14.31,0
0.9549,7.083238E-05,14.3235,0,0.9549,-9.433127E-05,14.3235,0
0.9558,0.0001785916,14.337,0,0.9558,-0.0002192111,14.337,0
0.9567,0.0001013809,14.3505,0,0.9567,-9.768826E-05,14.3505,0
0.9576,-4.699779E-05,14.364,0,0.9576,-2.752728E-05,14.364,0
0.9585,4.632639E-05,14.3775,0,0.9585,-3.356985E-07,14.3775,0
0.9594,8.392462E-06,14.391,0,0.9594,0.0002574807,14.391,0
0.9603,9.970245E-05,14.4045,0,0.9603,0.0002299535,14.4045,0
0.9612,0.0002145113,14.418,0,0.9612,0.0002051118,14.418,0
0.9621,-9.735256E-06,14.4315,0,0.9621,5.337606E-05,14.4315,0
0.963,-4.49836E-05,14.445,0,0.963,-1.376364E-05,14.445,0
0.9639,0.0001010452,14.4585,0,0.9639,7.821774E-05,14.4585,0
0.9648,-2.349889E-05,14.472,0,0.9648,5.069047E-05,14.472,0
0.9657,-8.627451E-05,14.4855,0,0.9657,-6.143282E-05,14.4855,0
0.9666,6.378271E-05,14.499,0,0.9666,-0.0002067903,14.499,0
0.9675,-5.706874E-06,14.5125,0,0.9675,-0.0001450217,14.5125,0
0.9684,-4.263371E-05,14.526,0,0.9684,-0.000130251,14.526,0
0.9693,0.0001017166,14.5395,0,0.9693,-0.000126894,14.5395,0
0.9702,0.0002030976,14.553,0,0.9702,1.846342E-05,14.553,0
0.9711,1.712062E-05,14.5665,0,0.9711,3.793393E-05,14.5665,0
0.972,3.625543E-05,14.58,0,0.972,0.0001973907,14.58,0
0.9729,0.0001312581,14.5935,0,0.9729,0.0003350271,14.5935,0
0.9738,0.0001111162,14.607,0,0.9738,5.975433E-05,14.607,0
0.9747,-4.263371E-05,14.6205,0,0.9747,-7.318227E-05,14.6205,0
0.9756,-7.452507E-05,14.634,0,0.9756,-0.0001926909,14.634,0
0.9765,6.915389E-05,14.6475,0,0.9765,-0.0001027237,14.6475,0
0.9774,7.150377E-05,14.661,0,0.9774,8.86244E-05,14.661,0
0.9783,-1.678492E-06,14.6745,0,0.9783,0.0001265583,14.6745,0
0.9792,-2.316319E-05,14.688,0,0.9792,-1.846342E-05,14.688,0
0.9801,0.0001030594,14.7015,0,0.9801,-0.0001802701,14.7015,0
0.981,4.733349E-05,14.715,0,0.981,-4.061952E-05,14.715,0
0.9819,-9.835965E-05,14.7285,0,0.9819,-4.29694E-05,14.7285,0
0.9828,-6.61326E-05,14.742,0,0.9828,7.351797E-05,14.742,0
0.9837,-1.577783E-05,14.7555,0,0.9837,0.0003803464,14.7555,0
0.9846,-0.0001416648,14.769,0,0.9846,0.0002897078,14.769,0
0.9855,-9.198138E-05,14.7825,0,0.9855,5.304036E-05,14.7825,0
0.9864,-0.0001164874,14.796,0,0.9864,-1.242084E-05,14.796,0
0.9873,-8.392462E-06,14.8095,0,0.9873,-9.500267E-05,14.8095,0
0.9882,2.584878E-05,14.823,0,0.9882,-3.121996E-05,14.823,0
0.9891,4.934768E-05,14.8365,0,0.9891,-2.752728E-05,14.8365,0
0.99,3.692683E-05,14.85,0,0.99,-0.0001715419,14.85,0
0.9909,-4.33051E-05,14.8635,0,0.9909,-0.0002420386,14.8635,0
0.9918,-0.000207126,14.877,0,0.9918,-3.256275E-05,14.877,0
0.9927,-0.0001238727,14.8905,0,0.9927,-5.606165E-05,14.8905,0
0.9936,1.947051E-05,14.904,0,0.9936,-0.0001755703,14.904,0
0.9945,-0.0001715419,14.9175,0,0.9945,-3.424125E-05,14.9175,0
0.9954,-0.0002279393,14.931,0,0.9954,-2.584878E-05,14.931,0
0.9963,-0.0001359579,14.9445,0,0.9963,-0.0002131685,14.9445,0
0.9972,-0.0001178302,14.958,0,0.9972,-0.0001215228,14.958,0
0.9981,-0.0001312581,14.9715,0,0.9981,-8.090334E-05,14.9715,0
0.999,4.699779E-06,14.985,0,0.999,-0.0002222324,14.985,0
0.9999,0.0001332723,14.9985,0,0.9999,-0.0003464408,14.9985,0
1.0008,0.0002077974,15.012,0,1.0008,-0.0003853819,15.012,0
1.0017,0.0002386816,15.0255,0,1.0017,-0.0002420386,15.0255,0
1.0026,0.0002648661,15.039,0,1.0026,-7.217517E-05,15.039,0
1.0035,0.0001594568,15.0525,0,1.0035,-2.18204E-05,15.0525,0
1.0044,0.0002171969,15.066,0,1.0044,-5.941863E-05,15.066,0
1.0053,3.659113E-05,15.0795,0,1.0053,3.390555E-05,15.0795,0
1.0062,-2.316319E-05,15.093,0,1.0062,-3.021286E-06,15.093,0
1.0071,0.0001211871,15.1065,0,1.0071,0.0001816129,15.1065,0
1.008,0.0001527428,15.12,0,1.008,0.0005414817,15.12,0
1.0089,-0.0001896696,15.1335,0,1.0089,0.0004981766,15.1335,0
1.0098,-0.0003269703,15.147,0,1.0098,0.0002735943,15.147,0
1.0107,-0.0002289464,15.1605,0,1.0107,0.000218204,15.1605,0
1.0116,-0.0001560998,15.174,0,1.0116,0.0001362936,15.174,0
1.0125,0.0002410315,15.1875,0,1.0125,-8.358892E-05,15.1875,0
1.0134,0.0002312963,15.201,0,1.0134,-0.0002648661,15.201,0
1.0143,-3.021286E-06,15.2145,0,1.0143,-0.000330663,15.2145,0
1.0152,-9.298848E-05,15.228,0,1.0152,-0.0002225681,15.228,0
1.0161,-0.000109102,15.2415,0,1.0161,-0.0002688945,15.2415,0
1.017,-0.0002588235,15.255,0,1.017,-0.0003414054,15.255,0
1.0179,-0.0002269322,15.2685,0,1.0179,-0.0003038071,15.2685,0
1.0188,-0.0001326009,15.282,0,1.0188,-0.0001624781,15.282,0
1.0197,2.450599E-05,15.2955,0,1.0197,2.349889E-06,15.2955,0
1.0206,0.000197055,15.309,0,1.0206,-3.524834E-05,15.309,0
1.0215,-6.076142E-05,15.3225,0,1.0215,0.0003360342,15.3225,0
1.0224,-0.0001889983,15.336,0,1.0224,0.0005337606,15.336,0
1.0233,-3.927672E-05,15.3495,0,1.0233,0.0003649043,15.3495,0
1.0242,0.0001540856,15.363,0,1.0242,0.0002890364,15.363,0
1.0251,0.0001131304,15.3765,0,1.0251,0.0001665064,15.3765,0
1.026,-3.323415E-05,15.39,0,1.026,5.539025E-05,15.39,0
1.0269,-0.0001054093,15.4035,0,1.0269,6.311131E-05,15.4035,0
1.0278,6.378271E-06,15.417,0,1.0278,6.948959E-05,15.417,0
1.0287,5.941863E-05,15.4305,0,1.0287,5.471885E-05,15.4305,0
1.0296,-7.653925E-05,15.444,0,1.0296,-3.659113E-05,15.444,0
1.0305,-0.0001453574,15.4575,0,1.0305,-0.0002823224,15.4575,0
1.0314,-5.673304E-05,15.471,0,1.0314,-0.0003326772,15.471,0
1.0323,-0.0002135042,15.4845,0,1.0323,-0.000144686,15.4845,0
1.0332,-0.0001094377,15.498,0,1.0332,-0.0001735561,15.498,0
1.0341,9.701686E-05,15.5115,0,1.0341,-0.0001258869,15.5115,0
1.035,-5.270466E-05,15.525,0,1.035,0.0001507286,15.525,0
1.0359,-0.0001265583,15.5385,0,1.0359,0.0001557641,15.5385,0
1.0368,1.275654E-05,15.552,0,1.0368,-3.524834E-05,15.552,0
1.0377,1.174945E-05,15.5655,0,1.0377,-1.913481E-05,15.5655,0
1.0386,-7.956054E-05,15.579,0,1.0386,2.24918E-05,15.579,0
1.0395,1.040665E-05,15.5925,0,1.0395,-5.337606E-05,15.5925,0
1.0404,-4.867628E-05,15.606,0,1.0404,-0.0002480812,15.606,0
1.0413,3.021286E-05,15.6195,0,1.0413,-0.0002017548,15.6195,0
1.0422,6.009003E-05,15.633,0,1.0422,-1.678492E-06,15.633,0
1.0431,2.383459E-05,15.6465,0,1.0431,-4.867628E-05,15.6465,0
1.044,7.049668E-06,15.66,0,1.044,-4.33051E-05,15.66,0
1.0449,9.768826E-05,15.6735,0,1.0449,-0.0001413291,15.6735,0
1.0458,6.009003E-05,15.687,0,1.0458,-0.000158114,15.687,0
1.0467,9.097429E-05,15.7005,0,1.0467,-0.0001752346,15.7005,0
1.0476,0.0001574426,15.714,0,1.0476,-0.0002537881,15.714,0
1.0485,-4.229801E-05,15.7275,0,1.0485,-0.0002440528,15.7275,0
1.0494,-9.600977E-05,15.741,0,1.0494,3.189136E-05,15.741,0
1.0503,9.634547E-05,15.7545,0,1.0503,0.0003098497,15.7545,0
1.0512,3.457694E-05,15.768,0,1.0512,0.0003769894,15.768,0
1.0521,-0.0001383078,15.7815,0,1.0521,0.0002719158,15.7815,0
1.053,5.035477E-06,15.795,0,1.053,0.0001560998,15.795,0
1.0539,3.457694E-05,15.8085,0,1.0539,8.493171E-05,15.8085,0
1.0548,7.486076E-05,15.822,0,1.0548,-0.0001332723,15.822,0
1.0557,7.049668E-05,15.8355,0,1.0557,-0.0001178302,15.8355,0
1.0566,-1.678492E-06,15.849,0,1.0566,-0.0001920195,15.849,0
1.0575,6.143282E-05,15.8625,0,1.0575,-0.000263859,15.8625,0
1.0584,4.49836E-05,15.876,0,1.0584,-0.0001292439,15.876,0
1.0593,1.007095E-06,15.8895,0,1.0593,0.0001806058,15.8895,0
1.0602,0.0001205158,15.903,0,1.0602,7.016098E-05,15.903,0
1.0611,0.0001037308,15.9165,0,1.0611,-1.342794E-05,15.9165,0
1.062,-1.409934E-05,15.93,0,1.062,0.0002252537,15.93,0
1.0629,7.620356E-05,15.9435,0,1.0629,0.0002574807,15.9435,0
1.0638,0.0001171588,15.957,0,1.0638,2.719158E-05,15.957,0
1.0647,8.392462E-05,15.9705,0,1.0647,-6.378271E-06,15.9705,0
1.0656,-5.706874E-05,15.984,0,1.0656,4.229801E-05,15.984,0
1.0665,-5.941863E-05,15.9975,0,1.0665,6.948959E-05,15.9975,0
1.0674,2.081331E-05,16.011,0,1.0674,3.390555E-05,16.011,0
1.0683,0.0001245441,16.0245,0,1.0683,-0.0001087663,16.0245,0
1.0692,0.0001044022,16.038,0,1.0692,-0.0003145495,16.038,0
1.0701,-6.74754E-05,16.0515,0,1.0701,-0.0004975051,16.0515,0
1.071,-3.256275E-05,16.065,0,1.071,-0.0003571832,16.065,0
1.0719,9.735256E-05,16.0785,0,1.0719,-0.0001131304,16.0785,0
1.0728,-7.150377E-05,16.092,0,1.0728,9.063859E-06,16.092,0
1.0737,7.721065E-06,16.1055,0,1.0737,-4.867628E-05,16.1055,0
1.0746,0.000323949,16.119,0,1.0746,-1.544213E-05,16.119,0
1.0755,0.0001597925,16.1325,0,1.0755,0.0002289464,16.1325,0
1.0764,1.947051E-05,16.146,0,1.0764,0.0003283131,16.146,0
1.0773,0.0001309224,16.1595,0,1.0773,0.000281651,16.1595,0
1.0782,-4.565499E-05,16.173,0,1.0782,0.000263859,16.173,0
1.0791,-0.0001822843,16.1865,0,1.0791,0.0001453574,16.1865,0
1.08,-0.0001654994,16.2,0,1.08,-1.644922E-05,16.2,0
1.0809,-0.0001510643,16.2135,0,1.0809,-4.196231E-05,16.2135,0
1.0818,-0.0001638209,16.227,0,1.0818,1.107805E-05,16.227,0
1.0827,-0.0001715419,16.2405,0,1.0827,0.000148043,16.2405,0
1.0836,-0.0001554284,16.254,0,1.0836,9.567407E-05,16.254,0
1.0845,-5.001907E-05,16.2675,0,1.0845,-4.33051E-05,16.2675,0
1.0854,3.659113E-05,16.281,0,1.0854,-0.0001564355,16.281,0
1.0863,7.721065E-06,16.2945,0,1.0863,-6.6804E-05,16.2945,0
1.0872,1.174945E-05,16.308,0,1.0872,-0.0001198444,16.308,0
1.0881,0.0002222324,16.3215,0,1.0881,-0.0002212253,16.3215,0
1.089,0.0002386816,16.335,0,1.089,-5.941863E-05,16.335,0
1.0899,-9.735256E-06,16.3485,0,1.0899,-8.191043E-05,16.3485,0
1.0908,-0.0001171588,16.362,0,1.0908,-0.0002151827,16.362,0
1.0917,-0.000193698,16.3755,0,1.0917,-0.0001379721,16.3755,0
1.0926,-0.0001829557,16.389,0,1.0926,-0.0001497215,16.389,0
1.0935,-3.692683E-05,16.4025,0,1.0935,-5.874724E-05,16.4025,0
1.0944,-1.007095E-06,16.416,0,1.0944,9.567407E-05,16.416,0
1.0953,0.0002601663,16.4295,0,1.0953,5.203327E-05,16.4295,0
1.0962,0.0001732204,16.443,0,1.0962,1.309224E-05,16.443,0
1.0971,-4.196231E-05,16.4565,0,1.0971,-8.72816E-05,16.4565,0
1.098,7.183947E-05,16.47,0,1.098,-0.0001597925,16.47,0
1.0989,5.706874E-06,16.4835,0,1.0989,-8.358892E-05,16.4835,0
1.0998,-0.0001399863,16.497,0,1.0998,-1.678492E-06,16.497,0
1.1007,-7.553216E-05,16.5105,0,1.1007,-6.6804E-05,16.5105,0
1.1016,-3.793393E-05,16.524,0,1.1016,-0.0001698634,16.524,0
1.1025,-0.0001832914,16.5375,0,1.1025,-0.0002403601,16.5375,0
1.1034,-3.793393E-05,16.551,0,1.1034,-0.0001688563,16.551,0
1.1043,8.96315E-05,16.5645,0,1.1043,-9.298848E-05,16.5645,0
1.1052,-0.0002000763,16.578,0,1.1052,-4.867628E-05,16.578,0
1.1061,-0.0002712444,16.5915,0,1.1061,0.0001258869,16.5915,0
1.107,7.620356E-05,16.605,0,1.107,0.000291722,16.605,0
1.1079,0.0001151446,16.6185,0,1.1079,0.0002746014,16.6185,0
1.1088,1.040665E-05,16.632,0,1.1088,2.786297E-05,16.632,0
1.1097,-0.0001822843,16.6455,0,1.1097,3.726253E-05,16.6455,0
1.1106,-0.0003017929,16.659,0,1.1106,2.081331E-05,16.659,0
1.1115,-0.000257145,16.6725,0,1.1115,-1.275654E-05,16.6725,0
1.1124,-0.0001104448,16.686,0,1.1124,-5.706874E-06,16.686,0
1.1133,-0.000239353,16.6995,0,1.1133,8.493171E-05,16.6995,0
1.1142,-0.0001671778,16.713,0,1.1142,6.277562E-05,16.713,0
1.1151,-2.719158E-05,16.7265,0,1.1151,-9.500267E-05,16.7265,0
1.116,-2.21561E-05,16.74,0,1.116,2.786297E-05,16.74,0
1.1169,-7.687495E-05,16.7535,0,1.1169,5.673304E-05,16.7535,0
1.1178,8.224613E-05,16.767,0,1.1178,-0.0001470359,16.767,0
1.1187,5.035477E-06,16.7805,0,1.1187,-0.0001178302,16.7805,0
1.1196,-0.0001030594,16.794,0,1.1196,-7.620356E-05,16.794,0
1.1205,-5.706874E-06,16.8075,0,1.1205,-0.0001255512,16.8075,0
1.1214,3.961242E-05,16.821,0,1.1214,-0.0002306248,16.821,0
1.1223,3.659113E-05,16.8345,0,1.1223,-0.0001527428,16.8345,0
1.1232,0.0001379721,16.848,0,1.1232,0.0002118257,16.848,0
1.1241,0.0001816129,16.8615,0,1.1241,3.121996E-05,16.8615,0
1.125,6.881819E-05,16.875,0,1.125,-0.0002396887,16.875,0
1.1259,0.0001554284,16.8885,0,1.1259,-0.0002433814,16.8885,0
1.1268,0.0001211871,16.902,0,1.1268,-0.0001829557,16.902,0
1.1277,6.210422E-05,16.9155,0,1.1277,-0.0001947051,16.9155,0
1.1286,9.970245E-05,16.929,0,1.1286,-0.0001493858,16.929,0
1.1295,-1.812772E-05,16.9425,0,1.1295,-0.000115816,16.9425,0
1.1304,-2.685588E-05,16.956,0,1.1304,-9.735256E-05,16.956,0
1.1313,2.349889E-05,16.9695,0,1.1313,-0.0001819486,16.9695,0
1.1322,5.673304E-05,16.983,0,1.1322,-2.081331E-05,16.983,0
1.1331,2.584878E-05,16.9965,0,1.1331,0.0001131304,16.9965,0
1.134,2.047761E-05,17.01,0,1.134,0.0002138399,17.01,0
1.1349,4.666209E-05,17.0235,0,1.1349,0.0003716182,17.0235,0
1.1358,0.0001040665,17.037,0,1.1358,0.0004666209,17.037,0
1.1367,5.069047E-05,17.0505,0,1.1367,0.0005609522,17.0505,0
1.1376,-0.0001544213,17.064,0,1.1376,0.0003756466,17.064,0
1.1385,7.049668E-06,17.0775,0,1.1385,0.0002185397,17.0775,0
1.1394,0.0001218585,17.091,0,1.1394,0.0002239109,17.091,0
1.1403,-4.599069E-05,17.1045,0,1.1403,0.0002232395,17.1045,0
1.1412,2.383459E-05,17.118,0,1.1412,5.203327E-05,17.118,0
1.1421,0.0001339437,17.1315,0,1.1421,-0.0002843366,17.1315,0
1.143,-6.076142E-05,17.145,0,1.143,-0.0003098497,17.145,0
1.1439,3.289845E-05,17.1585,0,1.1439,-0.0002880293,17.1585,0
1.1448,9.701686E-05,17.172,0,1.1448,-0.0003132067,17.172,0
1.1457,0.0001789273,17.1855,0,1.1457,-7.452507E-05,17.1855,0
1.1466,8.358892E-05,17.199,0,1.1466,0.0001889983,17.199,0
1.1475,7.620356E-05,17.2125,0,1.1475,0.0002138399,17.2125,0
1.1484,3.457694E-05,17.226,0,1.1484,0.0001712062,17.226,0
1.1493,6.277562E-05,17.2395,0,1.1493,-6.814679E-05,17.2395,0
1.1502,-8.728161E-06,17.253,0,1.1502,-0.0002678874,17.253,0
1.1511,-0.0001594568,17.2665,0,1.1511,-0.0004860914,17.2665,0
1.152,-0.000185977,17.28,0,1.152,-0.0007147021,17.28,0
1.1529,-9.063859E-06,17.2935,0,1.1529,-0.0005582666,17.2935,0
1.1538,-3.356985E-07,17.307,0,1.1538,0.0001275654,17.307,0
1.1547,-2.014191E-06,17.3205,0,1.1547,0.0006388342,17.3205,0
1.1556,0.0001641566,17.334,0,1.1556,0.0007815061,17.334,0
1.1565,-3.289845E-05,17.3475,0,1.1565,0.0005445029,17.3475,0
1.1574,-0.0001154803,17.361,0,1.1574,0.0002477455,17.361,0
1.1583,-4.800488E-05,17.3745,0,1.1583,2.752728E-05,17.3745,0
1.1592,-0.0001802701,17.388,0,1.1592,-4.229801E-05,17.388,0
1.1601,-0.0002531167,17.4015,0,1.1601,-5.606165E-05,17.4015,0
1.161,-0.0001285725,17.415,0,1.161,-0.0001463645,17.415,0
1.1619,2.383459E-05,17.4285,0,1.1619,-0.000189334,17.4285,0
1.1628,-7.351797E-05,17.442,0,1.1628,-0.0002601663,17.442,0
1.1637,-0.0002044404,17.4555,0,1.1637,-0.0001587854,17.4555,0
1.1646,-0.0002789654,17.469,0,1.1646,-0.0001755703,17.469,0
1.1655,-0.0002863508,17.4825,0,1.1655,-0.0001651637,17.4825,0
1.1664,-9.030289E-05,17.496,0,1.1664,-0.0001399863,17.496,0
1.1673,7.049668E-06,17.5095,0,1.1673,-7.016098E-05,17.5095,0
1.1682,0.000164828,17.523,0,1.1682,-0.0001050736,17.523,0
1.1691,0.000327306,17.5365,0,1.1691,-0.000193698,17.5365,0
1.17,0.0002406958,17.55,0,1.17,-7.721065E-05,17.55,0
1.1709,0.0001809415,17.5635,0,1.1709,-8.761731E-05,17.5635,0
1.1718,0.0001681849,17.577,0,1.1718,-0.0002057832,17.577,0
1.1727,1.577783E-05,17.5905,0,1.1727,-0.0001651637,17.5905,0
1.1736,9.634547E-05,17.604,0,1.1736,3.356985E-06,17.604,0
1.1745,0.0002353246,17.6175,0,1.1745,-4.565499E-05,17.6175,0
1.1754,0.0001762417,17.631,0,1.1754,-3.524834E-05,17.631,0
1.1763,0.0001440146,17.6445,0,1.1763,-4.934768E-05,17.6445,0
1.1772,1.846342E-05,17.658,0,1.1772,-6.378271E-06,17.658,0
1.1781,-7.385367E-06,17.6715,0,1.1781,-1.712062E-05,17.6715,0
1.179,8.761731E-05,17.685,0,1.179,-6.881819E-05,17.685,0
1.1799,2.786297E-05,17.6985,0,1.1799,-5.841154E-05,17.6985,0
1.1808,-9.600977E-05,17.712,0,1.1808,4.263371E-05,17.712,0
1.1817,-7.553216E-05,17.7255,0,1.1817,-3.021286E-06,17.7255,0
1.1826,-8.96315E-05,17.739,0,1.1826,-0.0001409934,17.739,0
1.1835,-0.0002437171,17.7525,0,1.1835,-2.450599E-05,17.7525,0
1.1844,-0.000316228,17.766,0,1.1844,-4.968337E-05,17.766,0
1.1853,-0.0001346151,17.7795,0,1.1853,-0.000119173,17.7795,0
1.1862,-2.987716E-05,17.793,0,1.1862,5.035477E-06,17.793,0
1.1871,-0.0002017548,17.8065,0,1.1871,0.0001044022,17.8065,0
1.188,-0.0001967193,17.82,0,1.188,0.0001104448,17.82,0
1.1889,-0.0001560998,17.8335,0,1.1889,0.0002662089,17.8335,0
1.1898,-7.284657E-05,17.847,0,1.1898,2.685588E-05,17.847,0
1.1907,-0.0001322652,17.8605,0,1.1907,-0.0001228656,17.8605,0
1.1916,-0.000252781,17.874,0,1.1916,-0.0002088045,17.874,0
1.1925,-6.57969E-05,17.8875,0,1.1925,-0.0002940719,17.8875,0
1.1934,0.0001916838,17.901,0,1.1934,-0.000190341,17.901,0
1.1943,0.0001362936,17.9145,0,1.1943,6.009003E-05,17.9145,0
1.1952,1.846342E-05,17.928,0,1.1952,0.0002514381,17.928,0
1.1961,6.478981E-05,17.9415,0,1.1961,0.0002400244,17.9415,0
1.197,-8.224613E-05,17.955,0,1.197,0.0003212634,17.955,0
1.1979,-0.0002034333,17.9685,0,1.1979,0.0002057832,17.9685,0
1.1988,-9.802396E-05,17.982,0,1.1988,-1.107805E-05,17.982,0
1.1997,7.385367E-06,17.9955,0,1.1997,5.774014E-05,17.9955,0
1.2006,-0.0001819486,18.009,0,1.2006,3.256275E-05,18.009,0
1.2015,-0.0001470359,18.0225,0,1.2015,-0.0002061189,18.0225,0
1.2024,2.014191E-06,18.036,0,1.2024,-0.0001409934,18.036,0
1.2033,2.517739E-05,18.0495,0,1.2033,-0.0001416648,18.0495,0
1.2042,-3.424125E-05,18.063,0,1.2042,-0.0001728847,18.063,0
1.2051,-1.242084E-05,18.0765,0,1.2051,-9.802396E-05,18.0765,0
1.206,7.687495E-05,18.09,0,1.206,-4.46479E-05,18.09,0
1.2069,1.443504E-05,18.1035,0,1.2069,-0.0001926909,18.1035,0
1.2078,-0.000119173,18.117,0,1.2078,9.903105E-05,18.117,0
1.2087,-4.53193E-05,18.1305,0,1.2087,0.0002598306,18.1305,0
1.2096,0.0001138018,18.144,0,1.2096,0.0001282368,18.144,0
1.2105,1.242084E-05,18.1575,0,1.2105,0.0001174945,18.1575,0
1.2114,6.210422E-05,18.171,0,1.2114,2.719158E-05,18.171,0
1.2123,0.0001178302,18.1845,0,1.2123,-0.0001641566,18.1845,0
1.2132,0.0001963836,18.198,0,1.2132,-0.0002141756,18.198,0
1.2141,3.189136E-05,18.2115,0,1.2141,-7.418937E-05,18.2115,0
1.215,5.169757E-05,18.225,0,1.215,6.51255E-05,18.225,0
1.2159,5.874724E-05,18.2385,0,1.2159,0.0001638209,18.2385,0
1.2168,0.0001769131,18.252,0,1.2168,0.0001500572,18.252,0
1.2177,0.0001262226,18.2655,0,1.2177,0.0002077974,18.2655,0
1.2186,-0.0001097734,18.279,0,1.2186,0.0001584497,18.279,0
1.2195,2.920577E-05,18.2925,0,1.2195,-0.0001426719,18.2925,0
1.2204,9.433127E-05,18.306,0,1.2204,-0.0002272679,18.306,0
1.2213,-5.572595E-05,18.3195,0,1.2213,-1.544213E-05,18.3195,0
1.2222,-1.678492E-05,18.333,0,1.2222,-9.030289E-05,18.333,0
1.2231,0.0001409934,18.3465,0,1.2231,-0.0004051881,18.3465,0
1.224,3.356985E-05,18.36,0,1.224,-0.0004045167,18.36,0
1.2249,2.1149E-05,18.3735,0,1.2249,-0.0003172351,18.3735,0
1.2258,4.867628E-05,18.387,0,1.2258,-0.0003074998,18.387,0
1.2267,-0.0002101472,18.4005,0,1.2267,-0.0001440146,18.4005,0
1.2276,-0.0002715801,18.414,0,1.2276,0.0003756466,18.414,0
1.2285,-0.0001017166,18.4275,0,1.2285,0.0009161212,18.4275,0
1.2294,-5.807584E-05,18.441,0,1.2294,0.0008157473,18.441,0
1.2303,6.378271E-06,18.4545,0,1.2303,0.0004978409,18.4545,0
1.2312,0.0001873197,18.468,0,1.2312,0.0003410697,18.468,0
1.2321,0.0004394293,18.4815,0,1.2321,0.0001211871,18.4815,0
1.233,0.0003085069,18.495,0,1.233,-0.0001013809,18.495,0
1.2339,0.0001916838,18.5085,0,1.2339,-0.0001889983,18.5085,0
1.2348,3.625543E-05,18.522,0,1.2348,-9.365987E-05,18.522,0
1.2357,-7.318227E-05,18.5355,0,1.2357,-0.0001668421,18.5355,0
1.2366,6.54612E-05,18.549,0,1.2366,-0.0003038071,18.549,0
1.2375,3.860533E-05,18.5625,0,1.2375,-0.0001802701,18.5625,0
1.2384,-0.0001393149,18.576,0,1.2384,-0.0001789273,18.576,0
1.2393,-0.000102388,18.5895,0,1.2393,-0.0003074998,18.5895,0
1.2402,-2.24918E-05,18.603,0,1.2402,-0.0002185397,18.603,0
1.2411,-0.0001322652,18.6165,0,1.2411,-0.0001245441,18.6165,0
1.242,-0.0001097734,18.63,0,1.242,-0.000161471,18.63,0
1.2429,-0.0001064164,18.6435,0,1.2429,-0.0001658351,18.6435,0
1.2438,-5.740444E-05,18.657,0,1.2438,-0.0002302892,18.657,0
1.2447,-1.779202E-05,18.6705,0,1.2447,-9.164568E-05,18.6705,0
1.2456,-0.0001393149,18.684,0,1.2456,-5.471885E-05,18.684,0
1.2465,-0.0001440146,18.6975,0,1.2465,-0.0001218585,18.6975,0
1.2474,-0.0002504311,18.711,0,1.2474,-0.0001121233,18.711,0
1.2483,-0.0003984741,18.7245,0,1.2483,-2.450599E-05,18.7245,0
1.2492,-0.0002165255,18.738,0,1.2492,-4.53193E-05,18.738,0
1.2501,7.687495E-05,18.7515,0,1.2501,-0.0001443503,18.7515,0
1.251,0.0002312963,18.765,0,1.251,3.390555E-05,18.765,0
1.2519,0.0005314107,18.7785,0,1.2519,6.6804E-05,18.7785,0
1.2528,0.0005320821,18.792,0,1.2528,-7.653925E-05,18.792,0
1.2537,0.0003534905,18.8055,0,1.2537,-6.277562E-05,18.8055,0
1.2546,0.0003202563,18.819,0,1.2546,1.712062E-05,18.819,0
1.2555,0.0001661708,18.8325,0,1.2555,8.392462E-06,18.8325,0
1.2564,-6.076142E-05,18.846,0,1.2564,-1.577783E-05,18.846,0
1.2573,-0.0001467002,18.8595,0,1.2573,-4.733349E-05,18.8595,0
1.2582,-0.0002098116,18.873,0,1.2582,6.411841E-05,18.873,0
1.2591,-0.0003534905,18.8865,0,1.2591,1.779202E-05,18.8865,0
1.26,-0.0003028,18.9,0,1.26,-0.0001453574,18.9,0
1.2609,5.941863E-05,18.9135,0,1.2609,-8.459602E-05,18.9135,0
1.2618,7.217517E-05,18.927,0,1.2618,0.0001806058,18.927,0
1.2627,6.411841E-05,18.9405,0,1.2627,6.411841E-05,18.9405,0
1.2636,0.0001977264,18.954,0,1.2636,-0.0001020523,18.954,0
1.2645,-5.001907E-05,18.9675,0,1.2645,5.069047E-05,18.9675,0
1.2654,-0.0001994049,18.981,0,1.2654,8.627451E-05,18.981,0
1.2663,-7.083238E-05,18.9945,0,1.2663,-4.934768E-05,18.9945,0
1.2672,-0.0001406577,19.008,0,1.2672,-5.941863E-05,19.008,0
1.2681,-0.0002608377,19.0215,0,1.2681,6.411841E-05,19.0215,0
1.269,-0.0001779202,19.035,0,1.269,-1.443504E-05,19.035,0
1.2699,-0.0001262226,19.0485,0,1.2699,-0.0001225299,19.0485,0
1.2708,-0.0001295796,19.062,0,1.2708,-2.1149E-05,19.062,0
1.2717,-0.0001040665,19.0755,0,1.2717,9.500267E-05,19.0755,0
1.2726,-0.0001863127,19.089,0,1.2726,-1.779202E-05,19.089,0
1.2735,-0.0001926909,19.1025,0,1.2735,-0.0001094377,19.1025,0
1.2744,-8.661021E-05,19.116,0,1.2744,-0.000102388,19.116,0
1.2753,-0.0001077592,19.1295,0,1.2753,-6.210422E-05,19.1295,0
1.2762,-0.0001097734,19.143,0,1.2762,-0.0002138399,19.143,0
1.2771,1.040665E-05,19.1565,0,1.2771,-0.0003001145,19.1565,0
1.278,-3.457694E-05,19.17,0,1.278,-4.599069E-05,19.17,0
1.2789,0.0001272297,19.1835,0,1.2789,0.0001326009,19.1835,0
1.2798,0.0003017929,19.197,0,1.2798,0.0002756084,19.197,0
1.2807,0.0001524071,19.2105,0,1.2807,0.0002678874,19.2105,0
1.2816,4.800488E-05,19.224,0,1.2816,0.0001138018,19.224,0
1.2825,3.692683E-06,19.2375,0,1.2825,-3.256275E-05,19.2375,0
1.2834,-1.342794E-06,19.251,0,1.2834,-9.735256E-05,19.251,0
1.2843,8.996719E-05,19.2645,0,1.2843,-0.000197055,19.2645,0
1.2852,6.176852E-05,19.278,0,1.2852,0.0001117876,19.278,0
1.2861,-5.606165E-05,19.2915,0,1.2861,6.143282E-05,19.2915,0
1.287,-2.685588E-06,19.305,0,1.287,6.076142E-05,19.305,0
1.2879,3.323415E-05,19.3185,0,1.2879,0.0002682231,19.3185,0
1.2888,-4.46479E-05,19.332,0,1.2888,0.00051664,19.332,0
1.2897,5.606165E-05,19.3455,0,1.2897,0.0003192493,19.3455,0
1.2906,4.699779E-05,19.359,0,1.2906,4.867628E-05,19.359,0
1.2915,-5.136187E-05,19.3725,0,1.2915,3.659113E-05,19.3725,0
1.2924,-0.0001205158,19.386,0,1.2924,-3.256275E-05,19.386,0
1.2933,8.728161E-06,19.3995,0,1.2933,-0.0001379721,19.3995,0
1.2942,7.217517E-05,19.413,0,1.2942,-4.599069E-05,19.413,0
1.2951,-7.351797E-05,19.4265,0,1.2951,5.337606E-05,19.4265,0
1.296,-6.042573E-06,19.44,0,1.296,-1.611353E-05,19.44,0
1.2969,-1.947051E-05,19.4535,0,1.2969,6.344701E-05,19.4535,0
1.2978,6.814679E-05,19.467,0,1.2978,8.426032E-05,19.467,0
1.2987,0.0001544213,19.4805,0,1.2987,5.035477E-05,19.4805,0
1.2996,7.049668E-06,19.494,0,1.2996,8.96315E-05,19.494,0
1.3005,4.46479E-05,19.5075,0,1.3005,0.0001389792,19.5075,0
1.3014,0.0001077592,19.521,0,1.3014,-0.0002450599,19.521,0
1.3023,-9.332418E-05,19.5345,0,1.3023,-0.000197055,19.5345,0
1.3032,-4.33051E-05,19.548,0,1.3032,-0.0001554284,19.548,0
1.3041,0.0001426719,19.5615,0,1.3041,-0.0002259251,19.5615,0
1.305,-2.383459E-05,19.575,0,1.305,-8.258183E-05,19.575,0
1.3059,-0.0001017166,19.5885,0,1.3059,-9.835965E-05,19.5885,0
1.3068,-3.356985E-07,19.602,0,1.3068,-0.0002198825,19.602,0
1.3077,-2.752728E-05,19.6155,0,1.3077,-0.0001148089,19.6155,0
1.3086,-0.0001594568,19.629,0,1.3086,-5.001907E-05,19.629,0
1.3095,-0.0001473716,19.6425,0,1.3095,-0.0001554284,19.6425,0
1.3104,2.349889E-05,19.656,0,1.3104,-0.000190341,19.656,0
1.3113,0.0002682231,19.6695,0,1.3113,-0.0001416648,19.6695,0
1.3122,0.0002762798,19.683,0,1.3122,4.196231E-05,19.683,0
1.3131,-5.941863E-05,19.6965,0,1.3131,-7.586786E-05,19.6965,0
1.314,-0.0001383078,19.71,0,1.314,-0.0001822843,19.71,0
1.3149,7.418937E-05,19.7235,0,1.3149,-9.164568E-05,19.7235,0
1.3158,0.0001473716,19.737,0,1.3158,4.800488E-05,19.737,0
1.3167,0.0002722515,19.7505,0,1.3167,2.954147E-05,19.7505,0
1.3176,0.0001913481,19.764,0,1.3176,-3.860533E-05,19.764,0
1.3185,2.24918E-05,19.7775,0,1.3185,2.987716E-05,19.7775,0
1.3194,0.0001299153,19.791,0,1.3194,6.57969E-05,19.791,0
1.3203,0.0001631495,19.8045,0,1.3203,7.385367E-06,19.8045,0
1.3212,-6.311131E-05,19.818,0,1.3212,7.049668E-05,19.818,0
1.3221,-0.0001564355,19.8315,0,1.3221,-4.29694E-05,19.8315,0
1.323,-0.0002057832,19.845,0,1.323,-0.0001517357,19.845,0
1.3239,-0.0001554284,19.8585,0,1.3239,-0.0001782559,19.8585,0
1.3248,4.33051E-05,19.872,0,1.3248,-0.0001591211,19.872,0
1.3257,-4.129091E-05,19.8855,0,1.3257,-2.987716E-05,19.8855,0
1.3266,6.210422E-05,19.899,0,1.3266,-3.088426E-05,19.899,0
1.3275,7.620356E-05,19.9125,0,1.3275,-0.000102388,19.9125,0
1.3284,3.021286E-06,19.926,0,1.3284,-0.0001030594,19.926,0
1.3293,-0.0001728847,19.9395,0,1.3293,-2.1149E-05,19.9395,0
1.3302,-0.0001037308,19.953,0,1.3302,-8.627451E-05,19.953,0
1.3311,0.0001379721,19.9665,0,1.3311,-0.0001205158,19.9665,0
1.332,-1.376364E-05,19.98,0,1.332,0.000189334,19.98,0
1.3329,-0.0001171588,19.9935,0,1.3329,0.0003434196,19.9935,0
1.3338,-1.745632E-05,20.007,0,1.3338,0.0001795987,20.007,0
1.3347,1.544213E-05,20.0205,0,1.3347,0.0001161517,20.0205,0
1.3356,-0.0002124971,20.034,0,1.3356,0.0001030594,20.034,0
1.3365,-8.392462E-05,20.0475,0,1.3365,-5.069047E-05,20.0475,0
1.3374,-6.210422E-05,20.061,0,1.3374,-4.699779E-05,20.061,0
1.3383,-0.0001027237,20.0745,0,1.3383,-0.0002098116,20.0745,0
1.3392,6.411841E-05,20.088,0,1.3392,-0.0003833677,20.088,0
1.3401,-8.426032E-05,20.1015,0,1.3401,-0.0002017548,20.1015,0
1.341,-0.0001514,20.115,0,1.341,-0.0002051118,20.115,0
1.3419,-9.433127E-05,20.1285,0,1.3419,-0.0001030594,20.1285,0
1.3428,-0.0001668421,20.142,0,1.3428,8.224613E-05,20.142,0
1.3437,-0.0001816129,20.1555,0,1.3437,6.378271E-06,20.1555,0
1.3446,6.61326E-05,20.169,0,1.3446,0,20.169,0
1.3455,7.116808E-05,20.1825,0,1.3455,0.0002625162,20.1825,0
1.3464,5.606165E-05,20.196,0,1.3464,0.0002803082,20.196,0
1.3473,0.0002212253,20.2095,0,1.3473,8.157473E-05,20.2095,0
1.3482,0.0001873197,20.223,0,1.3482,3.524834E-05,20.223,0
1.3491,5.203327E-05,20.2365,0,1.3491,0.000197055,20.2365,0
1.35,9.634547E-05,20.25,0,1.35,0.0001426719,20.25,0
1.3509,8.69459E-05,20.2635,0,1.3509,-5.270466E-05,20.2635,0
1.3518,2.920577E-05,20.277,0,1.3518,-0.0001467002,20.277,0
1.3527,2.349889E-05,20.2905,0,1.3527,-3.994812E-05,20.2905,0
1.3536,-0.0001258869,20.304,0,1.3536,8.96315E-05,20.304,0
1.3545,1.409934E-05,20.3175,0,1.3545,3.189136E-05,20.3175,0
1.3554,5.270466E-05,20.331,0,1.3554,-8.996719E-05,20.331,0
1.3563,-0.0001104448,20.3445,0,1.3563,-5.606165E-05,20.3445,0
1.3572,-6.378271E-05,20.358,0,1.3572,-0.0001399863,20.358,0
1.3581,0.000102388,20.3715,0,1.3581,-3.625543E-05,20.3715,0
1.359,1.040665E-05,20.385,0,1.359,0.0002306248,20.385,0
1.3599,9.332418E-05,20.3985,0,1.3599,0.0001712062,20.3985,0
1.3608,8.661021E-05,20.412,0,1.3608,-2.987716E-05,20.412,0
1.3617,-4.33051E-05,20.4255,0,1.3617,-2.047761E-05,20.4255,0
1.3626,-2.853437E-05,20.439,0,1.3626,-1.846342E-05,20.439,0
1.3635,-6.277562E-05,20.4525,0,1.3635,-0.0002353246,20.4525,0
1.3644,-7.049668E-06,20.466,0,1.3644,-0.0001789273,20.466,0
1.3653,9.835965E-05,20.4795,0,1.3653,-0.0001221943,20.4795,0
1.3662,3.390555E-05,20.493,0,1.3662,1.678492E-06,20.493,0
1.3671,-9.634547E-05,20.5065,0,1.3671,1.409934E-05,20.5065,0
1.368,1.510643E-05,20.52,0,1.368,-0.0001171588,20.52,0
1.3689,0.0001030594,20.5335,0,1.3689,-5.505455E-05,20.5335,0
1.3698,-0.0001144732,20.547,0,1.3698,2.853437E-05,20.547,0
1.3707,-7.049668E-05,20.5605,0,1.3707,-6.61326E-05,20.5605,0
1.3716,9.365987E-05,20.574,0,1.3716,-0.0001560998,20.574,0
1.3725,-3.256275E-05,20.5875,0,1.3725,-1.913481E-05,20.5875,0
1.3734,0.000109102,20.601,0,1.3734,8.72816E-05,20.601,0
1.3743,0.000158114,20.6145,0,1.3743,1.309224E-05,20.6145,0
1.3752,-6.478981E-05,20.628,0,1.3752,-0.0001040665,20.628,0
1.3761,-0.0001225299,20.6415,0,1.3761,-1.007095E-06,20.6415,0
1.377,-5.001907E-05,20.655,0,1.377,0.0001373007,20.655,0
1.3779,-8.224613E-05,20.6685,0,1.3779,0.0001930266,20.6685,0
1.3788,-0.0001433432,20.682,0,1.3788,-1.007095E-06,20.682,0
1.3797,-6.344701E-05,20.6955,0,1.3797,0.000148043,20.6955,0
1.3806,4.53193E-05,20.709,0,1.3806,0.0002487526,20.709,0
1.3815,-3.927672E-05,20.7225,0,1.3815,3.591974E-05,20.7225,0
1.3824,0.0001000381,20.736,0,1.3824,-0.0001131304,20.736,0
1.3833,9.634547E-05,20.7495,0,1.3833,-5.169757E-05,20.7495,0
1.3842,9.735256E-06,20.763,0,1.3842,-3.625543E-05,20.763,0
1.3851,5.740444E-05,20.7765,0,1.3851,-9.030289E-05,20.7765,0
1.386,-9.063859E-05,20.79,0,1.386,0,20.79,0
1.3869,-0.0001977264,20.8035,0,1.3869,-2.987716E-05,20.8035,0
1.3878,-8.023193E-05,20.817,0,1.3878,-0.0001601282,20.817,0
1.3887,-0.0001775845,20.8305,0,1.3887,-0.0001560998,20.8305,0
1.3896,-0.0001467002,20.844,0,1.3896,-0.0001406577,20.844,0
1.3905,-7.855344E-05,20.8575,0,1.3905,-0.0001591211,20.8575,0
1.3914,4.934768E-05,20.871,0,1.3914,-9.164568E-05,20.871,0
1.3923,0.000140322,20.8845,0,1.3923,-0.0001520714,20.8845,0
1.3932,1.040665E-05,20.898,0,1.3932,-8.258183E-05,20.898,0
1.3941,6.814679E-05,20.9115,0,1.3941,1.309224E-05,20.9115,0
1.395,8.89601E-05,20.925,0,1.395,8.728161E-06,20.925,0
1.3959,-0.0001258869,20.9385,0,1.3959,-2.517739E-05,20.9385,0
1.3968,-0.0003155566,20.952,0,1.3968,3.826963E-05,20.952,0
1.3977,-0.0002655375,20.9655,0,1.3977,5.774014E-05,20.9655,0
1.3986,-0.0001963836,20.979,0,1.3986,-1.980621E-05,20.979,0
1.3995,-0.0001208515,20.9925,0,1.3995,4.599069E-05,20.9925,0
1.4004,0.0003219348,21.006,0,1.4004,4.39765E-05,21.006,0
1.4013,0.0005018692,21.0195,0,1.4013,-5.572595E-05,21.0195,0
1.4022,0.0001748989,21.033,0,1.4022,-2.1149E-05,21.033,0
1.4031,-4.867628E-05,21.0465,0,1.4031,-3.994812E-05,21.0465,0
1.404,-7.284657E-05,21.06,0,1.404,-1.846342E-05,21.06,0
1.4049,-8.090334E-05,21.0735,0,1.4049,5.001907E-05,21.0735,0
1.4058,3.088426E-05,21.087,0,1.4058,-1.309224E-05,21.087,0
1.4067,5.236896E-05,21.1005,0,1.4067,6.6804E-05,21.1005,0
1.4076,-0.0001517357,21.114,0,1.4076,-1.913481E-05,21.114,0
1.4085,-0.0001436789,21.1275,0,1.4085,-6.948959E-05,21.1275,0
1.4094,-7.721065E-05,21.141,0,1.4094,-5.807584E-05,21.141,0
1.4103,-0.0002000763,21.1545,0,1.4103,4.39765E-05,21.1545,0
1.4112,-0.0002302892,21.168,0,1.4112,-0.0001067521,21.168,0
1.4121,-5.001907E-05,21.1815,0,1.4121,-0.0001863127,21.1815,0
1.413,-0.0001097734,21.195,0,1.413,-3.356985E-06,21.195,0
1.4139,-2.081331E-05,21.2085,0,1.4139,1.577783E-05,21.2085,0
1.4148,9.634547E-05,21.222,0,1.4148,-7.016098E-05,21.222,0
1.4157,8.123904E-05,21.2355,0,1.4157,-3.927672E-05,21.2355,0
1.4166,5.706874E-06,21.249,0,1.4166,1.980621E-05,21.249,0
1.4175,8.86244E-05,21.2625,0,1.4175,3.356985E-07,21.2625,0
1.4184,8.96315E-05,21.276,0,1.4184,-2.28275E-05,21.276,0
1.4193,0.0002171969,21.2895,0,1.4193,-8.023193E-05,21.2895,0
1.4202,0.000224918,21.303,0,1.4202,2.719158E-05,21.303,0
1.4211,1.007095E-05,21.3165,0,1.4211,3.390555E-05,21.3165,0
1.422,3.189136E-05,21.33,0,1.422,-1.913481E-05,21.33,0
1.4229,0.0001050736,21.3435,0,1.4229,-5.673304E-05,21.3435,0
1.4238,-3.793393E-05,21.357,0,1.4238,-2.24918E-05,21.357,0
1.4247,-4.129091E-05,21.3705,0,1.4247,-4.666209E-05,21.3705,0
1.4256,-1.443504E-05,21.384,0,1.4256,-0.0002131685,21.384,0
1.4265,-0.0001067521,21.3975,0,1.4265,-0.0001131304,21.3975,0
1.4274,-0.000161471,21.411,0,1.4274,-9.332418E-05,21.411,0
1.4283,-5.337606E-05,21.4245,0,1.4283,-0.000186984,21.4245,0
1.4292,-6.243992E-05,21.438,0,1.4292,-1.242084E-05,21.438,0
1.4301,-7.821774E-05,21.4515,0,1.4301,6.57969E-05,21.4515,0
1.431,-8.728161E-06,21.465,0,1.431,8.69459E-05,21.465,0
1.4319,3.591974E-05,21.4785,0,1.4319,0.0001574426,21.4785,0
1.4328,2.652018E-05,21.492,0,1.4328,5.337606E-05,21.492,0
1.4337,-2.887007E-05,21.5055,0,1.4337,0.0001510643,21.5055,0
1.4346,7.620356E-05,21.519,0,1.4346,6.411841E-05,21.519,0
1.4355,0.0001688563,21.5325,0,1.4355,-5.539025E-05,21.5325,0
1.4364,7.418937E-05,21.546,0,1.4364,-2.853437E-05,21.546,0
1.4373,-5.706874E-06,21.5595,0,1.4373,4.43122E-05,21.5595,0
1.4382,8.82887E-05,21.573,0,1.4382,-1.712062E-05,21.573,0
1.4391,0.0001067521,21.5865,0,1.4391,-9.634547E-05,21.5865,0
1.44,1.007095E-06,21.6,0,1.44,7.418937E-05,21.6,0
1.4409,-1.007095E-05,21.6135,0,1.4409,0.0001037308,21.6135,0
1.4418,1.309224E-05,21.627,0,1.4418,-8.392462E-05,21.627,0
1.4427,-0.0001574426,21.6405,0,1.4427,-5.941863E-05,21.6405,0
1.4436,-0.0001540856,21.654,0,1.4436,-0.0001044022,21.654,0
1.4445,-0.0001238727,21.6675,0,1.4445,-0.0001856413,21.6675,0
1.4454,-7.486076E-05,21.681,0,1.4454,-0.0001889983,21.681,0
1.4463,7.016098E-05,21.6945,0,1.4463,-0.0001822843,21.6945,0
1.4472,0.0002020905,21.708,0,1.4472,0.0001148089,21.708,0
1.4481,-4.733349E-05,21.7215,0,1.4481,0.0002615091,21.7215,0
1.449,-0.000109102,21.735,0,1.449,-0.0001077592,21.735,0
1.4499,5.069047E-05,21.7485,0,1.4499,-0.0002302892,21.7485,0
1.4508,-5.001907E-05,21.762,0,1.4508,-0.0001104448,21.762,0
1.4517,-7.821774E-05,21.7755,0,1.4517,-1.376364E-05,21.7755,0
1.4526,7.049668E-05,21.789,0,1.4526,-0.0001010452,21.789,0
1.4535,-4.33051E-05,21.8025,0,1.4535,4.263371E-05,21.8025,0
1.4544,1.577783E-05,21.816,0,1.4544,0.0001715419,21.816,0
1.4553,0.000175906,21.8295,0,1.4553,0.0003041428,21.8295,0
1.4562,0.0001352865,21.843,0,1.4562,0.0004065309,21.843,0
1.4571,-5.505455E-05,21.8565,0,1.4571,0.0003266346,21.8565,0
1.458,-2.887007E-05,21.87,0,1.458,0.0001319295,21.87,0
1.4589,3.692683E-06,21.8835,0,1.4589,4.666209E-05,21.8835,0
1.4598,1.007095E-05,21.897,0,1.4598,-1.980621E-05,21.897,0
1.4607,-6.6804E-05,21.9105,0,1.4607,6.948959E-05,21.9105,0
1.4616,-0.0001389792,21.924,0,1.4616,3.961242E-05,21.924,0
1.4625,-0.0001681849,21.9375,0,1.4625,-2.21561E-05,21.9375,0
1.4634,-2.719158E-05,21.951,0,1.4634,-5.438316E-05,21.951,0
1.4643,-3.692683E-05,21.9645,0,1.4643,-0.0001017166,21.9645,0
1.4652,-6.881819E-05,21.978,0,1.4652,-0.0002490883,21.978,0
1.4661,0.0001822843,21.9915,0,1.4661,-0.0002336461,21.9915,0
1.467,0.0001607996,22.005,0,1.467,-3.021286E-06,22.005,0
1.4679,6.143282E-05,22.0185,0,1.4679,-4.129091E-05,22.0185,0
1.4688,-4.800488E-05,22.032,0,1.4688,-0.0001393149,22.032,0
1.4697,-0.0001873197,22.0455,0,1.4697,5.371176E-06,22.0455,0
1.4706,-0.0002890364,22.059,0,1.4706,7.418937E-05,22.059,0
1.4715,-0.000203769,22.0725,0,1.4715,-0.0001379721,22.0725,0
1.4724,-9.970245E-05,22.086,0,1.4724,-0.0001433432,22.086,0
1.4733,0.000235996,22.0995,0,1.4733,-0.000136965,22.0995,0
1.4742,0.0002682231,22.113,0,1.4742,-6.277562E-05,22.113,0
1.4751,0.0001856413,22.1265,0,1.4751,-3.356985E-07,22.1265,0
1.476,0.0001218585,22.14,0,1.476,-6.64683E-05,22.14,0
1.4769,7.083238E-05,22.1535,0,1.4769,-7.553216E-05,22.1535,0
1.4778,-9.835965E-05,22.167,0,1.4778,-2.450599E-05,22.167,0
1.4787,-0.000109102,22.1805,0,1.4787,-0.0001185016,22.1805,0
1.4796,-3.927672E-05,22.194,0,1.4796,-0.0002628519,22.194,0
1.4805,-0.0001393149,22.2075,0,1.4805,-6.277562E-05,22.2075,0
1.4814,-0.000119173,22.221,0,1.4814,2.920577E-05,22.221,0
1.4823,-0.0001571069,22.2345,0,1.4823,-3.524834E-05,22.2345,0
1.4832,-0.0002044404,22.248,0,1.4832,1.376364E-05,22.248,0
1.4841,-0.0002111543,22.2615,0,1.4841,0.0001520714,22.2615,0
1.485,-6.042573E-05,22.275,0,1.485,0.0001144732,22.275,0
1.4859,-4.36408E-06,22.2885,0,1.4859,-8.325322E-05,22.2885,0
1.4868,0.0002098116,22.302,0,1.4868,-0.0001054093,22.302,0
1.4877,0.0001953765,22.3155,0,1.4877,-1.779202E-05,22.3155,0
1.4886,-5.740444E-05,22.329,0,1.4886,3.088426E-05,22.329,0
1.4895,-6.64683E-05,22.3425,0,1.4895,-7.989624E-05,22.3425,0
1.4904,-5.706874E-06,22.356,0,1.4904,-0.000169192,22.356,0
1.4913,-0.0002101472,22.3695,0,1.4913,1.644922E-05,22.3695,0
1.4922,-0.0001829557,22.383,0,1.4922,-1.812772E-05,22.383,0
1.4931,9.735256E-06,22.3965,0,1.4931,-8.86244E-05,22.3965,0
1.494,-8.761731E-05,22.41,0,1.494,7.284657E-05,22.41,0
1.4949,6.277562E-05,22.4235,0,1.4949,6.344701E-05,22.4235,0
1.4958,0.0002897078,22.437,0,1.4958,-3.256275E-05,22.437,0
1.4967,0.0003299916,22.4505,0,1.4967,7.721065E-06,22.4505,0
1.4976,-3.021286E-06,22.464,0,1.4976,5.169757E-05,22.464,0
1.4985,1.846342E-05,22.4775,0,1.4985,-0.0001292439,22.4775,0
1.4994,0.0001420005,22.491,0,1.4994,-0.0001436789,22.491,0
1.5003,0.000144686,22.5045,0,1.5003,-0.0001816129,22.5045,0
1.5012,0.0001070878,22.518,0,1.5012,-6.814679E-05,22.518,0
1.5021,3.726253E-05,22.5315,0,1.5021,-1.443504E-05,22.5315,0
1.503,8.392462E-06,22.545,0,1.503,-3.793393E-05,22.545,0
1.5039,5.169757E-05,22.5585,0,1.5039,4.53193E-05,22.5585,0
1.5048,-3.189136E-05,22.572,0,1.5048,0.000203769,22.572,0
1.5057,-3.793393E-05,22.5855,0,1.5057,0.0001097734,22.5855,0
1.5066,0.0001117876,22.599,0,1.5066,-3.793393E-05,22.599,0
1.5075,-9.063859E-06,22.6125,0,1.5075,6.109713E-05,22.6125,0
1.5084,-8.392462E-06,22.626,0,1.5084,9.365987E-05,22.626,0
1.5093,-2.24918E-05,22.6395,0,1.5093,-5.606165E-05,22.6395,0
1.5102,-3.591974E-05,22.653,0,1.5102,-0.0001205158,22.653,0
1.5111,-8.090334E-05,22.6665,0,1.5111,-5.304036E-05,22.6665,0
1.512,-7.754635E-05,22.68,0,1.512,-0.0001020523,22.68,0
1.5129,-2.014191E-05,22.6935,0,1.5129,-3.591974E-05,22.6935,0
1.5138,5.471885E-05,22.707,0,1.5138,-5.572595E-05,22.707,0
1.5147,6.713969E-07,22.7205,0,1.5147,0.0002823224,22.7205,0
1.5156,-8.090334E-05,22.734,0,1.5156,0.0003004501,22.734,0
1.5165,-1.107805E-05,22.7475,0,1.5165,0.0001104448,22.7475,0
1.5174,-3.927672E-05,22.761,0,1.5174,-3.021286E-06,22.761,0
1.5183,-9.030289E-05,22.7745,0,1.5183,-5.371176E-06,22.7745,0
1.5192,-5.807584E-05,22.788,0,1.5192,-0.0001131304,22.788,0
1.5201,0.0001258869,22.8015,0,1.5201,-0.0002420386,22.8015,0
1.521,-1.644922E-05,22.815,0,1.521,-1.812772E-05,22.815,0
1.5219,-4.934768E-05,22.8285,0,1.5219,9.500267E-05,22.8285,0
1.5228,9.600977E-05,22.842,0,1.5228,2.853437E-05,22.842,0
1.5237,5.471885E-05,22.8555,0,1.5237,5.337606E-05,22.8555,0
1.5246,-5.941863E-05,22.869,0,1.5246,6.109713E-05,22.869,0
1.5255,-2.047761E-05,22.8825,0,1.5255,3.323415E-05,22.8825,0
1.5264,-0.0001097734,22.896,0,1.5264,5.035477E-05,22.896,0
1.5273,-1.477073E-05,22.9095,0,1.5273,-7.452507E-05,22.9095,0
1.5282,-6.713969E-07,22.923,0,1.5282,-6.57969E-05,22.923,0
1.5291,-0.0001433432,22.9365,0,1.5291,-8.056764E-05,22.9365,0
1.53,-3.356985E-05,22.95,0,1.53,-0.0001144732,22.95,0
1.5309,0.000119173,22.9635,0,1.5309,-0.000186984,22.9635,0
1.5318,-2.987716E-05,22.977,0,1.5318,1.174945E-05,22.977,0
1.5327,-3.121996E-05,22.9905,0,1.5327,0.0001393149,22.9905,0
1.5336,0.0001050736,23.004,0,1.5336,-1.644922E-05,23.004,0
1.5345,-3.524834E-05,23.0175,0,1.5345,6.6804E-05,23.0175,0
1.5354,-0.0002252537,23.031,0,1.5354,6.076142E-05,23.031,0
1.5363,-0.0001272297,23.0445,0,1.5363,-3.356985E-05,23.0445,0
1.5372,-2.987716E-05,23.058,0,1.5372,0.0001040665,23.058,0
1.5381,-0.0001772488,23.0715,0,1.5381,0.0001393149,23.0715,0
1.539,-0.0001326009,23.085,0,1.539,2.383459E-05,23.085,0
1.5399,-6.6804E-05,23.0985,0,1.5399,-0.0001537499,23.0985,0
1.5408,8.795301E-05,23.112,0,1.5408,-0.0001896696,23.112,0
1.5417,0.0001379721,23.1255,0,1.5417,-4.46479E-05,23.1255,0
1.5426,-2.349889E-06,23.139,0,1.5426,-0.0002192111,23.139,0
1.5435,1.577783E-05,23.1525,0,1.5435,-0.0002145113,23.1525,0
1.5444,9.164568E-05,23.166,0,1.5444,-0.000119173,23.166,0
1.5453,-4.095522E-05,23.1795,0,1.5453,-0.0001141375,23.1795,0
1.5462,-3.726253E-05,23.193,0,1.5462,-0.0001443503,23.193,0
1.5471,-1.107805E-05,23.2065,0,1.5471,-0.0001460288,23.2065,0
1.548,-7.956054E-05,23.22,0,1.548,2.987716E-05,23.22,0
1.5489,-4.934768E-05,23.2335,0,1.5489,0.0001208515,23.2335,0
1.5498,-7.284657E-05,23.247,0,1.5498,2.584878E-05,23.247,0
1.5507,1.510643E-05,23.2605,0,1.5507,0.0001265583,23.2605,0
1.5516,-3.826963E-05,23.274,0,1.5516,4.733349E-05,23.274,0
1.5525,-6.6804E-05,23.2875,0,1.5525,-0.0001044022,23.2875,0
1.5534,6.57969E-05,23.301,0,1.5534,-0.0001524071,23.301,0
1.5543,0.0003192493,23.3145,0,1.5543,-0.0001990692,23.3145,0
1.5552,0.0003662471,23.328,0,1.5552,-6.210422E-05,23.328,0
1.5561,0.0001366293,23.3415,0,1.5561,-3.524834E-05,23.3415,0
1.557,0.0001185016,23.355,0,1.557,-5.069047E-05,23.355,0
1.5579,0.000115816,23.3685,0,1.5579,-3.692683E-06,23.3685,0
1.5588,-1.644922E-05,23.382,0,1.5588,0.0001030594,23.382,0
1.5597,9.533837E-05,23.3955,0,1.5597,-1.443504E-05,23.3955,0
1.5606,0.0001876554,23.409,0,1.5606,-0.0001279011,23.409,0
1.5615,-5.740444E-05,23.4225,0,1.5615,4.666209E-05,23.4225,0
1.5624,-0.0001520714,23.436,0,1.5624,6.915389E-05,23.436,0
1.5633,-3.457694E-05,23.4495,0,1.5633,-4.46479E-05,23.4495,0
1.5642,2.652018E-05,23.463,0,1.5642,-2.349889E-06,23.463,0
1.5651,-4.632639E-05,23.4765,0,1.5651,5.874724E-05,23.4765,0
1.566,8.291753E-05,23.49,0,1.566,3.121996E-05,23.49,0
1.5669,-4.934768E-05,23.5035,0,1.5669,-4.800488E-05,23.5035,0
1.5678,-8.493171E-05,23.517,0,1.5678,-0.000140322,23.517,0
1.5687,-6.311131E-05,23.5305,0,1.5687,1.040665E-05,23.5305,0
1.5696,-0.0002403601,23.544,0,1.5696,8.325322E-05,23.544,0
1.5705,-0.0001681849,23.5575,0,1.5705,1.007095E-06,23.5575,0
1.5714,-3.558404E-05,23.571,0,1.5714,4.968337E-05,23.571,0
1.5723,-0.0002474098,23.5845,0,1.5723,0.0001242084,23.5845,0
1.5732,-0.0003226062,23.598,0,1.5732,-1.309224E-05,23.598,0
1.5741,-0.0001967193,23.6115,0,1.5741,-0.000148043,23.6115,0
1.575,-0.0003283131,23.625,0,1.575,-3.860533E-05,23.625,0
1.5759,-0.0002735943,23.6385,0,1.5759,-9.231708E-05,23.6385,0
1.5768,-6.076142E-05,23.652,0,1.5768,-0.0001275654,23.652,0
1.5777,9.298848E-05,23.6655,0,1.5777,-4.632639E-05,23.6655,0
1.5786,0.0001151446,23.679,0,1.5786,-2.819867E-05,23.679,0
1.5795,0.0002709087,23.6925,0,1.5795,-3.256275E-05,23.6925,0
1.5804,0.0001755703,23.706,0,1.5804,-0.0001245441,23.706,0
1.5813,9.298848E-05,23.7195,0,1.5813,-0.0002030976,23.7195,0
1.5822,9.433127E-05,23.733,0,1.5822,-6.109713E-05,23.733,0
1.5831,9.600977E-05,23.7465,0,1.5831,2.383459E-05,23.7465,0
1.584,5.706874E-06,23.76,0,1.584,8.761731E-05,23.76,0
1.5849,8.358892E-05,23.7735,0,1.5849,0.0001161517,23.7735,0
1.5858,1.980621E-05,23.787,0,1.5858,0.0001782559,23.787,0
1.5867,-6.6804E-05,23.8005,0,1.5867,0.0001379721,23.8005,0
1.5876,4.229801E-05,23.814,0,1.5876,3.659113E-05,23.814,0
1.5885,-1.107805E-05,23.8275,0,1.5885,0.0001312581,23.8275,0
1.5894,8.123904E-05,23.841,0,1.5894,7.956054E-05,23.841,0
1.5903,0.0002024262,23.8545,0,1.5903,-4.733349E-05,23.8545,0
1.5912,5.740444E-05,23.868,0,1.5912,-3.860533E-05,23.868,0
1.5921,-1.107805E-05,23.8815,0,1.5921,-1.040665E-05,23.8815,0
1.593,-5.706874E-06,23.895,0,1.593,-0.000102388,23.895,0
1.5939,3.726253E-05,23.9085,0,1.5939,-6.378271E-06,23.9085,0
1.5948,0.0001654994,23.922,0,1.5948,8.426032E-05,23.922,0
1.5957,1.007095E-05,23.9355,0,1.5957,-3.793393E-05,23.9355,0
1.5966,-0.0002420386,23.949,0,1.5966,-7.049668E-06,23.949,0
1.5975,-4.39765E-05,23.9625,0,1.5975,7.083238E-05,23.9625,0
1.5984,3.121996E-05,23.976,0,1.5984,9.768826E-05,23.976,0
1.5993,-0.0002420386,23.9895,0,1.5993,-3.894102E-05,23.9895,0
1.6002,-0.000148043,24.003,0,1.6002,-0.0002370031,24.003,0
1.6011,7.284657E-05,24.0165,0,1.6011,-0.0003199207,24.0165,0
1.602,-8.392462E-06,24.03,0,1.602,-6.814679E-05,24.03,0
1.6029,-1.309224E-05,24.0435,0,1.6029,-3.356985E-06,24.0435,0
1.6038,0.000105745,24.057,0,1.6038,-6.478981E-05,24.057,0
1.6047,-4.36408E-06,24.0705,0,1.6047,3.659113E-05,24.0705,0
1.6056,-0.0001426719,24.084,0,1.6056,0.0001178302,24.084,0
1.6065,-1.007095E-05,24.0975,0,1.6065,6.881819E-05,24.0975,0
1.6074,3.323415E-05,24.111,0,1.6074,3.659113E-05,24.111,0
1.6083,-2.1149E-05,24.1245,0,1.6083,-7.183947E-05,24.1245,0
1.6092,1.879912E-05,24.138,0,1.6092,2.517739E-05,24.138,0
1.6101,-3.457694E-05,24.1515,0,1.6101,3.424125E-05,24.1515,0
1.611,-7.687495E-05,24.165,0,1.611,-3.256275E-05,24.165,0
1.6119,5.304036E-05,24.1785,0,1.6119,-9.097429E-05,24.1785,0
1.6128,-0.0001262226,24.192,0,1.6128,-7.016098E-05,24.192,0
1.6137,-0.0001574426,24.2055,0,1.6137,-0.0001748989,24.2055,0
1.6146,5.941863E-05,24.219,0,1.6146,-0.0003548333,24.219,0
1.6155,-4.46479E-05,24.2325,0,1.6155,-0.0002121614,24.2325,0
1.6164,-8.661021E-05,24.246,0,1.6164,-0.0002131685,24.246,0
1.6173,-6.54612E-05,24.2595,0,1.6173,-0.0001712062,24.2595,0
1.6182,0.0001849699,24.273,0,1.6182,0.0002124971,24.273,0
1.6191,0.0002702373,24.2865,0,1.6191,0.0005045548,24.2865,0
1.62,0.0001319295,24.3,0,1.62,0.0004360723,24.3,0
1.6209,2.853437E-05,24.3135,0,1.6209,0.0001463645,24.3135,0
1.6218,2.450599E-05,24.327,0,1.6218,-5.606165E-05,24.327,0
1.6227,0,24.3405,0,1.6227,2.1149E-05,24.3405,0
1.6236,-3.323415E-05,24.354,0,1.6236,-0.000102388,24.354,0
1.6245,2.551309E-05,24.3675,0,1.6245,-0.0002027619,24.3675,0
1.6254,0.0001080949,24.381,0,1.6254,-0.0001658351,24.381,0
1.6263,7.049668E-06,24.3945,0,1.6263,-0.0001500572,24.3945,0
1.6272,-1.510643E-05,24.408,0,1.6272,-0.0001769131,24.408,0
1.6281,0.0001574426,24.4215,0,1.6281,-8.426032E-05,24.4215,0
1.629,-1.174945E-05,24.435,0,1.629,0.0002709087,24.435,0
1.6299,-1.678492E-05,24.4485,0,1.6299,0.0002245823,24.4485,0
1.6308,-1.477073E-05,24.462,0,1.6308,5.706874E-06,24.462,0
1.6317,7.721065E-06,24.4755,0,1.6317,8.157473E-05,24.4755,0
1.6326,-1.242084E-05,24.489,0,1.6326,0.0001084306,24.489,0
1.6335,-2.450599E-05,24.5025,0,1.6335,1.510643E-05,24.5025,0
1.6344,-0.0001728847,24.516,0,1.6344,-2.853437E-05,24.516,0
1.6353,-0.0002057832,24.5295,0,1.6353,-7.150377E-05,24.5295,0
1.6362,-0.0001560998,24.543,0,1.6362,-2.28275E-05,24.543,0
1.6371,-0.000175906,24.5565,0,1.6371,5.035477E-06,24.5565,0
1.638,-9.164568E-05,24.57,0,1.638,-3.994812E-05,24.57,0
1.6389,0.000158114,24.5835,0,1.6389,-0.0001352865,24.5835,0
1.6398,0.0002558022,24.597,0,1.6398,-2.417029E-05,24.597,0
1.6407,0.0003538262,24.6105,0,1.6407,-0.000144686,24.6105,0
1.6416,0.000418616,24.624,0,1.6416,-0.0002464027,24.624,0
1.6425,9.768826E-05,24.6375,0,1.6425,-3.692683E-06,24.6375,0
1.6434,-8.157473E-05,24.651,0,1.6434,2.316319E-05,24.651,0
1.6443,-1.007095E-05,24.6645,0,1.6443,-0.0001597925,24.6645,0
1.6452,-5.035477E-05,24.678,0,1.6452,-0.0001373007,24.678,0
1.6461,-0.000224918,24.6915,0,1.6461,-3.256275E-05,24.6915,0
1.647,-0.0001299153,24.705,0,1.647,2.1149E-05,24.705,0
1.6479,-3.793393E-05,24.7185,0,1.6479,8.358892E-05,24.7185,0
1.6488,1.007095E-05,24.732,0,1.6488,3.692683E-06,24.732,0
1.6497,-3.256275E-05,24.7455,0,1.6497,5.774014E-05,24.7455,0
1.6506,-5.740444E-05,24.759,0,1.6506,-3.692683E-06,24.759,0
1.6515,-8.258183E-05,24.7725,0,1.6515,-0.0001050736,24.7725,0
1.6524,-8.358892E-05,24.786,0,1.6524,-0.0001352865,24.786,0
1.6533,-0.0001963836,24.7995,0,1.6533,-3.994812E-05,24.7995,0
1.6542,-0.0001829557,24.813,0,1.6542,-6.478981E-05,24.813,0
1.6551,-0.0001386435,24.8265,0,1.6551,-7.150377E-05,24.8265,0
1.656,-0.000164828,24.84,0,1.656,4.901198E-05,24.84,0
1.6569,-0.0001413291,24.8535,0,1.6569,0.0001064164,24.8535,0
1.6578,-1.644922E-05,24.867,0,1.6578,5.035477E-05,24.867,0
1.6587,-0.0001309224,24.8805,0,1.6587,7.754635E-05,24.8805,0
1.6596,-0.0002537881,24.894,0,1.6596,3.390555E-05,24.894,0
1.6605,-0.0001352865,24.9075,0,1.6605,-1.174945E-05,24.9075,0
1.6614,-0.0001305867,24.921,0,1.6614,-8.728161E-06,24.921,0
1.6623,-0.0001050736,24.9345,0,1.6623,-6.848249E-05,24.9345,0
1.6632,8.157473E-05,24.948,0,1.6632,3.457694E-05,24.948,0
1.6641,0.000189334,24.9615,0,1.6641,-9.835965E-05,24.9615,0
1.665,0.0002836652,24.975,0,1.665,-0.0001074235,24.975,0
1.6659,0.0002692302,24.9885,0,1.6659,-1.376364E-05,24.9885,0
1.6668,7.821774E-05,25.002,0,1.6668,0.000144686,25.002,0
1.6677,0.0001534142,25.0155,0,1.6677,1.846342E-05,25.0155,0
1.6686,0.0002034333,25.029,0,1.6686,-0.0001587854,25.029,0
1.6695,-8.392462E-06,25.0425,0,1.6695,-7.486076E-05,25.0425,0
1.6704,-2.1149E-05,25.056,0,1.6704,-7.318227E-05,25.056,0
1.6713,6.378271E-05,25.0695,0,1.6713,-0.0001252155,25.0695,0
1.6722,-4.36408E-06,25.083,0,1.6722,2.517739E-05,25.083,0
1.6731,-8.224613E-05,25.0965,0,1.6731,0.0002195468,25.0965,0
1.674,2.920577E-05,25.11,0,1.674,0.000169192,25.11,0
1.6749,-5.606165E-05,25.1235,0,1.6749,2.18204E-05,25.1235,0
1.6758,-9.735256E-06,25.137,0,1.6758,6.713969E-07,25.137,0
1.6767,3.323415E-05,25.1505,0,1.6767,4.800488E-05,25.1505,0
1.6776,-0.0001225299,25.164,0,1.6776,9.735256E-06,25.164,0
1.6785,-7.016098E-05,25.1775,0,1.6785,0.0001174945,25.1775,0
1.6794,2.719158E-05,25.191,0,1.6794,-3.524834E-05,25.191,0
1.6803,-4.129091E-05,25.2045,0,1.6803,6.713969E-07,25.2045,0
1.6812,-8.090334E-05,25.218,0,1.6812,-0.0001453574,25.218,0
1.6821,0.0001299153,25.2315,0,1.6821,-0.0002806439,25.2315,0
1.683,1.544213E-05,25.245,0,1.683,-2.987716E-05,25.245,0
1.6839,-1.846342E-05,25.2585,0,1.6839,3.927672E-05,25.2585,0
1.6848,5.337606E-05,25.272,0,1.6848,-1.712062E-05,25.272,0
1.6857,-2.652018E-05,25.2855,0,1.6857,7.721065E-06,25.2855,0
1.6866,-0.0001641566,25.299,0,1.6866,4.39765E-05,25.299,0
1.6875,-8.96315E-05,25.3125,0,1.6875,3.390555E-05,25.3125,0
1.6884,-6.54612E-05,25.326,0,1.6884,6.713969E-06,25.326,0
1.6893,-6.277562E-05,25.3395,0,1.6893,-2.584878E-05,25.3395,0
1.6902,-4.028382E-05,25.353,0,1.6902,7.351797E-05,25.353,0
1.6911,5.203327E-05,25.3665,0,1.6911,-1.409934E-05,25.3665,0
1.692,8.69459E-05,25.38,0,1.692,-7.922484E-05,25.38,0
1.6929,0.0001352865,25.3935,0,1.6929,-7.620356E-05,25.3935,0
1.6938,9.298848E-05,25.407,0,1.6938,-1.779202E-05,25.407,0
1.6947,-1.678492E-06,25.4205,0,1.6947,-6.378271E-05,25.4205,0
1.6956,9.768826E-05,25.434,0,1.6956,-0.0001963836,25.434,0
1.6965,3.021286E-06,25.4475,0,1.6965,-4.33051E-05,25.4475,0
1.6974,-6.344701E-05,25.461,0,1.6974,1.913481E-05,25.461,0
1.6983,-5.069047E-05,25.4745,0,1.6983,-0.0001131304,25.4745,0
1.6992,-5.740444E-05,25.488,0,1.6992,-0.0001037308,25.488,0
1.7001,-0.0001084306,25.5015,0,1.7001,7.452507E-05,25.5015,0
1.701,-6.54612E-05,25.515,0,1.701,0.0001084306,25.515,0
1.7019,4.699779E-06,25.5285,0,1.7019,8.023193E-05,25.5285,0
1.7028,0.0001305867,25.542,0,1.7028,-1.611353E-05,25.542,0
1.7037,5.337606E-05,25.5555,0,1.7037,2.450599E-05,25.5555,0
1.7046,4.867628E-05,25.569,0,1.7046,-4.43122E-05,25.569,0
1.7055,0.0001067521,25.5825,0,1.7055,-0.0001701991,25.5825,0
1.7064,6.344701E-05,25.596,0,1.7064,-0.0001785916,25.596,0
1.7073,-7.452507E-05,25.6095,0,1.7073,-1.309224E-05,25.6095,0
1.7082,4.867628E-05,25.623,0,1.7082,-4.196231E-05,25.623,0
1.7091,0.0001802701,25.6365,0,1.7091,-0.0001111162,25.6365,0
1.71,-8.69459E-05,25.65,0,1.71,7.385367E-06,25.65,0
1.7109,-0.0001775845,25.6635,0,1.7109,-7.721065E-06,25.6635,0
1.7118,-2.316319E-05,25.677,0,1.7118,-0.0001003738,25.677,0
1.7127,-7.956054E-05,25.6905,0,1.7127,-7.989624E-05,25.6905,0
1.7136,-0.0001957122,25.704,0,1.7136,-5.841154E-05,25.704,0
1.7145,-7.855344E-05,25.7175,0,1.7145,-8.459602E-05,25.7175,0
1.7154,-4.934768E-05,25.731,0,1.7154,-7.385367E-05,25.731,0
1.7163,3.860533E-05,25.7445,0,1.7163,-6.61326E-05,25.7445,0
1.7172,3.659113E-05,25.758,0,1.7172,8.358892E-05,25.758,0
1.7181,-3.659113E-05,25.7715,0,1.7181,0.0001299153,25.7715,0
1.719,-6.51255E-05,25.785,0,1.719,5.673304E-05,25.785,0
1.7199,-3.591974E-05,25.7985,0,1.7199,8.728161E-06,25.7985,0
1.7208,-3.659113E-05,25.812,0,1.7208,9.903105E-05,25.812,0
1.7217,-1.040665E-05,25.8255,0,1.7217,8.89601E-05,25.8255,0
1.7226,0.0002591592,25.839,0,1.7226,-2.383459E-05,25.839,0
1.7235,0.000281651,25.8525,0,1.7235,7.351797E-05,25.8525,0
1.7244,8.090334E-05,25.866,0,1.7244,7.486076E-05,25.866,0
1.7253,7.318227E-05,25.8795,0,1.7253,-3.524834E-05,25.8795,0
1.7262,-6.915389E-05,25.893,0,1.7262,-4.263371E-05,25.893,0
1.7271,-0.0001802701,25.9065,0,1.7271,-6.713969E-06,25.9065,0
1.728,-8.627451E-05,25.92,0,1.728,-2.819867E-05,25.92,0
1.7289,-1.007095E-06,25.9335,0,1.7289,-3.424125E-05,25.9335,0
1.7298,-5.740444E-05,25.947,0,1.7298,-7.687495E-05,25.947,0
1.7307,-2.484169E-05,25.9605,0,1.7307,1.477073E-05,25.9605,0
1.7316,-9.265278E-05,25.974,0,1.7316,2.618448E-05,25.974,0
1.7325,-9.265278E-05,25.9875,0,1.7325,-0.0001510643,25.9875,0
1.7334,2.752728E-05,26.001,0,1.7334,-0.0002151827,26.001,0
1.7343,-7.855344E-05,26.0145,0,1.7343,-0.0001352865,26.0145,0
1.7352,-8.627451E-05,26.028,0,1.7352,-0.0002014191,26.028,0
1.7361,1.913481E-05,26.0415,0,1.7361,-0.0002390173,26.0415,0
1.737,2.383459E-05,26.055,0,1.737,5.606165E-05,26.055,0
1.7379,0.000190341,26.0685,0,1.7379,0.0002158541,26.0685,0
1.7388,0.0002252537,26.082,0,1.7388,0.0001550927,26.082,0
1.7397,5.572595E-05,26.0955,0,1.7397,0.0001500572,26.0955,0
1.7406,6.076142E-05,26.109,0,1.7406,0.0001661708,26.109,0
1.7415,8.392462E-06,26.1225,0,1.7415,5.035477E-05,26.1225,0
1.7424,-2.316319E-05,26.136,0,1.7424,1.812772E-05,26.136,0
1.7433,1.309224E-05,26.1495,0,1.7433,-5.136187E-05,26.1495,0
1.7442,-4.229801E-05,26.163,0,1.7442,-5.606165E-05,26.163,0
1.7451,-0.0001896696,26.1765,0,1.7451,-7.821774E-05,26.1765,0
1.746,-0.000148043,26.19,0,1.746,-4.196231E-05,26.19,0
1.7469,3.021286E-06,26.2035,0,1.7469,6.713969E-06,26.2035,0
1.7478,-0.0002131685,26.217,0,1.7478,0.000112459,26.217,0
1.7487,-0.0001164874,26.2305,0,1.7487,0.0001037308,26.2305,0
1.7496,8.560311E-05,26.244,0,1.7496,-0.0001037308,26.244,0
1.7505,-8.493171E-05,26.2575,0,1.7505,-4.028382E-05,26.2575,0
1.7514,5.874724E-05,26.271,0,1.7514,5.001907E-05,26.271,0
1.7523,0.0001983978,26.2845,0,1.7523,7.385367E-06,26.2845,0
1.7532,6.478981E-05,26.298,0,1.7532,-4.39765E-05,26.298,0
1.7541,1.040665E-05,26.3115,0,1.7541,-3.826963E-05,26.3115,0
1.755,7.754635E-05,26.325,0,1.755,-5.136187E-05,26.325,0
1.7559,9.735256E-06,26.3385,0,1.7559,-3.726253E-05,26.3385,0
1.7568,6.814679E-05,26.352,0,1.7568,-9.835965E-05,26.352,0
1.7577,1.275654E-05,26.3655,0,1.7577,-5.169757E-05,26.3655,0
1.7586,8.426032E-05,26.379,0,1.7586,-8.123904E-05,26.379,0
1.7595,5.673304E-05,26.3925,0,1.7595,-0.0001242084,26.3925,0
1.7604,9.500267E-05,26.406,0,1.7604,-0.0001185016,26.406,0
1.7613,-5.069047E-05,26.4195,0,1.7613,-8.090334E-05,26.4195,0
1.7622,-6.814679E-05,26.433,0,1.7622,-6.378271E-05,26.433,0
1.7631,9.768826E-05,26.4465,0,1.7631,-0.0001054093,26.4465,0
1.764,2.24918E-05,26.46,0,1.764,-3.793393E-05,26.46,0
1.7649,-0.0002326391,26.4735,0,1.7649,-7.284657E-05,26.4735,0
1.7658,-0.0002131685,26.487,0,1.7658,-0.0002124971,26.487,0
1.7667,-7.284657E-05,26.5005,0,1.7667,-9.802396E-05,26.5005,0
1.7676,-0.0002349889,26.514,0,1.7676,-1.443504E-05,26.514,0
1.7685,-0.0001440146,26.5275,0,1.7685,-3.524834E-05,26.5275,0
1.7694,-2.853437E-05,26.541,0,1.7694,3.524834E-05,26.541,0
1.7703,1.913481E-05,26.5545,0,1.7703,7.385367E-06,26.5545,0
1.7712,8.392462E-06,26.568,0,1.7712,0.0001591211,26.568,0
1.7721,-5.136187E-05,26.5815,0,1.7721,8.761731E-05,26.5815,0
1.773,-5.304036E-05,26.595,0,1.773,4.867628E-05,26.595,0
1.7739,-6.478981E-05,26.6085,0,1.7739,2.24918E-05,26.6085,0
1.7748,-3.155566E-05,26.622,0,1.7748,5.941863E-05,26.622,0
1.7757,9.500267E-05,26.6355,0,1.7757,9.063859E-06,26.6355,0
1.7766,0.0001399863,26.649,0,1.7766,-2.853437E-05,26.649,0
1.7775,7.217517E-05,26.6625,0,1.7775,0.0001138018,26.6625,0
1.7784,8.426032E-05,26.676,0,1.7784,0.0001218585,26.676,0
1.7793,5.270466E-05,26.6895,0,1.7793,-3.121996E-05,26.6895,0
1.7802,-1.174945E-05,26.703,0,1.7802,-8.627451E-05,26.703,0
1.7811,-0.0001027237,26.7165,0,1.7811,-6.411841E-05,26.7165,0
1.782,-6.210422E-05,26.73,0,1.782,-6.210422E-05,26.73,0
1.7829,-8.090334E-05,26.7435,0,1.7829,3.121996E-05,26.7435,0
1.7838,6.143282E-05,26.757,0,1.7838,5.807584E-05,26.757,0
1.7847,0.0001366293,26.7705,0,1.7847,0.0001178302,26.7705,0
1.7856,3.021286E-06,26.784,0,1.7856,3.088426E-05,26.784,0
1.7865,7.821774E-05,26.7975,0,1.7865,-2.652018E-05,26.7975,0
1.7874,8.392462E-05,26.811,0,1.7874,-7.116808E-05,26.811,0
1.7883,-7.586786E-05,26.8245,0,1.7883,-2.349889E-05,26.8245,0
1.7892,-2.21561E-05,26.838,0,1.7892,-6.78111E-05,26.838,0
1.7901,8.82887E-05,26.8515,0,1.7901,-0.0001742275,26.8515,0
1.791,-8.69459E-05,26.865,0,1.791,1.846342E-05,26.865,0
1.7919,3.356985E-07,26.8785,0,1.7919,-3.021286E-06,26.8785,0
1.7928,6.915389E-05,26.892,0,1.7928,-0.000119173,26.892,0
1.7937,2.551309E-05,26.9055,0,1.7937,-3.793393E-05,26.9055,0
1.7946,-0.0001332723,26.919,0,1.7946,-8.392462E-06,26.919,0
1.7955,-2.450599E-05,26.9325,0,1.7955,1.309224E-05,26.9325,0
1.7964,6.378271E-06,26.946,0,1.7964,-9.735256E-06,26.946,0
1.7973,-1.879912E-05,26.9595,0,1.7973,-0.0001131304,26.9595,0
1.7982,1.644922E-05,26.973,0,1.7982,-1.107805E-05,26.973,0
1.7991,-9.768826E-05,26.9865,0,1.7991,-3.524834E-05,26.9865,0
1.8,-0.0001668421,27,0,1.8,-9.970245E-05,27,0
1.8009,-2.450599E-05,27.0135,0,1.8009,-5.807584E-05,27.0135,0
1.8018,-3.692683E-05,27.027,0,1.8018,3.860533E-05,27.027,0
1.8027,-7.016098E-05,27.0405,0,1.8027,-7.049668E-06,27.0405,0
1.8036,0.0001272297,27.054,0,1.8036,-0.0001185016,27.054,0
1.8045,6.277562E-05,27.0675,0,1.8045,2.1149E-05,27.0675,0
1.8054,-7.721065E-06,27.081,0,1.8054,3.457694E-05,27.081,0
1.8063,7.150377E-05,27.0945,0,1.8063,-5.404745E-05,27.0945,0
1.8072,9.634547E-05,27.108,0,1.8072,-2.349889E-06,27.108,0
1.8081,-6.61326E-05,27.1215,0,1.8081,5.069047E-05,27.1215,0
1.809,-0.0001097734,27.135,0,1.809,1.477073E-05,27.135,0
1.8099,2.383459E-05,27.1485,0,1.8099,4.53193E-05,27.1485,0
1.8108,0.0001467002,27.162,0,1.8108,-3.894102E-05,27.162,0
1.8117,4.666209E-05,27.1755,0,1.8117,-6.042573E-06,27.1755,0
1.8126,-9.903105E-05,27.189,0,1.8126,-2.349889E-05,27.189,0
1.8135,-3.323415E-05,27.2025,0,1.8135,-0.0001007095,27.2025,0
1.8144,-3.021286E-06,27.216,0,1.8144,-0.0001362936,27.216,0
1.8153,-0.0001114519,27.2295,0,1.8153,-9.835965E-05,27.2295,0
1.8162,-4.196231E-05,27.243,0,1.8162,-0.0001114519,27.243,0
1.8171,-1.846342E-05,27.2565,0,1.8171,-0.000189334,27.2565,0
1.818,-0.0002098116,27.27,0,1.818,-3.692683E-05,27.27,0
1.8189,-0.0001329366,27.2835,0,1.8189,0,27.2835,0
1.8198,-5.539025E-05,27.297,0,1.8198,-3.558404E-05,27.297,0
1.8207,-5.740444E-05,27.3105,0,1.8207,1.510643E-05,27.3105,0
1.8216,-4.46479E-05,27.324,0,1.8216,4.699779E-05,27.324,0
