X[s],"Trigno IM sensor 3: EMG 3 (IM)",X[s],"Trigno IM sensor 3: Mag 3.Z (IM)",X[s],"Trigno IM sensor 4: EMG 4 (IM)",X[s],"Trigno IM sensor 4: Mag 4.Z (IM)"
0.000000,3.793393E-05,0.000000,48,0.000000,-3.323415E-05,0.000000,107
0.0009,-5.807584E-05,0.0135,48,0.0009,-2.584878E-05,0.0135,103
0.0018,-7.083238E-05,0.027,47,0.0018,-3.323415E-05,0.027,104
0.0027,3.726253E-05,0.0405,47,0.0027,-6.74754E-05,0.0405,101
0.0036,6.78111E-05,0.054,46,0.0036,-0.000112459,0.054,101
0.0045,2.081331E-05,0.0675,48,0.0045,-0.000115816,0.0675,103
0.0054,-1.678492E-06,0.081,47,0.0054,-9.835965E-05,0.081,104
0.0063,-4.599069E-05,0.0945,47,0.0063,-8.996719E-05,0.0945,104
0.0072,-2.920577E-05,0.108,47,0.0072,-8.661021E-05,0.108,107
0.0081,-3.155566E-05,0.1215,48,0.0081,-8.69459E-05,0.1215,101
0.009000001,3.155566E-05,0.135,47,0.009000001,-7.486076E-05,0.135,102
0.0099,-3.927672E-05,0.1485,47,0.0099,-5.706874E-05,0.1485,106
0.0108,-5.706874E-06,0.162,47,0.0108,-5.539025E-05,0.162,104
0.0117,8.023193E-05,0.1755,47,0.0117,-3.390555E-05,0.1755,106
0.0126,3.826963E-05,0.189,46,0.0126,-6.344701E-05,0.189,105
0.0135,9.097429E-05,0.2025,47,0.0135,-4.49836E-05,0.2025,104
0.0144,9.701686E-05,0.216,46,0.0144,-3.961242E-05,0.216,103
0.0153,7.049668E-06,0.2295,46,0.0153,-5.706874E-06,0.2295,103
0.0162,1.007095E-05,0.243,47,0.0162,-1.007095E-06,0.243,106
0.0171,-3.524834E-05,0.2565,46,0.0171,-2.920577E-05,0.2565,103
0.018,-0.0001111162,0.27,47,0.018,-2.887007E-05,0.27,108
0.0189,-8.157473E-05,0.2835,48,0.0189,-3.692683E-05,0.2835,103
0.0198,-6.277562E-05,0.297,46,0.0198,-5.371176E-05,0.297,103
0.0207,-3.793393E-05,0.3105,47,0.0207,-4.800488E-05,0.3105,105
0.0216,-9.164568E-05,0.324,47,0.0216,-6.076142E-05,0.324,108
0.0225,-0.0001064164,0.3375,47,0.0225,-6.64683E-05,0.3375,101
0.0234,-4.901198E-05,0.351,47,0.0234,-6.814679E-05,0.351,102
0.0243,-0.0001013809,0.3645,47,0.0243,-9.768826E-05,0.3645,103
0.0252,-0.0001003738,0.378,46,0.0252,-0.0001352865,0.378,101
0.0261,-8.661021E-05,0.3915,46,0.0261,-0.0001487144,0.3915,107
0.027,-0.0001406577,0.405,48,0.027,-0.000158114,0.405,102
0.0279,-4.39765E-05,0.4185,47,0.0279,-0.0001574426,0.4185,101
0.0288,0.0001168231,0.432,47,0.0288,-0.0001735561,0.432,104
0.0297,5.774014E-05,0.4455,48,0.0297,-9.835965E-05,0.4455,101
0.0306,2.349889E-06,0.459,47,0.0306,-8.560311E-05,0.459,107
0.0315,4.565499E-05,0.4725,47,0.0315,-7.922484E-05,0.4725,105
0.0324,0.0001218585,0.486,48,0.0324,-2.752728E-05,0.486,103
0.0333,2.752728E-05,0.4995,47,0.0333,4.36408E-05,0.4995,104
0.0342,5.069047E-05,0.513,47,0.0342,6.61326E-05,0.513,104
0.0351,0.0001527428,0.5265,47,0.0351,1.913481E-05,0.5265,104
0.036,-2.853437E-05,0.54,45,0.036,9.097429E-05,0.54,104
0.0369,1.040665E-05,0.5535,48,0.0369,0.0001393149,0.5535,108
0.0378,0.0001030594,0.567,47,0.0378,8.82887E-05,0.567,104
0.0387,-4.699779E-06,0.5805,47,0.0387,9.533837E-05,0.5805,103
0.0396,-9.097429E-05,0.594,47,0.0396,0.0001537499,0.594,106
0.0405,-3.356985E-07,0.6075,47,0.0405,0.0001262226,0.6075,102
0.0414,-5.706874E-06,0.621,44,0.0414,0.0001242084,0.621,107
0.0423,2.887007E-05,0.6345,46,0.0423,7.956054E-05,0.6345,101
0.0432,7.083238E-05,0.648,46,0.0432,9.600977E-05,0.648,104
0.0441,3.927672E-05,0.6615,45,0.0441,8.661021E-05,0.6615,106
0.045,3.591974E-05,0.675,44,0.045,1.275654E-05,0.675,104
0.0459,5.807584E-05,0.6885,45,0.0459,-2.383459E-05,0.6885,105
0.0468,1.779202E-05,0.702,44,0.0468,1.141375E-05,0.702,107
0.0477,-2.450599E-05,0.7155,46,0.0477,-2.24918E-05,0.7155,103
0.0486,8.224613E-05,0.729,44,0.0486,-8.72816E-05,0.729,104
0.0495,2.853437E-05,0.7425,46,0.0495,-3.390555E-05,0.7425,104
0.0504,-6.814679E-05,0.756,43,0.0504,-5.404745E-05,0.756,102
0.0513,1.712062E-05,0.7695,45,0.0513,-0.0001040665,0.7695,105
0.0522,0.000115816,0.783,44,0.0522,-0.0001067521,0.783,103
0.0531,-3.524834E-05,0.7965,44,0.0531,-9.433127E-05,0.7965,100
0.054,-1.980621E-05,0.81,43,0.054,-0.0001443503,0.81,103
0.0549,4.263371E-05,0.8235,43,0.0549,-0.0001520714,0.8235,102
0.0558,2.1149E-05,0.837,44,0.0558,-0.0001460288,0.837,100
0.0567,-2.349889E-06,0.8505,43,0.0567,-8.761731E-05,0.8505,103
0.0576,-0.0001087663,0.864,44,0.0576,-7.922484E-05,0.864,100
0.0585,-1.174945E-05,0.8775,46,0.0585,-5.908293E-05,0.8775,96
0.0594,1.309224E-05,0.891,48,0.0594,-3.659113E-05,0.891,102
0.0603,-8.224613E-05,0.9045,48,0.0603,3.726253E-05,0.9045,96
0.0612,-5.270466E-05,0.918,48,0.0612,4.800488E-05,0.918,98
0.0621,5.505455E-05,0.9315,49,0.0621,6.378271E-06,0.9315,99
0.063,-2.584878E-05,0.945,50,0.063,7.083238E-05,0.945,97
0.0639,3.994812E-05,0.9585,48,0.0639,7.284657E-05,0.9585,103
0.0648,-4.36408E-06,0.972,48,0.0648,1.007095E-06,0.972,98
0.0657,-8.627451E-05,0.9855,46,0.0657,3.860533E-05,0.9855,98
0.0666,-4.901198E-05,0.999,45,0.0666,6.243992E-05,0.999,101
0.0675,-6.210422E-05,1.0125,43,0.0675,3.793393E-05,1.0125,104
0.0684,-4.867628E-05,1.026,43,0.0684,4.800488E-05,1.026,98
0.0693,6.6804E-05,1.0395,44,0.0693,1.409934E-05,1.0395,102
0.0702,3.860533E-05,1.053,44,0.0702,7.486076E-05,1.053,103
0.0711,-9.701686E-05,1.0665,44,0.0711,7.721065E-05,1.0665,99
0.072,-7.016098E-05,1.08,45,0.072,3.021286E-06,1.08,100
0.0729,5.706874E-06,1.0935,44,0.0729,-6.713969E-07,1.0935,100
0.07380001,-0.0001920195,1.107,44,0.07380001,5.572595E-05,1.107,98
0.07470001,-0.0001383078,1.1205,44,0.07470001,2.652018E-05,1.1205,100
0.0756,4.028382E-05,1.134,42,0.0756,-3.457694E-05,1.134,100
0.0765,-0.0001077592,1.1475,44,0.0765,8.728161E-06,1.1475,99
0.0774,-7.418937E-05,1.161,44,0.0774,3.692683E-06,1.161,99
0.0783,-1.409934E-05,1.1745,42,0.0783,-7.754635E-05,1.1745,101
0.0792,-5.001907E-05,1.188,41,0.0792,-6.143282E-05,1.188,101
0.0801,-0.0001010452,1.2015,42,0.0801,-2.1149E-05,1.2015,101
0.081,-4.263371E-05,1.215,42,0.081,-8.392462E-05,1.215,104
0.0819,2.383459E-05,1.2285,42,0.0819,-0.0001070878,1.2285,100
0.0828,4.800488E-05,1.242,41,0.0828,-0.0001258869,1.242,102
0.0837,0.0001144732,1.2555,41,0.0837,-6.176852E-05,1.2555,102
0.0846,0.0001070878,1.269,40,0.0846,-5.572595E-05,1.269,100
0.0855,6.915389E-05,1.2825,41,0.0855,-7.687495E-05,1.2825,100
0.0864,0.0001376364,1.296,43,0.0864,-8.82887E-05,1.296,102
0.0873,6.411841E-05,1.3095,42,0.0873,-1.275654E-05,1.3095,101
0.0882,6.143282E-05,1.323,41,0.0882,-2.21561E-05,1.323,100
0.0891,0.0001755703,1.3365,40,0.0891,-8.056764E-05,1.3365,97
0.09,9.097429E-05,1.35,39,0.09,-5.069047E-05,1.35,101
0.0909,7.956054E-05,1.3635,40,0.0909,-4.599069E-05,1.3635,102
0.0918,0.0001654994,1.377,40,0.0918,-0.0001309224,1.377,100
0.0927,0.0001037308,1.3905,42,0.0927,-0.0001010452,1.3905,100
0.0936,3.894102E-05,1.404,41,0.0936,-0.0001087663,1.404,100
0.09450001,7.385367E-06,1.4175,41,0.09450001,-0.0001564355,1.4175,104
0.09540001,2.349889E-05,1.431,42,0.09540001,-0.0001473716,1.431,99
0.09630001,5.337606E-05,1.4445,42,0.09630001,-0.0001809415,1.4445,100
0.0972,-3.256275E-05,1.458,42,0.0972,-0.0001188373,1.458,101
0.0981,-0.0001295796,1.4715,44,0.0981,-9.433127E-05,1.4715,103
0.099,-4.061952E-05,1.485,43,0.099,-9.332418E-05,1.485,105
0.0999,-3.659113E-05,1.4985,43,0.0999,-8.258183E-05,1.4985,98
0.1008,-0.0001205158,1.512,42,0.1008,-3.390555E-05,1.512,99
0.1017,-4.229801E-05,1.5255,43,0.1017,-3.189136E-05,1.5255,101
0.1026,-5.706874E-06,1.539,41,0.1026,-5.404745E-05,1.539,100
0.1035,-8.72816E-05,1.5525,43,0.1035,3.659113E-05,1.5525,104
0.1044,2.1149E-05,1.566,42,0.1044,6.54612E-05,1.566,103
0.1053,2.853437E-05,1.5795,43,0.1053,2.450599E-05,1.5795,97
0.1062,-0.0001285725,1.593,43,0.1062,7.016098E-05,1.593,100
0.1071,-0.0001426719,1.6065,45,0.1071,0.000105745,1.6065,101
0.108,-0.0001131304,1.62,45,0.108,8.761731E-05,1.62,100
0.1089,-0.0001705348,1.6335,45,0.1089,8.090334E-05,1.6335,101
0.1098,-7.351797E-05,1.647,44,0.1098,4.129091E-05,1.647,98
0.1107,-4.43122E-05,1.6605,44,0.1107,9.231708E-05,1.6605,100
0.1116,-8.291753E-05,1.674,45,0.1116,0.0001138018,1.674,99
0.1125,-2.786297E-05,1.6875,44,0.1125,9.030289E-05,1.6875,100
0.1134,-1.980621E-05,1.701,45,0.1134,9.030289E-05,1.701,100
0.1143,-0.0001332723,1.7145,45,0.1143,0.000115816,1.7145,97
0.1152,-0.0001117876,1.728,45,0.1152,8.090334E-05,1.728,98
0.1161,3.994812E-05,1.7415,44,0.1161,1.947051E-05,1.7415,99
0.117,-4.632639E-05,1.755,44,0.117,7.620356E-05,1.755,101
0.1179,-0.0001668421,1.7685,44,0.1179,4.867628E-05,1.7685,97
0.1188,-3.256275E-05,1.782,44,0.1188,-2.584878E-05,1.782,101
0.1197,8.92958E-05,1.7955,45,0.1197,-2.1149E-05,1.7955,100
0.1206,-7.318227E-05,1.809,44,0.1206,1.779202E-05,1.809,99
0.1215,-2.618448E-05,1.8225,44,0.1215,8.392462E-06,1.8225,97
0.1224,-3.356985E-05,1.836,45,0.1224,-2.584878E-05,1.836,101
0.1233,-2.383459E-05,1.8495,46,0.1233,-7.385367E-05,1.8495,99
0.1242,-2.383459E-05,1.863,46,0.1242,-4.061952E-05,1.863,99
0.1251,-0.0001389792,1.8765,45,0.1251,-2.517739E-05,1.8765,101
0.126,-0.000105745,1.89,45,0.126,-6.61326E-05,1.89,98
0.1269,3.356985E-06,1.9035,45,0.1269,-8.426032E-05,1.9035,99
0.1278,-5.572595E-05,1.917,45,0.1278,-6.713969E-06,1.917,102
0.1287,2.316319E-05,1.9305,46,0.1287,-1.376364E-05,1.9305,101
0.1296,0.0001232013,1.944,45,0.1296,-7.754635E-05,1.944,96
0.1305,6.143282E-05,1.9575,46,0.1305,-8.392462E-06,1.9575,100
0.1314,8.023193E-05,1.971,45,0.1314,-2.417029E-05,1.971,100
0.1323,0.000112459,1.9845,46,0.1323,-9.433127E-05,1.9845,98
0.1332,0.0001305867,1.998,44,0.1332,-4.632639E-05,1.998,100
0.1341,1.846342E-05,2.0115,45,0.1341,-7.049668E-06,2.0115,101
0.135,3.256275E-05,2.025,47,0.135,-8.728161E-06,2.025,103
0.1359,9.298848E-05,2.0385,47,0.1359,-3.356985E-07,2.0385,100
0.1368,0.0001675135,2.052,45,0.1368,-2.316319E-05,2.052,99
0.1377,0.0001084306,2.0655,47,0.1377,3.054856E-05,2.0655,99
0.1386,0.0001161517,2.079,47,0.1386,1.779202E-05,2.079,98
0.1395,0.000158114,2.0925,47,0.1395,-1.678492E-05,2.0925,97
0.1404,9.903105E-05,2.106,47,0.1404,-1.107805E-05,2.106,100
0.1413,-2.014191E-05,2.1195,47,0.1413,3.994812E-05,2.1195,97
0.1422,3.189136E-05,2.133,46,0.1422,1.174945E-05,2.133,100
0.1431,8.325322E-05,2.1465,46,0.1431,-4.129091E-05,2.1465,97
0.144,-6.915389E-05,2.16,47,0.144,1.980621E-05,2.16,99
0.1449,-8.258183E-05,2.1735,48,0.1449,2.1149E-05,2.1735,102
0.1458,1.846342E-05,2.187,45,0.1458,-3.961242E-05,2.187,97
0.1467,4.028382E-06,2.2005,48,0.1467,-2.383459E-05,2.2005,98
0.1476,-3.021286E-05,2.214,48,0.1476,2.853437E-05,2.214,99
0.1485,-5.035477E-06,2.2275,47,0.1485,1.174945E-05,2.2275,99
0.1494,1.779202E-05,2.241,48,0.1494,1.577783E-05,2.241,99
0.1503,8.224613E-05,2.2545,48,0.1503,-2.383459E-05,2.2545,101
0.1512,6.54612E-05,2.268,46,0.1512,2.383459E-05,2.268,100
0.1521,1.577783E-05,2.2815,47,0.1521,5.371176E-05,2.2815,100
0.153,4.263371E-05,2.295,48,0.153,-3.356985E-07,2.295,100
0.1539,0.0001020523,2.3085,47,0.1539,-1.644922E-05,2.3085,98
0.1548,-4.699779E-06,2.322,47,0.1548,3.558404E-05,2.322,100
0.1557,2.1149E-05,2.3355,47,0.1557,1.309224E-05,2.3355,100
0.1566,0.0001910124,2.349,48,0.1566,-4.196231E-05,2.349,100
0.1575,-6.378271E-06,2.3625,47,0.1575,2.652018E-05,2.3625,100
0.1584,-5.874724E-05,2.376,48,0.1584,-2.18204E-05,2.376,98
0.1593,6.344701E-05,2.3895,49,0.1593,-7.284657E-05,2.3895,101
0.1602,3.692683E-06,2.403,48,0.1602,-2.719158E-05,2.403,97
0.1611,-0.0001087663,2.4165,46,0.1611,6.378271E-06,2.4165,102
0.162,-6.210422E-05,2.43,46,0.162,-1.443504E-05,2.43,103
0.1629,-5.606165E-05,2.4435,47,0.1629,-7.049668E-06,2.4435,100
0.1638,-7.049668E-06,2.457,47,0.1638,-2.618448E-05,2.457,98
0.1647,-3.323415E-05,2.4705,48,0.1647,3.692683E-05,2.4705,98
0.1656,0,2.484,48,0.1656,4.968337E-05,2.484,98
0.1665,-1.376364E-05,2.4975,46,0.1665,1.510643E-05,2.4975,100
0.1674,2.1149E-05,2.511,46,0.1674,4.028382E-05,2.511,102
0.1683,-4.36408E-06,2.5245,48,0.1683,0.0001070878,2.5245,98
0.1692,-3.390555E-05,2.538,46,0.1692,0.0001138018,2.538,102
0.1701,7.385367E-05,2.5515,47,0.1701,4.129091E-05,2.5515,99
0.171,1.242084E-05,2.565,45,0.171,9.097429E-05,2.565,95
0.1719,-3.256275E-05,2.5785,46,0.1719,6.54612E-05,2.5785,99
0.1728,7.049668E-06,2.592,46,0.1728,-1.309224E-05,2.592,99
0.1737,-5.270466E-05,2.6055,46,0.1737,1.644922E-05,2.6055,100
0.1746,-8.090334E-05,2.619,46,0.1746,2.652018E-05,2.619,101
0.1755,-3.826963E-05,2.6325,46,0.1755,1.007095E-06,2.6325,101
0.1764,-1.376364E-05,2.646,45,0.1764,-1.242084E-05,2.646,102
0.1773,6.176852E-05,2.6595,44,0.1773,-5.941863E-05,2.6595,98
0.1782,1.040665E-05,2.673,45,0.1782,-9.063859E-06,2.673,98
0.1791,-3.524834E-05,2.6865,45,0.1791,-2.786297E-05,2.6865,101
0.18,-2.24918E-05,2.7,45,0.18,-9.567407E-05,2.7,102
0.1809,7.385367E-06,2.7135,45,0.1809,-0.0001044022,2.7135,101
0.1818,-0.0001473716,2.727,46,0.1818,-6.881819E-05,2.727,99
0.1827,-0.0001144732,2.7405,46,0.1827,-0.0001131304,2.7405,102
0.1836,1.443504E-05,2.754,44,0.1836,-0.0001560998,2.754,99
0.1845,-0.0001540856,2.7675,44,0.1845,-0.0001094377,2.7675,101
0.1854,-0.0001470359,2.781,45,0.1854,-0.0001121233,2.781,99
0.1863,-9.835965E-05,2.7945,46,0.1863,-0.000161471,2.7945,100
0.1872,-0.0001842985,2.808,45,0.1872,-0.0001279011,2.808,102
0.1881,-0.0002054475,2.8215,45,0.1881,-6.176852E-05,2.8215,101
0.189,-0.000109102,2.835,43,0.189,-8.224613E-05,2.835,100
0.1899,-6.57969E-05,2.8485,44,0.1899,-8.191043E-05,2.8485,102
0.1908,-5.606165E-05,2.862,45,0.1908,-0.0001050736,2.862,102
0.1917,-2.987716E-05,2.8755,45,0.1917,-2.081331E-05,2.8755,105
0.1926,0,2.889,45,0.1926,-7.385367E-06,2.889,103
0.1935,-5.874724E-05,2.9025,46,0.1935,-3.591974E-05,2.9025,101
0.1944,5.035477E-06,2.916,44,0.1944,-6.109713E-05,2.916,100
0.1953,-8.291753E-05,2.9295,46,0.1953,-3.256275E-05,2.9295,101
0.1962,-7.150377E-05,2.943,45,0.1962,-7.553216E-05,2.943,102
0.1971,0.0001087663,2.9565,45,0.1971,-0.0001426719,2.9565,97
0.198,9.399558E-06,2.97,45,0.198,-8.761731E-05,2.97,102
0.1989,-2.551309E-05,2.9835,46,0.1989,-6.478981E-05,2.9835,102
0.1998,6.78111E-05,2.997,46,0.1998,-9.231708E-05,2.997,100
0.2007,5.740444E-05,3.0105,45,0.2007,-6.344701E-05,3.0105,98
0.2016,-1.644922E-05,3.024,46,0.2016,-5.169757E-05,3.024,99
0.2025,-3.356985E-05,3.0375,46,0.2025,-7.821774E-05,3.0375,98
0.2034,1.510643E-05,3.051,0,0.2034,-7.016098E-05,3.051,0
0.2043,7.217517E-05,3.0645,0,0.2043,-8.392462E-05,3.0645,0
0.2052,3.054856E-05,3.078,0,0.2052,-1.174945E-05,3.078,0
0.2061,1.342794E-06,3.0915,0,0.2061,-2.719158E-05,3.0915,0
0.207,2.349889E-06,3.105,0,0.207,-3.121996E-05,3.105,0
0.2079,-4.36408E-06,3.1185,0,0.2079,-1.577783E-05,3.1185,0
0.2088,-5.606165E-05,3.132,0,0.2088,5.606165E-05,3.132,0
0.2097,-2.450599E-05,3.1455,0,0.2097,4.666209E-05,3.1455,0
0.2106,-1.678492E-06,3.159,0,0.2106,-2.719158E-05,3.159,0
0.2115,-8.157473E-05,3.1725,0,0.2115,3.659113E-05,3.1725,0
0.2124,-8.291753E-05,3.186,0,0.2124,1.980621E-05,3.186,0
0.2133,-8.627451E-05,3.1995,0,0.2133,-6.344701E-05,3.1995,0
0.2142,-5.740444E-05,3.213,0,0.2142,-6.411841E-05,3.213,0
0.2151,-5.404745E-05,3.2265,0,0.2151,-2.618448E-05,3.2265,0
0.216,-4.129091E-05,3.24,0,0.216,-3.524834E-05,3.24,0
0.2169,-3.927672E-05,3.2535,0,0.2169,-3.390555E-05,3.2535,0
0.2178,3.927672E-05,3.267,0,0.2178,-6.277562E-05,3.267,0
0.2187,5.438316E-05,3.2805,0,0.2187,-2.081331E-05,3.2805,0
0.2196,1.443504E-05,3.294,0,0.2196,5.706874E-06,3.294,0
0.2205,6.6804E-05,3.3075,0,0.2205,-6.378271E-06,3.3075,0
0.2214,0.0001232013,3.321,0,0.2214,6.378271E-06,3.321,0
0.2223,4.39765E-05,3.3345,0,0.2223,7.217517E-05,3.3345,0
0.2232,7.418937E-05,3.348,0,0.2232,7.049668E-05,3.348,0
0.2241,0.0001889983,3.3615,0,0.2241,3.088426E-05,3.3615,0
0.225,4.061952E-05,3.375,0,0.225,7.016098E-05,3.375,0
0.2259,-1.644922E-05,3.3885,0,0.2259,8.82887E-05,3.3885,0
0.2268,7.989624E-05,3.402,0,0.2268,4.263371E-05,3.402,0
0.2277,2.349889E-06,3.4155,0,0.2277,6.948959E-05,3.4155,0
0.2286,-6.6804E-05,3.429,0,0.2286,0.0001094377,3.429,0
0.2295,6.378271E-06,3.4425,0,0.2295,7.318227E-05,3.4425,0
0.2304,1.409934E-05,3.456,0,0.2304,2.450599E-05,3.456,0
0.2313,5.706874E-05,3.4695,0,0.2313,-1.510643E-05,3.4695,0
0.2322,6.881819E-05,3.483,0,0.2322,1.812772E-05,3.483,0
0.2331,6.713969E-07,3.4965,0,0.2331,1.309224E-05,3.4965,0
0.234,-1.275654E-05,3.51,0,0.234,-3.591974E-05,3.51,0
0.2349,1.242084E-05,3.5235,0,0.2349,-4.49836E-05,3.5235,0
0.2358,-7.687495E-05,3.537,0,0.2358,4.699779E-06,3.537,0
0.2367,-5.941863E-05,3.5505,0,0.2367,-3.289845E-05,3.5505,0
0.2376,7.049668E-06,3.564,0,0.2376,-9.365987E-05,3.564,0
0.2385,-5.304036E-05,3.5775,0,0.2385,-3.457694E-05,3.5775,0
0.2394,-4.196231E-05,3.591,0,0.2394,-3.390555E-05,3.591,0
0.2403,2.517739E-05,3.6045,0,0.2403,-7.821774E-05,3.6045,0
0.2412,-2.081331E-05,3.618,0,0.2412,-2.719158E-05,3.618,0
0.2421,-0.0001208515,3.6315,0,0.2421,7.385367E-06,3.6315,0
0.243,-0.0001033951,3.645,0,0.243,-1.644922E-05,3.645,0
0.2439,-2.450599E-05,3.6585,0,0.2439,-1.107805E-05,3.6585,0
0.2448,2.484169E-05,3.672,0,0.2448,-1.779202E-05,3.672,0
0.2457,-2.24918E-05,3.6855,0,0.2457,3.356985E-05,3.6855,0
0.2466,-5.706874E-06,3.699,0,0.2466,4.565499E-05,3.699,0
0.2475,4.263371E-05,3.7125,0,0.2475,1.644922E-05,3.7125,0
0.2484,-8.728161E-06,3.726,0,0.2484,-1.242084E-05,3.726,0
0.2493,-0.0001000381,3.7395,0,0.2493,-6.713969E-07,3.7395,0
0.2502,-3.256275E-05,3.753,0,0.2502,-4.733349E-05,3.753,0
0.2511,2.1149E-05,3.7665,0,0.2511,-9.869535E-05,3.7665,0
0.252,-7.351797E-05,3.78,0,0.252,-4.53193E-05,3.78,0
0.2529,-7.016098E-05,3.7935,0,0.2529,-5.941863E-05,3.7935,0
0.2538,-6.713969E-07,3.807,0,0.2538,-0.0001215228,3.807,0
0.2547,-7.855344E-05,3.8205,0,0.2547,-6.64683E-05,3.8205,0
0.2556,-9.802396E-05,3.834,0,0.2556,6.042573E-06,3.834,0
0.2565,-9.365987E-05,3.8475,0,0.2565,1.309224E-05,3.8475,0
0.2574,-6.61326E-05,3.861,0,0.2574,8.392462E-06,3.861,0
0.2583,8.392462E-06,3.8745,0,0.2583,-3.793393E-05,3.8745,0
0.2592,8.224613E-05,3.888,0,0.2592,-6.713969E-07,3.888,0
0.2601,1.376364E-05,3.9015,0,0.2601,1.007095E-06,3.9015,0
0.261,6.713969E-07,3.915,0,0.261,-5.136187E-05,3.915,0
0.2619,7.486076E-05,3.9285,0,0.2619,-7.150377E-05,3.9285,0
0.2628,-2.584878E-05,3.942,0,0.2628,-2.987716E-05,3.942,0
0.2637,-6.109713E-05,3.9555,0,0.2637,-4.129091E-05,3.9555,0
0.2646,6.74754E-05,3.969,0,0.2646,-6.54612E-05,3.969,0
0.2655,-4.666209E-05,3.9825,0,0.2655,2.887007E-05,3.9825,0
0.2664,-0.0001000381,3.996,0,0.2664,5.035477E-05,3.996,0
0.2673,8.459602E-05,4.0095,0,0.2673,8.728161E-06,4.0095,0
0.2682,0.0001225299,4.023,0,0.2682,2.417029E-05,4.023,0
0.2691,-2.786297E-05,4.0365,0,0.2691,5.505455E-05,4.0365,0
0.27,2.517739E-05,4.05,0,0.27,2.1149E-05,4.05,0
0.2709,8.69459E-05,4.0635,0,0.2709,2.887007E-05,4.0635,0
0.2718,0.0001373007,4.077,0,0.2718,1.208515E-05,4.077,0
0.2727,7.418937E-05,4.0905,0,0.2727,3.591974E-05,4.0905,0
0.2736,-2.349889E-05,4.104,0,0.2736,4.53193E-05,4.104,0
0.2745,2.517739E-05,4.1175,0,0.2745,-3.021286E-06,4.1175,0
0.2754,8.761731E-05,4.131,0,0.2754,-3.524834E-05,4.131,0
0.2763,6.143282E-05,4.1445,0,0.2763,3.021286E-06,4.1445,0
0.2772,2.517739E-05,4.158,0,0.2772,-1.107805E-05,4.158,0
0.2781,0.0001299153,4.1715,0,0.2781,-7.284657E-05,4.1715,0
0.279,0.0001178302,4.185,0,0.279,2.685588E-06,4.185,0
0.2799,0.0001285725,4.1985,0,0.2799,2.014191E-06,4.1985,0
0.2808,0.0001483787,4.212,0,0.2808,-5.505455E-05,4.212,0
0.2817,0.0001312581,4.2255,0,0.2817,-5.404745E-05,4.2255,0
0.2826,6.411841E-05,4.239,0,0.2826,-2.652018E-05,4.239,0
0.2835,2.685588E-05,4.2525,0,0.2835,-5.035477E-05,4.2525,0
0.2844,6.478981E-05,4.266,0,0.2844,-5.404745E-05,4.266,0
0.2853,0.0001688563,4.2795,0,0.2853,-0.0001111162,4.2795,0
0.2862,5.874724E-05,4.293,0,0.2862,-6.210422E-05,4.293,0
0.2871,-5.941863E-05,4.3065,0,0.2871,-4.666209E-05,4.3065,0
0.288,3.457694E-05,4.32,0,0.288,-0.0001121233,4.32,0
0.2889,3.994812E-05,4.3335,0,0.2889,-0.0001339437,4.3335,0
0.2898,-9.433127E-05,4.347,0,0.2898,-0.0001094377,4.347,0
0.2907,-5.404745E-05,4.3605,0,0.2907,-0.0001332723,4.3605,0
0.2916,1.712062E-05,4.374,0,0.2916,-0.0001601282,4.374,0
0.2925,-8.358892E-05,4.3875,0,0.2925,-6.64683E-05,4.3875,0
0.2934,-3.927672E-05,4.401,0,0.2934,-6.814679E-05,4.401,0
0.2943,7.956054E-05,4.4145,0,0.2943,-0.0001292439,4.4145,0
0.2952,-1.779202E-05,4.428,0,0.2952,-8.627451E-05,4.428,0
0.2961,-8.090334E-05,4.4415,0,0.2961,-2.652018E-05,4.4415,0
0.297,-4.867628E-05,4.455,0,0.297,-4.53193E-05,4.455,0
0.2979,-5.941863E-05,4.4685,0,0.2979,-3.524834E-05,4.4685,0
0.2988,1.980621E-05,4.482,0,0.2988,-6.478981E-05,4.482,0
0.2997,-9.735256E-06,4.4955,0,0.2997,-2.517739E-05,4.4955,0
0.3006,-0.0001107805,4.509,0,0.3006,1.275654E-05,4.509,0
0.3015,-5.471885E-05,4.5225,0,0.3015,-1.611353E-05,4.5225,0
0.3024,3.591974E-05,4.536,0,0.3024,-3.726253E-05,4.536,0
0.3033,-0.0001245441,4.5495,0,0.3033,8.728161E-06,4.5495,0
0.3042,-9.198138E-05,4.563,0,0.3042,-1.409934E-05,4.563,0
0.3051,1.980621E-05,4.5765,0,0.3051,-6.54612E-05,4.5765,0
0.306,-6.143282E-05,4.59,0,0.306,5.706874E-06,4.59,0
0.3069,-0.0001567712,4.6035,0,0.3069,1.309224E-05,4.6035,0
0.3078,-0.0001168231,4.617,0,0.3078,-3.289845E-05,4.617,0
0.3087,-0.0001037308,4.6305,0,0.3087,1.510643E-05,4.6305,0
0.3096,-0.0002339818,4.644,0,0.3096,3.558404E-05,4.644,0
0.3105,-0.0002041047,4.6575,0,0.3105,1.275654E-05,4.6575,0
0.3114,-0.0001205158,4.671,0,0.3114,6.378271E-06,4.671,0
0.3123,-0.0001232013,4.6845,0,0.3123,-1.846342E-05,4.6845,0
0.3132,-0.0001033951,4.698,0,0.3132,4.263371E-05,4.698,0
0.3141,-0.000109102,4.7115,0,0.3141,1.040665E-05,4.7115,0
0.315,-0.0001722133,4.725,0,0.315,-2.316319E-05,4.725,0
0.3159,-6.54612E-05,4.7385,0,0.3159,-3.659113E-05,4.7385,0
0.3168,-0.0001030594,4.752,0,0.3168,1.577783E-05,4.752,0
0.3177,-4.565499E-05,4.7655,0,0.3177,-1.678492E-05,4.7655,0
0.3186,8.96315E-05,4.779,0,0.3186,-8.090334E-05,4.779,0
0.3195,9.063859E-06,4.7925,0,0.3195,-1.242084E-05,4.7925,0
0.3204,7.687495E-05,4.806,0,0.3204,-2.1149E-05,4.806,0
0.3213,9.298848E-05,4.8195,0,0.3213,-8.560311E-05,4.8195,0
0.3222,8.224613E-05,4.833,0,0.3222,-5.606165E-05,4.833,0
0.3231,7.183947E-05,4.8465,0,0.3231,-2.18204E-05,4.8465,0
0.324,4.36408E-05,4.86,0,0.324,-1.342794E-05,4.86,0
0.3249,8.392462E-05,4.8735,0,0.3249,1.007095E-05,4.8735,0
0.3258,0.000158114,4.887,0,0.3258,-2.014191E-05,4.887,0
0.3267,5.807584E-05,4.9005,0,0.3267,3.860533E-05,4.9005,0
0.3276,-9.164568E-05,4.914,0,0.3276,6.881819E-05,4.914,0
0.3285,5.035477E-06,4.9275,0,0.3285,2.081331E-05,4.9275,0
0.3294,5.203327E-05,4.941,0,0.3294,-1.242084E-05,4.941,0
0.3303,-2.853437E-05,4.9545,0,0.3303,4.867628E-05,4.9545,0
0.3312,-1.779202E-05,4.968,0,0.3312,2.21561E-05,4.968,0
0.3321,0.0001339437,4.9815,0,0.3321,-4.33051E-05,4.9815,0
0.333,-3.759823E-05,4.995,0,0.333,1.812772E-05,4.995,0
0.3339,-4.061952E-05,5.0085,0,0.3339,1.309224E-05,5.0085,0
0.3348,4.095522E-05,5.022,0,0.3348,-2.987716E-05,5.022,0
0.3357,4.699779E-06,5.0355,0,0.3357,-9.735256E-06,5.0355,0
0.3366,-0.000102388,5.049,0,0.3366,3.021286E-05,5.049,0
0.3375,-4.33051E-05,5.0625,0,0.3375,1.376364E-05,5.0625,0
0.3384,-2.853437E-05,5.076,0,0.3384,-1.242084E-05,5.076,0
0.3393,2.987716E-05,5.0895,0,0.3393,-6.076142E-05,5.0895,0
0.3402,6.74754E-05,5.103,0,0.3402,-2.349889E-05,5.103,0
0.3411,-8.72816E-05,5.1165,0,0.3411,-1.107805E-05,5.1165,0
0.342,-4.061952E-05,5.13,0,0.342,-5.539025E-05,5.13,0
0.3429,3.860533E-05,5.1435,0,0.3429,-3.793393E-05,5.1435,0
0.3438,-6.61326E-05,5.157,0,0.3438,3.424125E-05,5.157,0
0.3447,-8.090334E-05,5.1705,0,0.3447,-1.275654E-05,5.1705,0
0.3456,-3.356985E-07,5.184,0,0.3456,-5.807584E-05,5.184,0
0.3465,-0.0001017166,5.1975,0,0.3465,1.812772E-05,5.1975,0
0.3474,-7.922484E-05,5.211,0,0.3474,2.383459E-05,5.211,0
0.3483,-2.987716E-05,5.2245,0,0.3483,-3.088426E-05,5.2245,0
0.3492,-2.786297E-05,5.238,0,0.3492,-1.141375E-05,5.238,0
0.3501,-0.0001762417,5.2515,0,0.3501,-1.007095E-05,5.2515,0
0.351,-0.0001185016,5.265,0,0.351,-2.786297E-05,5.265,0
0.3519,-5.035477E-06,5.2785,0,0.3519,-6.6804E-05,5.2785,0
0.3528,7.721065E-06,5.292,0,0.3528,-0.0001037308,5.292,0
0.3537,-4.39765E-05,5.3055,0,0.3537,-6.881819E-05,5.3055,0
0.3546,-0.0001080949,5.319,0,0.3546,-5.539025E-05,5.319,0
0.3555,-6.713969E-07,5.3325,0,0.3555,-5.975433E-05,5.3325,0
0.3564,3.726253E-05,5.346,0,0.3564,-6.344701E-05,5.346,0
0.3573,7.721065E-06,5.3595,0,0.3573,-2.1149E-05,5.3595,0
0.3582,8.426032E-05,5.373,0,0.3582,-3.323415E-05,5.373,0
0.3591,0.0001299153,5.3865,0,0.3591,-0.0001010452,5.3865,0
0.36,6.814679E-05,5.4,0,0.36,-1.275654E-05,5.4,0
0.3609,0.0001624781,5.4135,0,0.3609,3.826963E-05,5.4135,0
0.3618,0.0001846342,5.427,0,0.3618,1.242084E-05,5.427,0
0.3627,5.035477E-05,5.4405,0,0.3627,7.553216E-05,5.4405,0
0.3636,2.786297E-05,5.454,0,0.3636,0.0001228656,5.454,0
0.3645,6.311131E-05,5.4675,0,0.3645,8.996719E-05,5.4675,0
0.3654,6.411841E-05,5.481,0,0.3654,3.860533E-05,5.481,0
0.3663,0.0001134661,5.4945,0,0.3663,3.692683E-06,5.4945,0
0.3672,0.0001409934,5.508,0,0.3672,5.740444E-05,5.508,0
0.3681,-1.007095E-05,5.5215,0,0.3681,8.560311E-05,5.5215,0
0.369,1.644922E-05,5.535,0,0.369,8.090334E-05,5.535,0
0.3699,0.000109102,5.5485,0,0.3699,7.687495E-05,5.5485,0
0.3708,-4.46479E-05,5.562,0,0.3708,0.0001077592,5.562,0
0.3717,-3.860533E-05,5.5755,0,0.3717,7.418937E-05,5.5755,0
0.3726,9.970245E-05,5.589,0,0.3726,1.779202E-05,5.589,0
0.3735,1.007095E-06,5.6025,0,0.3735,5.807584E-05,5.6025,0
0.3744,3.994812E-05,5.616,0,0.3744,2.316319E-05,5.616,0
0.3753,0.0001352865,5.6295,0,0.3753,-4.599069E-05,5.6295,0
0.3762,9.030289E-05,5.643,0,0.3762,-2.484169E-05,5.643,0
0.3771,-3.289845E-05,5.6565,0,0.3771,-6.042573E-06,5.6565,0
0.378,-2.014191E-06,5.67,0,0.378,-5.270466E-05,5.67,0
0.3789,4.263371E-05,5.6835,0,0.3789,-5.740444E-05,5.6835,0
0.3798,3.457694E-05,5.697,0,0.3798,-8.593881E-05,5.697,0
0.3807,-4.36408E-05,5.7105,0,0.3807,-2.450599E-05,5.7105,0
0.3816,-0.0001352865,5.724,0,0.3816,-1.947051E-05,5.724,0
0.3825,-5.740444E-05,5.7375,0,0.3825,-6.54612E-05,5.7375,0
0.3834,2.752728E-05,5.751,0,0.3834,-6.076142E-05,5.751,0
0.3843,-3.021286E-05,5.7645,0,0.3843,-2.081331E-05,5.7645,0
0.3852,-7.150377E-05,5.778,0,0.3852,-3.927672E-05,5.778,0
0.3861,4.061952E-05,5.7915,0,0.3861,-0.0001111162,5.7915,0
0.387,-4.699779E-06,5.805,0,0.387,-3.390555E-05,5.805,0
0.3879,-3.961242E-05,5.8185,0,0.3879,-2.316319E-05,5.8185,0
0.3888,1.577783E-05,5.832,0,0.3888,-7.016098E-05,5.832,0
0.3897,4.699779E-06,5.8455,0,0.3897,-3.793393E-05,5.8455,0
0.3906,-0.0001033951,5.859,0,0.3906,2.1149E-05,5.859,0
0.3915,-0.000140322,5.8725,0,0.3915,1.477073E-05,5.8725,0
0.3924,-6.78111E-05,5.886,0,0.3924,2.383459E-05,5.886,0
0.3933,4.53193E-05,5.8995,0,0.3933,2.28275E-05,5.8995,0
0.3942,-5.539025E-05,5.913,0,0.3942,8.426032E-05,5.913,0
0.3951,-8.090334E-05,5.9265,0,0.3951,9.433127E-05,5.9265,0
0.396,-1.913481E-05,5.94,0,0.396,2.047761E-05,5.94,0
0.3969,-3.189136E-05,5.9535,0,0.3969,2.349889E-06,5.9535,0
0.3978,-0.0001218585,5.967,0,0.3978,5.841154E-05,5.967,0
0.3987,-0.000109102,5.9805,0,0.3987,4.53193E-05,5.9805,0
0.3996,-2.383459E-05,5.994,0,0.3996,-3.390555E-05,5.994,0
0.4005,-0.0001117876,6.0075,0,0.4005,3.591974E-05,6.0075,0
0.4014,-0.0001467002,6.021,0,0.4014,4.901198E-05,6.021,0
0.4023,-4.028382E-05,6.0345,0,0.4023,-2.24918E-05,6.0345,0
0.4032,-2.28275E-05,6.048,0,0.4032,-2.349889E-05,6.048,0
0.4041,-0.0001131304,6.0615,0,0.4041,-6.042573E-06,6.0615,0
0.405,-3.591974E-05,6.075,0,0.405,-5.807584E-05,6.075,0
0.4059,-5.572595E-05,6.0885,0,0.4059,-8.761731E-05,6.0885,0
0.4068,-1.477073E-05,6.102,0,0.4068,-0.000112459,6.102,0
0.4077,-2.18204E-05,6.1155,0,0.4077,-6.042573E-05,6.1155,0
0.4086,-0.000158114,6.129,0,0.4086,-9.298848E-05,6.129,0
0.4095,-5.740444E-05,6.1425,0,0.4095,-0.000144686,6.1425,0
0.4104,4.666209E-05,6.156,0,0.4104,-0.000158114,6.156,0
0.4113,-9.231708E-05,6.1695,0,0.4113,-0.0001037308,6.1695,0
0.4122,-4.666209E-05,6.183,0,0.4122,-0.0001144732,6.183,0
0.4131,8.89601E-05,6.1965,0,0.4131,-0.0001560998,6.1965,0
0.414,9.735256E-06,6.21,0,0.414,-8.72816E-05,6.21,0
0.4149,5.035477E-06,6.2235,0,0.4149,-7.284657E-05,6.2235,0
0.4158,0.0001144732,6.237,0,0.4158,-0.000109102,6.237,0
0.4167,7.486076E-05,6.2505,0,0.4167,-8.157473E-05,6.2505,0
0.4176,-3.256275E-05,6.264,0,0.4176,-4.129091E-05,6.264,0
0.4185,1.007095E-05,6.2775,0,0.4185,-4.968337E-05,6.2775,0
0.4194,5.606165E-05,6.291,0,0.4194,-3.356985E-05,6.291,0
0.4203,4.196231E-05,6.3045,0,0.4203,-4.699779E-05,6.3045,0
0.4212,3.591974E-05,6.318,0,0.4212,1.510643E-05,6.318,0
0.4221,-2.316319E-05,6.3315,0,0.4221,1.980621E-05,6.3315,0
0.423,-3.759823E-05,6.345,0,0.423,-1.779202E-05,6.345,0
0.4239,5.639734E-05,6.3585,0,0.4239,-1.242084E-05,6.3585,0
0.4248,-2.014191E-06,6.372,0,0.4248,4.162661E-05,6.372,0
0.4257,-3.390555E-05,6.3855,0,0.4257,-1.040665E-05,6.3855,0
0.4266,5.404745E-05,6.399,0,0.4266,-5.471885E-05,6.399,0
0.4275,-1.376364E-05,6.4125,0,0.4275,3.356985E-05,6.4125,0
0.4284,3.927672E-05,6.426,0,0.4284,1.678492E-06,6.426,0
0.4293,9.466698E-05,6.4395,0,0.4293,-6.6804E-05,6.4395,0
0.4302,9.768826E-05,6.453,0,0.4302,-1.712062E-05,6.453,0
0.4311,2.383459E-05,6.4665,0,0.4311,3.054856E-05,6.4665,0
0.432,-9.399558E-06,6.48,0,0.432,-7.049668E-06,6.48,0
0.4329,3.591974E-05,6.4935,0,0.4329,1.712062E-05,6.4935,0
0.4338,7.452507E-05,6.507,0,0.4338,-9.399558E-06,6.507,0
0.4347,-1.007095E-06,6.5205,0,0.4347,6.948959E-05,6.5205,0
0.4356,-0.0001362936,6.534,0,0.4356,4.33051E-05,6.534,0
0.4365,-4.800488E-05,6.5475,0,0.4365,-1.309224E-05,6.5475,0
0.4374,1.678492E-06,6.561,0,0.4374,-3.927672E-05,6.561,0
0.4383,-0.0001433432,6.5745,0,0.4383,1.376364E-05,6.5745,0
0.4392,-8.627451E-05,6.588,0,0.4392,6.713969E-07,6.588,0
0.4401,2.920577E-05,6.6015,0,0.4401,-5.639734E-05,6.6015,0
0.441,-2.584878E-05,6.615,0,0.441,-1.074235E-05,6.615,0
0.4419,0.0001245441,6.6285,0,0.4419,-2.786297E-05,6.6285,0
0.4428,0.0001366293,6.642,0,0.4428,-0.000119173,6.642,0
0.4437,8.426032E-05,6.6555,0,0.4437,-9.668116E-05,6.6555,0
0.4446,5.337606E-05,6.669,0,0.4446,-5.471885E-05,6.669,0
0.4455,3.323415E-05,6.6825,0,0.4455,-8.560311E-05,6.6825,0
0.4464,-1.107805E-05,6.696,0,0.4464,-9.835965E-05,6.696,0
0.4473,4.599069E-05,6.7095,0,0.4473,-0.0001252155,6.7095,0
0.4482,-3.054856E-05,6.723,0,0.4482,-6.344701E-05,6.723,0
0.4491,-7.721065E-05,6.7365,0,0.4491,-4.36408E-05,6.7365,0
0.45,-9.701686E-05,6.75,0,0.45,-9.097429E-05,6.75,0
0.4509,-3.826963E-05,6.7635,0,0.4509,-8.560311E-05,6.7635,0
0.4518,-0.0001225299,6.777,0,0.4518,-1.544213E-05,6.777,0
0.4527,-0.0001104448,6.7905,0,0.4527,-3.256275E-05,6.7905,0
0.4536,3.390555E-05,6.804,0,0.4536,-6.61326E-05,6.804,0
0.4545,-9.735256E-05,6.8175,0,0.4545,2.652018E-05,6.8175,0
0.4554,-0.0001641566,6.831,0,0.4554,3.189136E-05,6.831,0
0.4563,-5.069047E-05,6.8445,0,0.4563,-1.846342E-05,6.8445,0
0.4572,-0.000112459,6.858,0,0.4572,3.994812E-05,6.858,0
0.4581,-0.0002034333,6.8715,0,0.4581,7.351797E-05,6.8715,0
0.459,-7.251087E-05,6.885,0,0.459,7.049668E-05,6.885,0
0.4599,-1.678492E-06,6.8985,0,0.4599,7.687495E-05,6.8985,0
0.4608,4.934768E-05,6.912,0,0.4608,5.337606E-05,6.912,0
0.4617,6.143282E-05,6.9255,0,0.4617,7.251087E-05,6.9255,0
0.4626,0.0001161517,6.939,0,0.4626,4.599069E-05,6.939,0
0.4635,0.0001064164,6.9525,0,0.4635,9.735256E-06,6.9525,0
0.4644,0.0001121233,6.966,0,0.4644,-2.987716E-05,6.966,0
0.4653,4.263371E-05,6.9795,0,0.4653,1.040665E-05,6.9795,0
0.4662,5.203327E-05,6.993,0,0.4662,-5.706874E-06,6.993,0
0.4671,9.265278E-05,7.0065,0,0.4671,-8.426032E-05,7.0065,0
0.468,9.735256E-06,7.02,0,0.468,-2.24918E-05,7.02,0
0.4689,2.014191E-06,7.0335,0,0.4689,2.652018E-05,7.0335,0
0.4698,4.263371E-05,7.047,0,0.4698,-1.510643E-05,7.047,0
0.4707,4.263371E-05,7.0605,0,0.4707,1.040665E-05,7.0605,0
0.4716,-2.450599E-05,7.074,0,0.4716,4.196231E-05,7.074,0
0.4725,-1.644922E-05,7.0875,0,0.4725,1.947051E-05,7.0875,0
0.4734,-1.242084E-05,7.101,0,0.4734,-2.014191E-06,7.101,0
0.4743,3.457694E-05,7.1145,0,0.4743,-4.834058E-05,7.1145,0
0.4752,3.021286E-06,7.128,0,0.4752,-6.042573E-06,7.128,0
0.4761,-0.0001312581,7.1415,0,0.4761,-3.021286E-06,7.1415,0
0.477,-5.069047E-05,7.155,0,0.477,-7.284657E-05,7.155,0
0.4779,5.270466E-05,7.1685,0,0.4779,-7.553216E-05,7.1685,0
0.4788,-8.82887E-05,7.182,0,0.4788,9.735256E-06,7.182,0
0.4797,-5.505455E-05,7.1955,0,0.4797,-3.256275E-05,7.1955,0
0.4806,5.505455E-05,7.209,0,0.4806,-9.097429E-05,7.209,0
0.4815,-7.016098E-05,7.2225,0,0.4815,-2.081331E-05,7.2225,0
0.4824,-0.0001030594,7.236,0,0.4824,1.611353E-05,7.236,0
0.4833,1.007095E-06,7.2495,0,0.4833,7.049668E-06,7.2495,0
0.4842,-3.323415E-05,7.263,0,0.4842,6.277562E-05,7.263,0
0.4851,-0.0001027237,7.2765,0,0.4851,0.000119173,7.2765,0
0.486,-7.150377E-05,7.29,0,0.486,0.0001017166,7.29,0
0.4869,-1.477073E-05,7.3035,0,0.4869,9.231708E-05,7.3035,0
0.4878,1.577783E-05,7.317,0,0.4878,3.826963E-05,7.317,0
0.4887,5.874724E-05,7.3305,0,0.4887,3.222705E-05,7.3305,0
0.4896,5.706874E-06,7.344,0,0.4896,-1.107805E-05,7.344,0
0.4905,6.009003E-05,7.3575,0,0.4905,-4.867628E-05,7.3575,0
0.4914,0.0002084688,7.371,0,0.4914,-6.54612E-05,7.371,0
0.4923,0.0001416648,7.3845,0,0.4923,-3.356985E-05,7.3845,0
0.4932,9.433127E-05,7.398,0,0.4932,-9.869535E-05,7.398,0
0.4941,0.0002218967,7.4115,0,0.4941,-0.0001668421,7.4115,0
0.495,0.0001433432,7.425,0,0.495,-0.0001010452,7.425,0
0.4959,6.109713E-05,7.4385,0,0.4959,-0.0001064164,7.4385,0
0.4968,9.634547E-05,7.452,0,0.4968,-0.0001453574,7.452,0
0.4977,0.0001319295,7.4655,0,0.4977,-8.291753E-05,7.4655,0
0.4986,-3.793393E-05,7.479,0,0.4986,-4.733349E-05,7.479,0
0.4995,-5.270466E-05,7.4925,0,0.4995,-5.471885E-05,7.4925,0
0.5004,-9.735256E-06,7.506,0,0.5004,-6.210422E-05,7.506,0
0.5013,-1.879912E-05,7.5195,0,0.5013,-8.358892E-05,7.5195,0
0.5022,-0.0001010452,7.533,0,0.5022,-4.46479E-05,7.533,0
0.5031,-0.0001560998,7.5465,0,0.5031,-4.061952E-05,7.5465,0
0.504,-9.668116E-05,7.56,0,0.504,-8.291753E-05,7.56,0
0.5049,-7.016098E-05,7.5735,0,0.5049,-7.351797E-05,7.5735,0
0.5058,-0.000112459,7.587,0,0.5058,-2.752728E-05,7.587,0
0.5067,-8.69459E-05,7.6005,0,0.5067,-4.095522E-05,7.6005,0
0.5076,2.517739E-05,7.614,0,0.5076,-8.056764E-05,7.614,0
0.5085,-5.404745E-05,7.6275,0,0.5085,3.692683E-06,7.6275,0
0.5094,-8.056763E-06,7.641,0,0.5094,-1.040665E-05,7.641,0
0.5103,1.846342E-05,7.6545,0,0.5103,-7.418937E-05,7.6545,0
0.5112,-2.786297E-05,7.668,0,0.5112,-5.337606E-05,7.668,0
0.5121,-9.097429E-05,7.6815,0,0.5121,-9.735256E-06,7.6815,0
0.513,-2.618448E-05,7.695,0,0.513,-4.800488E-05,7.695,0
0.5139,-5.169757E-05,7.7085,0,0.5139,-1.846342E-05,7.7085,0
0.5148,2.853437E-05,7.722,0,0.5148,-3.189136E-05,7.722,0
0.5157,2.349889E-05,7.7355,0,0.5157,6.378271E-06,7.7355,0
0.5166,-7.016098E-05,7.749,0,0.5166,4.766919E-05,7.749,0
0.5175,-6.378271E-06,7.7625,0,0.5175,-1.443504E-05,7.7625,0
0.5184,4.263371E-05,7.776,0,0.5184,-1.309224E-05,7.776,0
0.5193,-6.74754E-05,7.7895,0,0.5193,5.740444E-05,7.7895,0
0.5202,-3.256275E-05,7.803,0,0.5202,3.054856E-05,7.803,0
0.5211,8.426032E-05,7.8165,0,0.5211,-2.618448E-05,7.8165,0
0.522,6.378271E-06,7.83,0,0.522,3.591974E-05,7.83,0
0.5229,4.39765E-05,7.8435,0,0.5229,4.599069E-05,7.8435,0
0.5238,0.0001252155,7.857,0,0.5238,-1.846342E-05,7.857,0
0.5247,3.189136E-05,7.8705,0,0.5247,1.678492E-06,7.8705,0
0.5256,-1.376364E-05,7.884,0,0.5256,4.39765E-05,7.884,0
0.5265,5.539025E-05,7.8975,0,0.5265,1.510643E-05,7.8975,0
0.5274,2.853437E-05,7.911,0,0.5274,-3.356985E-07,7.911,0
0.5283,3.457694E-05,7.9245,0,0.5283,-3.491264E-05,7.9245,0
0.5292,5.136187E-05,7.938,0,0.5292,-1.275654E-05,7.938,0
0.5301,4.33051E-05,7.9515,0,0.5301,-1.242084E-05,7.9515,0
0.531,-2.954147E-05,7.965,0,0.531,-4.599069E-05,7.965,0
0.5319,0,7.9785,0,0.5319,-5.841154E-05,7.9785,0
0.5328,-4.061952E-05,7.992,0,0.5328,-8.392462E-06,7.992,0
0.5337,-6.344701E-05,8.0055,0,0.5337,-4.800488E-05,8.0055,0
0.5346,3.726253E-05,8.019,0,0.5346,-7.956054E-05,8.019,0
0.5355,-1.141375E-05,8.0325,0,0.5355,3.356985E-06,8.0325,0
0.5364,-0.0001097734,8.046,0,0.5364,7.721065E-06,8.046,0
0.5373,-7.821774E-05,8.0595,0,0.5373,-3.424125E-05,8.0595,0
0.5382,-3.390555E-05,8.073,0,0.5382,2.1149E-05,8.073,0
0.5391,-0.0001084306,8.0865,0,0.5391,4.43122E-05,8.0865,0
0.54,-0.0001070878,8.1,0,0.54,1.544213E-05,8.1,0
0.5409,-4.934768E-05,8.1135,0,0.5409,1.342794E-05,8.1135,0
0.5418,-7.385367E-06,8.127,0,0.5418,-3.256275E-05,8.127,0
0.5427,-1.846342E-05,8.1405,0,0.5427,1.309224E-05,8.1405,0
0.5436,-8.123904E-05,8.154,0,0.5436,2.383459E-05,8.154,0
0.5445,-1.913481E-05,8.1675,0,0.5445,3.356985E-07,8.1675,0
0.5454,-3.054856E-05,8.181,0,0.5454,-3.054856E-05,8.181,0
0.5463,-0.0001708705,8.1945,0,0.5463,4.46479E-05,8.1945,0
0.5472,-0.0001272297,8.208,0,0.5472,6.54612E-05,8.208,0
0.5481,-1.443504E-05,8.2215,0,0.5481,1.812772E-05,8.2215,0
0.549,-0.0001366293,8.235,0,0.549,0.0001000381,8.235,0
0.5499,-5.539025E-05,8.2485,0,0.5499,0.0001305867,8.2485,0
0.5508,1.040665E-05,8.262,0,0.5508,5.941863E-05,8.262,0
0.5517,-6.57969E-05,8.2755,0,0.5517,5.606165E-05,8.2755,0
0.5526,-5.539025E-05,8.289,0,0.5526,9.567407E-05,8.289,0
0.5535,-7.486076E-05,8.3025,0,0.5535,5.874724E-05,8.3025,0
0.5544,-7.586786E-05,8.316,0,0.5544,4.968337E-05,8.316,0
0.5553,7.049668E-06,8.3295,0,0.5553,1.913481E-05,8.3295,0
0.5562,2.1149E-05,8.343,0,0.5562,8.090334E-05,8.343,0
0.5571,3.659113E-05,8.3565,0,0.5571,6.915389E-05,8.3565,0
0.558,-1.678492E-06,8.37,0,0.558,-1.477073E-05,8.37,0
0.5589,4.800488E-05,8.3835,0,0.5589,-1.980621E-05,8.3835,0
0.5598,-7.284657E-05,8.397,0,0.5598,2.920577E-05,8.397,0
0.5607,-7.318227E-05,8.4105,0,0.5607,-2.719158E-05,8.4105,0
0.5616,0.000109102,8.424,0,0.5616,-9.768826E-05,8.424,0
0.5625,-4.196231E-05,8.4375,0,0.5625,-3.726253E-05,8.4375,0
0.5634,-0.000102388,8.451,0,0.5634,-5.404745E-05,8.451,0
0.5643,3.961242E-05,8.4645,0,0.5643,-0.0001097734,8.4645,0
0.5652,8.560311E-05,8.478,0,0.5652,-8.157473E-05,8.478,0
0.5661,-9.198138E-05,8.4915,0,0.5661,-6.74754E-05,8.4915,0
0.567,-1.577783E-05,8.505,0,0.567,-8.795301E-05,8.505,0
0.5679,7.553216E-05,8.5185,0,0.5679,-8.157473E-05,8.5185,0
0.5688,3.894102E-05,8.532,0,0.5688,-8.82887E-05,8.532,0
0.5697,-3.356985E-07,8.5455,0,0.5697,-4.36408E-05,8.5455,0
0.5706,-7.553216E-05,8.559,0,0.5706,-2.18204E-05,8.559,0
0.5715,-8.291753E-05,8.5725,0,0.5715,-1.544213E-05,8.5725,0
0.5724,3.692683E-06,8.586,0,0.5724,-1.107805E-05,8.586,0
0.5733,-4.061952E-05,8.5995,0,0.5733,4.028382E-05,8.5995,0
0.5742,-4.666209E-05,8.613,0,0.5742,6.378271E-06,8.613,0
0.5751,4.934768E-05,8.6265,0,0.5751,-8.493171E-05,8.6265,0
0.576,6.378271E-06,8.64,0,0.576,-3.289845E-05,8.64,0
0.5769,7.385367E-06,8.6535,0,0.5769,-4.36408E-06,8.6535,0
0.5778,0.0001178302,8.667,0,0.5778,-9.063859E-05,8.667,0
0.5787,0.0001849699,8.6805,0,0.5787,-0.0001171588,8.6805,0
0.5796,0.0001104448,8.694,0,0.5796,-7.754635E-05,8.694,0
0.5805,0.0001044022,8.7075,0,0.5805,-0.0001064164,8.7075,0
0.5814,0.0001493858,8.721,0,0.5814,-0.0001530785,8.721,0
0.5823,0.0001940337,8.7345,0,0.5823,-0.000186984,8.7345,0
0.5832,0.0001366293,8.748,0,0.5832,-0.0001154803,8.748,0
0.5841,2.752728E-05,8.7615,0,0.5841,-8.82887E-05,8.7615,0
0.585,0.0001111162,8.775,0,0.585,-0.0001117876,8.775,0
0.5859,8.89601E-05,8.7885,0,0.5859,-8.023193E-05,8.7885,0
0.5868,2.786297E-05,8.802,0,0.5868,-9.735256E-06,8.802,0
0.5877,0.000115816,8.8155,0,0.5877,-4.43122E-05,8.8155,0
0.5886,0.0001161517,8.829,0,0.5886,-0.0001000381,8.829,0
0.5895,-3.424125E-05,8.8425,0,0.5895,-5.001907E-05,8.8425,0
0.5904,-3.961242E-05,8.856,0,0.5904,-3.121996E-05,8.856,0
0.5913,5.505455E-05,8.8695,0,0.5913,-8.761731E-05,8.8695,0
0.5922,7.150377E-05,8.883,0,0.5922,-3.591974E-05,8.883,0
0.5931,-0.0001013809,8.8965,0,0.5931,-2.987716E-05,8.8965,0
0.594,-5.807584E-05,8.91,0,0.594,-6.881819E-05,8.91,0
0.5949,-5.203327E-05,8.9235,0,0.5949,-5.606165E-05,8.9235,0
0.5958,2.1149E-05,8.937,0,0.5958,-5.471885E-05,8.937,0
0.5967,0.0001131304,8.9505,0,0.5967,2.047761E-05,8.9505,0
0.5976,3.793393E-05,8.964,0,0.5976,5.941863E-05,8.964,0
0.5985,6.6804E-05,8.9775,0,0.5985,4.53193E-05,8.9775,0
0.5994,0.0001681849,8.991,0,0.5994,2.652018E-05,8.991,0
0.6003,2.618448E-05,9.0045,0,0.6003,8.761731E-05,9.0045,0
0.6012,2.047761E-05,9.018,0,0.6012,6.344701E-05,9.018,0
0.6021,0.0001876554,9.0315,0,0.6021,5.069047E-05,9.0315,0
0.603,7.486076E-05,9.045,0,0.603,0.000105745,9.045,0
0.6039,-8.96315E-05,9.0585,0,0.6039,6.6804E-05,9.0585,0
0.6048,-5.606165E-05,9.072001,0,0.6048,4.699779E-06,9.072001,0
0.6057,5.035477E-06,9.0855,0,0.6057,-5.035477E-06,9.0855,0
0.6066,-0.0001795987,9.099,0,0.6066,3.054856E-05,9.099,0
0.6075,-0.0001520714,9.1125,0,0.6075,1.644922E-05,9.1125,0
0.6084,-8.224613E-05,9.126,0,0.6084,1.577783E-05,9.126,0
0.6093,-9.701686E-05,9.1395,0,0.6093,1.644922E-05,9.1395,0
0.6102,-0.0001077592,9.153,0,0.6102,9.332418E-05,9.153,0
0.6111,-7.284657E-05,9.1665,0,0.6111,0.0001362936,9.1665,0
0.612,-7.284657E-05,9.18,0,0.612,0.0001060807,9.18,0
0.6129,-9.063859E-05,9.1935,0,0.6129,7.351797E-05,9.1935,0
0.6138,-0.0001638209,9.207,0,0.6138,9.231708E-05,9.207,0
0.6147,-0.0001507286,9.2205,0,0.6147,3.793393E-05,9.2205,0
0.6156,-1.477073E-05,9.234,0,0.6156,-5.740444E-05,9.234,0
0.6165,-0.0001181659,9.2475,0,0.6165,-2.685588E-06,9.2475,0
0.6174,-0.0001544213,9.261,0,0.6174,-2.517739E-05,9.261,0
0.6183,-0.0001205158,9.2745,0,0.6183,-9.970245E-05,9.2745,0
0.6192,-0.0001074235,9.288,0,0.6192,-7.821774E-05,9.288,0
0.6201,-0.0001587854,9.3015,0,0.6201,-7.150377E-05,9.3015,0
0.621,-0.0001299153,9.315,0,0.621,-0.0001134661,9.315,0
0.6219,-0.0001319295,9.3285,0,0.6219,-0.0001111162,9.3285,0
0.6228,9.735256E-06,9.342,0,0.6228,-0.0001299153,9.342,0
0.6237,4.061952E-05,9.3555,0,0.6237,-6.478981E-05,9.3555,0
0.6246,-7.385367E-06,9.369,0,0.6246,-4.229801E-05,9.369,0
0.6255,5.841154E-05,9.3825,0,0.6255,-8.89601E-05,9.3825,0
0.6264,3.021286E-05,9.396,0,0.6264,-7.721065E-05,9.396,0
0.6273,-8.459602E-05,9.4095,0,0.6273,-3.826963E-05,9.4095,0
0.6282,-4.733349E-05,9.423,0,0.6282,-0.0001084306,9.423,0
0.6291,7.620356E-05,9.4365,0,0.6291,-0.0001916838,9.4365,0
0.63,-2.987716E-05,9.45,0,0.63,-0.0001238727,9.45,0
0.6309,-5.169757E-05,9.4635,0,0.6309,-8.392462E-05,9.4635,0
0.6318,2.719158E-05,9.477,0,0.6318,-0.0001292439,9.477,0
0.6327,1.644922E-05,9.4905,0,0.6327,-0.000115816,9.4905,0
0.6336,-4.867628E-05,9.504,0,0.6336,-7.116808E-05,9.504,0
0.6345,5.035477E-05,9.5175,0,0.6345,-5.572595E-05,9.5175,0
0.6354,7.049668E-06,9.531,0,0.6354,-6.51255E-05,9.531,0
0.6363,5.203327E-05,9.5445,0,0.6363,-9.835965E-05,9.5445,0
0.6372,0.0001232013,9.558,0,0.6372,-4.162661E-05,9.558,0
0.6381,8.96315E-05,9.5715,0,0.6381,6.378271E-06,9.5715,0
0.639,3.524834E-05,9.585,0,0.639,3.356985E-07,9.585,0
0.6399,3.726253E-05,9.5985,0,0.6399,5.706874E-06,9.5985,0
0.6408,-2.316319E-05,9.612,0,0.6408,8.191043E-05,9.612,0
0.6417,-3.390555E-05,9.6255,0,0.6417,6.6804E-05,9.6255,0
0.6426,0.0001084306,9.639,0,0.6426,5.673304E-05,9.639,0
0.6435,3.591974E-05,9.6525,0,0.6435,0.0001715419,9.6525,0
0.6444,-9.365987E-05,9.666,0,0.6444,0.0001554284,9.666,0
0.6453,-2.24918E-05,9.6795,0,0.6453,9.298848E-05,9.6795,0
0.6462,-5.203327E-05,9.693,0,0.6462,0.0001467002,9.693,0
0.6471,-0.0001534142,9.7065,0,0.6471,0.0001695277,9.7065,0
0.648,-0.0001252155,9.72,0,0.648,0.0001305867,9.72,0
0.6489,-6.411841E-05,9.7335,0,0.6489,0.0001205158,9.7335,0
0.6498,-3.424125E-05,9.747,0,0.6498,8.325322E-05,9.747,0
0.6507,-5.035477E-06,9.7605,0,0.6507,9.835965E-05,9.7605,0
0.6516,6.78111E-05,9.774,0,0.6516,6.51255E-05,9.774,0
0.6525,0.0001440146,9.7875,0,0.6525,3.021286E-05,9.7875,0
0.6534,0.000105745,9.801,0,0.6534,1.309224E-05,9.801,0
0.6543,2.349889E-06,9.8145,0,0.6543,3.155566E-05,9.8145,0
0.6552,-5.035477E-06,9.828,0,0.6552,-1.510643E-05,9.828,0
0.6561,2.1149E-05,9.8415,0,0.6561,-9.231708E-05,9.8415,0
0.657,-0.0001044022,9.855,0,0.657,-9.735256E-06,9.855,0
0.6579,-0.0001238727,9.8685,0,0.6579,-1.544213E-05,9.8685,0
0.6588,-6.64683E-05,9.882,0,0.6588,-7.251087E-05,9.882,0
0.6597,2.24918E-05,9.8955,0,0.6597,2.618448E-05,9.8955,0
0.6606,-3.524834E-05,9.909,0,0.6606,7.855344E-05,9.909,0
0.6615,-8.358892E-05,9.9225,0,0.6615,1.812772E-05,9.9225,0
0.6624,-3.088426E-05,9.936,0,0.6624,4.028382E-06,9.936,0
0.6633,5.136187E-05,9.9495,0,0.6633,-2.18204E-05,9.9495,0
0.6642,7.049668E-05,9.963,0,0.6642,1.779202E-05,9.963,0
0.6651,3.692683E-06,9.976501,0,0.6651,-1.443504E-05,9.976501,0
0.666,1.544213E-05,9.99,0,0.666,-8.69459E-05,9.99,0
0.6669,4.263371E-05,10.0035,0,0.6669,-8.090334E-05,10.0035,0
0.6678,-7.385367E-05,10.017,0,0.6678,-1.242084E-05,10.017,0
0.6687,-4.39765E-05,10.0305,0,0.6687,-3.457694E-05,10.0305,0
0.6696,0.000119173,10.044,0,0.6696,-7.754635E-05,10.044,0
0.6705,-4.196231E-05,10.0575,0,0.6705,7.049668E-06,10.0575,0
0.6714,-0.0001272297,10.071,0,0.6714,-2.450599E-05,10.071,0
0.6723,2.349889E-05,10.0845,0,0.6723,-0.0001084306,10.0845,0
0.6732,-9.063859E-06,10.098,0,0.6732,-8.291753E-05,10.098,0
0.6741,-0.0001550927,10.1115,0,0.6741,-8.795301E-05,10.1115,0
0.675,-4.968337E-05,10.125,0,0.675,-0.000112459,10.125,0
0.6759,-1.409934E-05,10.1385,0,0.6759,-0.0001077592,10.1385,0
0.6768,-3.121996E-05,10.152,0,0.6768,-0.0001349508,10.152,0
0.6777,-9.735256E-06,10.1655,0,0.6777,-0.0001258869,10.1655,0
0.6786,-1.040665E-05,10.179,0,0.6786,-0.0001168231,10.179,0
0.6795,-1.577783E-05,10.1925,0,0.6795,-9.802396E-05,10.1925,0
0.6804,0.0001497215,10.206,0,0.6804,-4.263371E-05,10.206,0
0.6813,0.0001607996,10.2195,0,0.6813,2.383459E-05,10.2195,0
0.6822,0.0001305867,10.233,0,0.6822,-3.390555E-05,10.233,0
0.6831,0.0002195468,10.2465,0,0.6831,-9.433127E-05,10.2465,0
0.684,0.0001742275,10.26,0,0.684,2.21561E-05,10.26,0
0.6849,0.0001554284,10.2735,0,0.6849,3.457694E-05,10.2735,0
0.6858,0.0001809415,10.287,0,0.6858,-2.584878E-05,10.287,0
0.6867,0.0001983978,10.3005,0,0.6867,-1.174945E-05,10.3005,0
0.6876,8.023193E-05,10.314,0,0.6876,-3.826963E-05,10.314,0
0.6885,-1.577783E-05,10.3275,0,0.6885,-7.989624E-05,10.3275,0
0.6894,-7.721065E-06,10.341,0,0.6894,-0.0001003738,10.341,0
0.6903,0.0001017166,10.3545,0,0.6903,-9.668116E-05,10.3545,0
0.6912,-1.779202E-05,10.368,0,0.6912,4.061952E-05,10.368,0
0.6921,-4.53193E-05,10.3815,0,0.6921,2.517739E-05,10.3815,0
0.693,1.174945E-05,10.395,0,0.693,-4.129091E-05,10.395,0
0.6939,-3.021286E-05,10.4085,0,0.6939,-5.069047E-05,10.4085,0
0.6948,-0.0001527428,10.422,0,0.6948,-3.390555E-05,10.422,0
0.6957,-7.888914E-05,10.4355,0,0.6957,-9.332418E-05,10.4355,0
0.6966,-1.947051E-05,10.449,0,0.6966,-7.788205E-05,10.449,0
0.6975,-0.0001087663,10.4625,0,0.6975,-2.987716E-05,10.4625,0
0.6984,-0.0001510643,10.476,0,0.6984,-7.351797E-05,10.476,0
0.6993,-3.054856E-05,10.4895,0,0.6993,-0.0001534142,10.4895,0
0.7002,-7.620356E-05,10.503,0,0.7002,-9.768826E-05,10.503,0
0.7011,-0.0001879911,10.5165,0,0.7011,-2.853437E-05,10.5165,0
0.702,-0.0001601282,10.53,0,0.702,-1.107805E-05,10.53,0
0.7029,-0.0001607996,10.5435,0,0.7029,-2.1149E-05,10.5435,0
0.7038,-0.0001292439,10.557,0,0.7038,1.846342E-05,10.557,0
0.7047,-7.284657E-05,10.5705,0,0.7047,0.0001255512,10.5705,0
0.7056,-0.0001487144,10.584,0,0.7056,0.0001188373,10.584,0
0.7065,-9.164568E-05,10.5975,0,0.7065,3.692683E-06,10.5975,0
0.7074,3.189136E-05,10.611,0,0.7074,-0.0001631495,10.611,0
0.7083,-9.500267E-05,10.6245,0,0.7083,-0.0001168231,10.6245,0
0.7092,-4.699779E-05,10.638,0,0.7092,-6.210422E-05,10.638,0
0.7101,0.0001399863,10.6515,0,0.7101,-4.800488E-05,10.6515,0
0.711,5.706874E-05,10.665,0,0.711,1.577783E-05,10.665,0
0.7119,-1.107805E-05,10.6785,0,0.7119,9.298848E-05,10.6785,0
0.7128,8.090334E-05,10.692,0,0.7128,6.076142E-05,10.692,0
0.7137,7.183947E-05,10.7055,0,0.7137,0.0001000381,10.7055,0
0.7146,-3.793393E-05,10.719,0,0.7146,0.0001540856,10.719,0
0.7155,6.009003E-05,10.7325,0,0.7155,8.157473E-05,10.7325,0
0.7164,0.0001117876,10.746,0,0.7164,-3.491264E-05,10.746,0
0.7173,0.0001131304,10.7595,0,0.7173,-0.0001413291,10.7595,0
0.7182,0.0001151446,10.773,0,0.7182,-7.116808E-05,10.773,0
0.7191,-1.577783E-05,10.7865,0,0.7191,-7.284657E-05,10.7865,0
0.72,-1.812772E-05,10.8,0,0.72,-0.0001332723,10.8,0
0.7209,2.24918E-05,10.8135,0,0.7209,-0.0001507286,10.8135,0
0.7218,-4.33051E-05,10.827,0,0.7218,-6.61326E-05,10.827,0
0.7227,-3.726253E-05,10.8405,0,0.7227,-3.390555E-05,10.8405,0
0.7236,-4.39765E-05,10.854,0,0.7236,-4.196231E-05,10.854,0
0.7245,-0.0001121233,10.8675,0,0.7245,0.0001084306,10.8675,0
0.7254,-4.968337E-05,10.881,0,0.7254,4.733349E-05,10.881,0
0.7263,8.291753E-05,10.8945,0,0.7263,-0.0001010452,10.8945,0
0.7272,0.0001849699,10.908,0,0.7272,-9.970245E-05,10.908,0
0.7281,6.6804E-05,10.9215,0,0.7281,-9.433127E-05,10.9215,0
0.729,4.095522E-05,10.935,0,0.729,2.047761E-05,10.935,0
0.7299,0.0001094377,10.9485,0,0.7299,0.000105745,10.9485,0
0.7308,0.0001782559,10.962,0,0.7308,7.083238E-05,10.962,0
0.7317,0.0001205158,10.9755,0,0.7317,0.0001399863,10.9755,0
0.7326,0.0001473716,10.989,0,0.7326,0.0001326009,10.989,0
0.7335,7.452507E-05,11.0025,0,0.7335,0.0001064164,11.0025,0
0.7344,0.0001131304,11.016,0,0.7344,9.835965E-05,11.016,0
0.7353,-5.874724E-05,11.0295,0,0.7353,2.349889E-05,11.0295,0
0.7362,-9.701686E-05,11.043,0,0.7362,-0.0001567712,11.043,0
0.7371,-2.517739E-05,11.0565,0,0.7371,-0.0003125353,11.0565,0
0.738,-0.000185977,11.07,0,0.738,-0.0002611734,11.07,0
0.7389,-0.0001587854,11.0835,0,0.7389,-0.0002353246,11.0835,0
0.7398,-2.987716E-05,11.097,0,0.7398,-0.0002205539,11.097,0
0.7407,-0.0001963836,11.1105,0,0.7407,-8.661021E-05,11.1105,0
0.7416,-0.0002396887,11.124,0,0.7416,6.009003E-05,11.124,0
0.7425,-0.0001198444,11.1375,0,0.7425,7.486076E-05,11.1375,0
0.7434,-0.0001299153,11.151,0,0.7434,0.0001795987,11.151,0
0.7443,-6.243992E-05,11.1645,0,0.7443,0.0002413672,11.1645,0
0.7452,-5.807584E-05,11.178,0,0.7452,0.0002212253,11.178,0
0.7461,-8.358892E-05,11.1915,0,0.7461,0.0002027619,11.1915,0
0.747,-2.652018E-05,11.205,0,0.747,0.0001420005,11.205,0
0.7479,-4.766919E-05,11.2185,0,0.7479,0.0001084306,11.2185,0
0.7488,-0.0001295796,11.232,0,0.7488,0.0001352865,11.232,0
0.7497,-0.0001245441,11.2455,0,0.7497,3.860533E-05,11.2455,0
0.7506,-3.189136E-05,11.259,0,0.7506,-0.0001117876,11.259,0
0.7515,-7.855344E-05,11.2725,0,0.7515,-9.701686E-05,11.2725,0
0.7524,-1.913481E-05,11.286,0,0.7524,-0.0001010452,11.286,0
0.7533,4.33051E-05,11.2995,0,0.7533,-0.0001661708,11.2995,0
0.7542,-9.130999E-05,11.313,0,0.7542,-0.0002269322,11.313,0
0.7551,-0.0001131304,11.3265,0,0.7551,-0.0001654994,11.3265,0
0.756,8.023193E-05,11.34,0,0.756,-0.0001319295,11.34,0
0.7569,0.0002171969,11.3535,0,0.7569,-0.0001171588,11.3535,0
0.7578,0.0002897078,11.367,0,0.7578,-2.383459E-05,11.367,0
0.7587,0.000190341,11.3805,0,0.7587,4.162661E-05,11.3805,0
0.7596,6.277562E-05,11.394,0,0.7596,0.000112459,11.394,0
0.7605,0.000112459,11.4075,0,0.7605,0.0001607996,11.4075,0
0.7614,4.263371E-05,11.421,0,0.7614,3.390555E-05,11.421,0
0.7623,-0.0001379721,11.4345,0,0.7623,2.383459E-05,11.4345,0
0.7632,-0.0001490501,11.448,0,0.7632,1.208515E-05,11.448,0
0.7641,-9.365987E-05,11.4615,0,0.7641,-4.934768E-05,11.4615,0
0.765,-0.0001953765,11.475,0,0.765,4.766919E-05,11.475,0
0.7659,-9.332418E-05,11.4885,0,0.7659,-6.71397E-05,11.4885,0
0.7668,-5.539025E-05,11.502,0,0.7668,-0.0002376745,11.502,0
0.7677,-8.627451E-05,11.5155,0,0.7677,-0.0002413672,11.5155,0
0.7686,-7.083238E-05,11.529,0,0.7686,-0.0001842985,11.529,0
0.7695,-3.524834E-05,11.5425,0,0.7695,-0.0001567712,11.5425,0
0.7704,2.18204E-05,11.556,0,0.7704,-1.879912E-05,11.556,0
0.7713,7.687495E-05,11.5695,0,0.7713,0.0001205158,11.5695,0
0.7722,7.855344E-05,11.583,0,0.7722,0.0002534524,11.583,0
0.7731,-9.701686E-05,11.5965,0,0.7731,0.0002547952,11.5965,0
0.774,-1.275654E-05,11.61,0,0.774,0.0001785916,11.61,0
0.7749,9.030289E-05,11.6235,0,0.7749,8.69459E-05,11.6235,0
0.7758,-3.121996E-05,11.637,0,0.7758,0.0001121233,11.637,0
0.7767,-3.256275E-05,11.6505,0,0.7767,6.814679E-05,11.6505,0
0.7776,4.934768E-05,11.664,0,0.7776,-5.606165E-05,11.664,0
0.7785,-9.433127E-05,11.6775,0,0.7785,-1.779202E-05,11.6775,0
0.7794,4.263371E-05,11.691,0,0.7794,2.349889E-06,11.691,0
0.7803,0.0002319677,11.7045,0,0.7803,-6.411841E-05,11.7045,0
0.7812,0.0001218585,11.718,0,0.7812,-0.0001567712,11.718,0
0.7821,7.083238E-05,11.7315,0,0.7821,-0.000197055,11.7315,0
0.783,0.0001037308,11.745,0,0.783,-0.0002245823,11.745,0
0.7839,5.203327E-05,11.7585,0,0.7839,-0.000235996,11.7585,0
0.7848,5.706874E-05,11.772,0,0.7848,-0.0002044404,11.772,0
0.7857,0.0001312581,11.7855,0,0.7857,2.081331E-05,11.7855,0
0.7866,0.0001178302,11.799,0,0.7866,8.89601E-05,11.799,0
0.7875,2.652018E-05,11.8125,0,0.7875,8.090334E-05,11.8125,0
0.7884,-9.063859E-06,11.826,0,0.7884,2.517739E-05,11.826,0
0.7893,-0.0001232013,11.8395,0,0.7893,3.726253E-05,11.8395,0
0.7902,-0.0002299535,11.853,0,0.7902,-2.685588E-05,11.853,0
0.7911,-0.0001326009,11.8665,0,0.7911,-7.855344E-05,11.8665,0
0.792,-0.0001644923,11.88,0,0.792,-1.007095E-05,11.88,0
0.7929,-0.0002635233,11.8935,0,0.7929,-0.0001829557,11.8935,0
0.7938,-0.0001980621,11.907,0,0.7938,-0.0004028382,11.907,0
0.7947,-0.0001084306,11.9205,0,0.7947,-0.0003132067,11.9205,0
0.7956,-0.0001876554,11.934,0,0.7956,-0.0001591211,11.934,0
0.7965,-0.000189334,11.9475,0,0.7965,-0.0001957122,11.9475,0
0.7974,-6.881819E-05,11.961,0,0.7974,-0.0002161898,11.961,0
0.7983,2.752728E-05,11.9745,0,0.7983,-3.155566E-05,11.9745,0
0.7992,-3.692683E-06,11.988,0,0.7992,0.0002957504,11.988,0
0.8001,-7.083238E-05,12.0015,0,0.8001,0.0004202945,12.0015,0
0.801,-8.291753E-05,12.015,0,0.801,0.0001997406,12.015,0
0.8019,-2.28275E-05,12.0285,0,0.8019,-1.141375E-05,12.0285,0
0.8028,-3.558404E-05,12.042,0,0.8028,1.947051E-05,12.042,0
0.8037,-1.443504E-05,12.0555,0,0.8037,8.96315E-05,12.0555,0
0.8046,2.719158E-05,12.069,0,0.8046,0.0001349508,12.069,0
0.8055,-7.721065E-05,12.0825,0,0.8055,0.0001715419,12.0825,0
0.8064,-3.524834E-05,12.096,0,0.8064,2.517739E-05,12.096,0
0.8073,0.0001326009,12.1095,0,0.8073,-3.793393E-05,12.1095,0
0.8082,9.634547E-05,12.123,0,0.8082,4.36408E-05,12.123,0
0.8091,-4.39765E-05,12.1365,0,0.8091,8.224613E-05,12.1365,0
0.81,-5.673304E-05,12.15,0,0.81,7.620356E-05,12.15,0
0.8109,-0.000115816,12.1635,0,0.8109,0.0001050736,12.1635,0
0.8118,-0.0001064164,12.177,0,0.8118,-2.987716E-05,12.177,0
0.8127,-0.0001208515,12.1905,0,0.8127,-5.673304E-05,12.1905,0
0.8136,-0.0002299535,12.204,0,0.8136,-8.69459E-05,12.204,0
0.8145,-5.404745E-05,12.2175,0,0.8145,-0.0002272679,12.2175,0
0.8154,0.0002880293,12.231,0,0.8154,-0.0004276799,12.231,0
0.8163,0.0002507668,12.2445,0,0.8163,-0.0004014954,12.2445,0
0.8172,0.0003474479,12.258,0,0.8172,-0.0002769512,12.258,0
0.8181,0.0004035096,12.2715,0,0.8181,-6.210422E-05,12.2715,0
0.819,0.0001097734,12.285,0,0.819,0.0001070878,12.285,0
0.8199,6.344701E-05,12.2985,0,0.8199,0.0001514,12.2985,0
0.8208,0.0001607996,12.312,0,0.8208,0.0002171969,12.312,0
0.8217,0.000148043,12.3255,0,0.8217,0.0003125353,12.3255,0
0.8226,-7.016098E-05,12.339,0,0.8226,0.0003461051,12.339,0
0.8235,-6.210422E-05,12.3525,0,0.8235,0.0001953765,12.3525,0
0.8244,-4.129091E-05,12.366,0,0.8244,0.0001443503,12.366,0
0.8253,-8.258183E-05,12.3795,0,0.8253,0.0001926909,12.3795,0
0.8262,-0.0001178302,12.393,0,0.8262,0.0001550927,12.393,0
0.8271,-0.0002447242,12.4065,0,0.8271,5.337606E-05,12.4065,0
0.828,-0.0001883268,12.42,0,0.828,-1.342794E-06,12.42,0
0.8289,-0.0001164874,12.4335,0,0.8289,-6.243992E-05,12.4335,0
0.8298,-0.0001550927,12.447,0,0.8298,-7.418937E-05,12.447,0
0.8307,-0.0001272297,12.4605,0,0.8307,-0.0001534142,12.4605,0
0.8316,-1.242084E-05,12.474,0,0.8316,-0.0002944076,12.474,0
0.8325,4.800488E-05,12.4875,0,0.8325,-0.0002051118,12.4875,0
0.8334,0.0001359579,12.501,0,0.8334,-0.000190341,12.501,0
0.8343,4.699779E-05,12.5145,0,0.8343,-0.0002480812,12.5145,0
0.8352,3.927672E-05,12.528,0,0.8352,-0.0001879911,12.528,0
0.8361,-5.337606E-05,12.5415,0,0.8361,-0.0001285725,12.5415,0
0.837,-1.376364E-05,12.555,0,0.837,-0.0001507286,12.555,0
0.8379,9.433127E-05,12.5685,0,0.8379,-0.0001275654,12.5685,0
0.8388,0.0001285725,12.582,0,0.8388,-0.0001577783,12.582,0
0.8397,4.53193E-05,12.5955,0,0.8397,-0.000270573,12.5955,0
0.8406,2.349889E-06,12.609,0,0.8406,-0.0003226062,12.609,0
0.8415,0.000123537,12.6225,0,0.8415,-0.0002564736,12.6225,0
0.8424,9.835965E-05,12.636,0,0.8424,-0.0002171969,12.636,0
0.8433,-6.042573E-05,12.6495,0,0.8433,6.311131E-05,12.6495,0
0.8442,3.457694E-05,12.663,0,0.8442,0.0002769512,12.663,0
0.8451,0.0001366293,12.6765,0,0.8451,0.0003068284,12.6765,0
0.846,7.351797E-05,12.69,0,0.846,0.0004206302,12.69,0
0.8469,0.0001144732,12.7035,0,0.8469,0.0002729229,12.7035,0
0.8478,0.0001044022,12.717,0,0.8478,7.754635E-05,12.717,0
0.8487,2.517739E-05,12.7305,0,0.8487,9.500267E-05,12.7305,0
0.8496,-5.807584E-05,12.744,0,0.8496,7.351797E-05,12.744,0
0.8505,-1.040665E-05,12.7575,0,0.8505,-2.685588E-06,12.7575,0
0.8514,3.155566E-05,12.771,0,0.8514,5.371176E-06,12.771,0
0.8523,0.0002514381,12.7845,0,0.8523,8.291753E-05,12.7845,0
0.8532,0.0003017929,12.798,0,0.8532,0.000119173,12.798,0
0.8541,0.0001225299,12.8115,0,0.8541,-6.176852E-05,12.8115,0
0.855,7.083238E-05,12.825,0,0.855,-0.0001681849,12.825,0
0.8559,9.903105E-05,12.8385,0,0.8559,-0.0003064927,12.8385,0
0.8568,-8.392462E-05,12.852,0,0.8568,-0.000340734,12.852,0
0.8577,-0.0001205158,12.8655,0,0.8577,-0.0004481575,12.8655,0
0.8586,-3.927672E-05,12.879,0,0.8586,-0.0005119402,12.879,0
0.8595001,-0.0001896696,12.8925,0,0.8595001,-0.0002124971,12.8925,0
0.8604,-0.0002057832,12.906,0,0.8604,6.64683E-05,12.906,0
0.8613,0.0001044022,12.9195,0,0.8613,0.0003904173,12.9195,0
0.8622,0.0002621805,12.933,0,0.8622,0.0005730373,12.933,0
0.8631,0.000164828,12.9465,0,0.8631,0.0003998169,12.9465,0
0.864,4.46479E-05,12.96,0,0.864,0.0004072023,12.96,0
0.8649,0.0001312581,12.9735,0,0.8649,0.0004978409,12.9735,0
0.8658,0.0001386435,12.987,0,0.8658,0.0004206302,12.987,0
0.8667,6.009003E-05,13.0005,0,0.8667,0.0003434196,13.0005,0
0.8676,-4.162661E-05,13.014,0,0.8676,0.0001802701,13.014,0
0.8685,-2.047761E-05,13.0275,0,0.8685,-4.196231E-05,13.0275,0
0.8694,8.89601E-05,13.041,0,0.8694,-0.000109102,13.041,0
0.8703,4.162661E-05,13.0545,0,0.8703,-6.042573E-05,13.0545,0
0.8712,-3.390555E-05,13.068,0,0.8712,-0.0001221943,13.068,0
0.8721,8.392462E-05,13.0815,0,0.8721,-0.0001185016,13.0815,0
0.873,-1.309224E-05,13.095,0,0.873,-1.174945E-05,13.095,0
0.8739,-7.888914E-05,13.1085,0,0.8739,-2.349889E-05,13.1085,0
0.8748,-4.699779E-06,13.122,0,0.8748,-7.217517E-05,13.122,0
0.8757,2.349889E-06,13.1355,0,0.8757,-0.000105745,13.1355,0
0.8766,-3.994812E-05,13.149,0,0.8766,-0.0002145113,13.149,0
0.8775,-3.591974E-05,13.1625,0,0.8775,-0.0003283131,13.1625,0
0.8784,-7.385367E-05,13.176,0,0.8784,-0.0004800488,13.176,0
0.8793,2.450599E-05,13.1895,0,0.8793,-0.0006408484,13.1895,0
0.8802,7.721065E-06,13.203,0,0.8802,-0.0005871367,13.203,0
0.8811,-3.021286E-06,13.2165,0,0.8811,-0.0005888151,13.2165,0
0.882,0.000112459,13.23,0,0.882,-0.0003978027,13.23,0
0.8829,6.51255E-05,13.2435,0,0.8829,-0.000126894,13.2435,0
0.8838,-0.0001107805,13.257,0,0.8838,0.0001205158,13.257,0
0.8847,-8.291753E-05,13.2705,0,0.8847,0.0003125353,13.2705,0
0.8856,-2.21561E-05,13.284,0,0.8856,0.0003595331,13.284,0
0.8865,-0.0001319295,13.2975,0,0.8865,0.000506569,13.2975,0
0.8874,-0.0001013809,13.311,0,0.8874,0.0004756848,13.311,0
0.8883,-4.095522E-05,13.3245,0,0.8883,0.0001668421,13.3245,0
0.8892,1.443504E-05,13.338,0,0.8892,4.229801E-05,13.338,0
0.8901,1.846342E-05,13.3515,0,0.8901,6.478981E-05,13.3515,0
0.891,5.539025E-05,13.365,0,0.891,3.457694E-05,13.365,0
0.8919,-9.298848E-05,13.3785,0,0.8919,-2.584878E-05,13.3785,0
0.8928,-5.539025E-05,13.392,0,0.8928,-8.72816E-05,13.392,0
0.8937,1.913481E-05,13.4055,0,0.8937,-0.0001322652,13.4055,0
0.8946,-8.157473E-05,13.419,0,0.8946,-0.0001926909,13.419,0
0.8955,-0.0001077592,13.4325,0,0.8955,-0.0002967575,13.4325,0
0.8964,-6.54612E-05,13.446,0,0.8964,-0.0003111925,13.446,0
0.8973,-0.0001748989,13.4595,0,0.8973,-0.000221561,13.4595,0
0.8982,-0.0002346532,13.473,0,0.8982,-0.0002208896,13.473,0
0.8991,-5.673304E-05,13.4865,0,0.8991,-0.0001809415,13.4865,0
0.9,-9.802396E-05,13.5,0,0.9,1.678492E-06,13.5,0
0.9009,2.652018E-05,13.5135,0,0.9009,7.385367E-05,13.5135,0
0.9018,0.0001487144,13.527,0,0.9018,0.000161471,13.527,0
0.9027,8.82887E-05,13.5405,0,0.9027,0.0002437171,13.5405,0
0.9036,-9.164568E-05,13.554,0,0.9036,0.0001967193,13.554,0
0.9045,-0.0001413291,13.5675,0,0.9045,0.0001567712,13.5675,0
0.9054,-0.0001265583,13.581,0,0.9054,7.486076E-05,13.581,0
0.9063,-6.411841E-05,13.5945,0,0.9063,2.349889E-05,13.5945,0
0.9072,-0.0001242084,13.608,0,0.9072,1.980621E-05,13.608,0
0.9081,-0.0002225681,13.6215,0,0.9081,3.256275E-05,13.6215,0
0.909,-0.0002346532,13.635,0,0.909,-1.678492E-06,13.635,0
0.9099,-0.0001977264,13.6485,0,0.9099,-1.712062E-05,13.6485,0
0.9108,-0.0001886625,13.662,0,0.9108,-6.713969E-07,13.662,0
0.9117,-0.0001440146,13.6755,0,0.9117,-5.270466E-05,13.6755,0
0.9126,-4.699779E-06,13.689,0,0.9126,-0.000126894,13.689,0
0.9135,5.035477E-06,13.7025,0,0.9135,3.054856E-05,13.7025,0
0.9144,0.0001282368,13.716,0,0.9144,0.0001366293,13.716,0
0.9153,0.0003091783,13.7295,0,0.9153,-1.712062E-05,13.7295,0
0.9162,0.0002118257,13.743,0,0.9162,-4.666209E-05,13.743,0
0.9171,4.33051E-05,13.7565,0,0.9171,-5.035477E-05,13.7565,0
0.918,-1.007095E-06,13.77,0,0.918,-0.0001047379,13.77,0
0.9189,5.706874E-06,13.7835,0,0.9189,-0.0001265583,13.7835,0
0.9198,8.325322E-05,13.797,0,0.9198,-0.0002212253,13.797,0
0.9207,-2.584878E-05,13.8105,0,0.9207,-0.0002205539,13.8105,0
0.9216,-8.627451E-05,13.824,0,0.9216,-0.0001379721,13.824,0
0.9225,-1.443504E-05,13.8375,0,0.9225,-0.000154757,13.8375,0
0.9234,-5.606165E-05,13.851,0,0.9234,-0.0002564736,13.851,0
0.9243,-0.0002296178,13.8645,0,0.9243,-0.0002161898,13.8645,0
0.9252,-0.0002366674,13.878,0,0.9252,-0.0001795987,13.878,0
0.9261,-9.500267E-05,13.8915,0,0.9261,-0.0002487526,13.8915,0
0.927,-0.0002789654,13.905,0,0.927,-0.0002447242,13.905,0
0.9279,-0.0002534524,13.9185,0,0.9279,2.383459E-05,13.9185,0
0.9288,2.383459E-05,13.932,0,0.9288,0.0001876554,13.932,0
0.9297,6.881819E-05,13.9455,0,0.9297,0.0001433432,13.9455,0
0.9306,-3.054856E-05,13.959,0,0.9306,0.0001782559,13.959,0
0.9315,4.934768E-05,13.9725,0,0.9315,0.0003702754,13.9725,0
0.9324,5.069047E-05,13.986,0,0.9324,0.0005716945,13.986,0
0.9333,3.726253E-05,13.9995,0,0.9333,0.0005515526,13.9995,0
0.9342,7.418937E-05,14.013,0,0.9342,0.0003743038,14.013,0
0.9351,7.721065E-05,14.0265,0,0.9351,0.0002608377,14.0265,0
0.936,7.150377E-05,14.04,0,0.936,0.0001990692,14.04,0
0.9369,0.0001255512,14.0535,0,0.9369,6.881819E-05,14.0535,0
0.9378,0.0001285725,14.067,0,0.9378,8.291753E-05,14.067,0
0.9387,0.0001040665,14.0805,0,0.9387,1.107805E-05,14.0805,0
0.9396001,0.0001839628,14.094,0,0.9396001,-5.606165E-05,14.094,0
0.9405,7.754635E-05,14.1075,0,0.9405,5.639734E-05,14.1075,0
0.9414001,4.666209E-05,14.121,0,0.9414001,4.968337E-05,14.121,0
0.9423,1.577783E-05,14.1345,0,0.9423,-0.0001168231,14.1345,0
0.9432001,-9.735256E-05,14.148,0,0.9432001,-0.0002641947,14.148,0
0.9441,-5.371176E-05,14.1615,0,0.9441,-0.0004088808,14.1615,0
0.9450001,0.0001232013,14.175,0,0.9450001,-0.0004622568,14.175,0
0.9459,7.486076E-05,14.1885,0,0.9459,-0.00042533,14.1885,0
0.9468,2.316319E-05,14.202,0,0.9468,-0.0003424124,14.202,0
0.9477,7.016098E-05,14.2155,0,0.9477,-3.054856E-05,14.2155,0
0.9486,0.0001386435,14.229,0,0.9486,0.0002836652,14.229,0
0.9495,0.0002608377,14.2425,0,0.9495,0.0002860151,14.2425,0
0.9504,0.0002064546,14.256,0,0.9504,5.874724E-05,14.256,0
0.9513,-4.061952E-05,14.2695,0,0.9513,-1.376364E-05,14.2695,0
0.9522,-2.450599E-05,14.283,0,0.9522,-7.318227E-05,14.283,0
0.9531,-1.678492E-06,14.2965,0,0.9531,-0.0001832914,14.2965,0
0.954,-0.0001500572,14.31,0,0.954,-8.358892E-05,14.31,0
0.9549,-5.304036E-05,14.3235,0,0.9549,-0.0001450217,14.3235,0
0.9558,-1.577783E-05,14.337,0,0.9558,-0.0002554666,14.337,0
0.9567,-0.0001497215,14.3505,0,0.9567,-0.0001389792,14.3505,0
0.9576,-0.0001728847,14.364,0,0.9576,-4.766919E-05,14.364,0
0.9585,-0.0001252155,14.3775,0,0.9585,-8.86244E-05,14.3775,0
0.9594,-5.975433E-05,14.391,0,0.9594,-7.016098E-05,14.391,0
0.9603,5.337606E-05,14.4045,0,0.9603,-0.0001003738,14.4045,0
0.9612,5.606165E-05,14.418,0,0.9612,-0.0001252155,14.418,0
0.9621,-0.0001443503,14.4315,0,0.9621,-0.0001816129,14.4315,0
0.963,-8.72816E-05,14.445,0,0.963,-0.0002430457,14.445,0
0.9639,8.493171E-05,14.4585,0,0.9639,-0.0002756084,14.4585,0
0.9648,-9.332418E-05,14.472,0,0.9648,-0.0001282368,14.472,0
0.9657,-1.107805E-05,14.4855,0,0.9657,6.982528E-05,14.4855,0
0.9666,0.000126894,14.499,0,0.9666,0.0001487144,14.499,0
0.9675,-0.0001084306,14.5125,0,0.9675,0.0003410697,14.5125,0
0.9684,-0.0001258869,14.526,0,0.9684,0.0002934005,14.526,0
0.9693,5.035477E-06,14.5395,0,0.9693,0.0001399863,14.5395,0
0.9702,-8.090334E-05,14.553,0,0.9702,0.0001044022,14.553,0
0.9711,-0.0001685206,14.5665,0,0.9711,0.0001356222,14.5665,0
0.972,-0.0001185016,14.58,0,0.972,0.0001221943,14.58,0
0.9729,1.644922E-05,14.5935,0,0.9729,0.0001211871,14.5935,0
0.9738,2.349889E-05,14.607,0,0.9738,0.0001329366,14.607,0
0.9747,-6.881819E-05,14.6205,0,0.9747,0.0001383078,14.6205,0
0.9756,-0.0002020905,14.634,0,0.9756,7.251087E-05,14.634,0
0.9765,-0.0001876554,14.6475,0,0.9765,-1.712062E-05,14.6475,0
0.9774,-0.0001292439,14.661,0,0.9774,-5.270466E-05,14.661,0
0.9783,-0.0001668421,14.6745,0,0.9783,-6.076142E-05,14.6745,0
0.9792,-0.0001134661,14.688,0,0.9792,-5.539025E-05,14.688,0
0.9801,3.860533E-05,14.7015,0,0.9801,-9.634547E-05,14.7015,0
0.981,-3.189136E-05,14.715,0,0.981,-9.835965E-05,14.715,0
0.9819,-6.948959E-05,14.7285,0,0.9819,-0.0001094377,14.7285,0
0.9828,0.0001050736,14.742,0,0.9828,-0.0001366293,14.742,0
0.9837,1.141375E-05,14.7555,0,0.9837,-0.0001094377,14.7555,0
0.9846,-6.51255E-05,14.769,0,0.9846,-5.035477E-05,14.769,0
0.9855,-3.088426E-05,14.7825,0,0.9855,-9.298848E-05,14.7825,0
0.9864,3.659113E-05,14.796,0,0.9864,-5.673304E-05,14.796,0
0.9873,0.0002198825,14.8095,0,0.9873,-6.076142E-05,14.8095,0
0.9882,0.0002521096,14.823,0,0.9882,-2.047761E-05,14.823,0
0.9891,0.0001131304,14.8365,0,0.9891,-3.558404E-05,14.8365,0
0.99,0.0001198444,14.85,0,0.99,-0.0001299153,14.85,0
0.9909,0.0001111162,14.8635,0,0.9909,-0.0001473716,14.8635,0
0.9918,7.956054E-05,14.877,0,0.9918,-0.0001017166,14.877,0
0.9927,0.000140322,14.8905,0,0.9927,-0.0001044022,14.8905,0
0.9936,0.0001681849,14.904,0,0.9936,-0.0002074617,14.904,0
0.9945,5.941863E-05,14.9175,0,0.9945,-0.0001138018,14.9175,0
0.9954,0.0001279011,14.931,0,0.9954,6.78111E-05,14.931,0
0.9963,0.0002417029,14.9445,0,0.9963,-7.385367E-06,14.9445,0
0.9972,0.0001926909,14.958,0,0.9972,-2.1149E-05,14.958,0
0.9981,0.0001540856,14.9715,0,0.9981,0.0001846342,14.9715,0
0.999,0.0001386435,14.985,0,0.999,0.0003843748,14.985,0
0.9999,4.53193E-05,14.9985,0,0.9999,0.0002108186,14.9985,0
1.0008,0.0001070878,15.012,0,1.0008,4.229801E-05,15.012,0
1.0017,6.411841E-05,15.0255,0,1.0017,0.0001728847,15.0255,0
1.0026,-0.0002615091,15.039,0,1.0026,0.0002171969,15.039,0
1.0035,-0.0002299535,15.0525,0,1.0035,0.000112459,15.0525,0
1.0044,-0.000115816,15.066,0,1.0044,-5.337606E-05,15.066,0
1.0053,-0.0002265965,15.0795,0,1.0053,-0.0001225299,15.0795,0
1.0062,-0.0001097734,15.093,0,1.0062,-0.0002722515,15.093,0
1.0071,0.0001483787,15.1065,0,1.0071,-0.0004246586,15.1065,0
1.008,0.0002789654,15.12,0,1.008,-0.0004931411,15.12,0
1.0089,0.0001440146,15.1335,0,1.0089,-0.0004696422,15.1335,0
1.0098,0.0001131304,15.147,0,1.0098,-0.0002467384,15.147,0
1.0107,0.0001789273,15.1605,0,1.0107,4.263371E-05,15.1605,0
1.0116,5.471885E-05,15.174,0,1.0116,0.0002937362,15.174,0
1.0125,0.0001554284,15.1875,0,1.0125,0.0004568856,15.1875,0
1.0134,0.0002776226,15.201,0,1.0134,0.0004058595,15.201,0
1.0143,0.0001574426,15.2145,0,1.0143,0.000249424,15.2145,0
1.0152,3.860533E-05,15.228,0,1.0152,0.0002326391,15.228,0
1.0161,-7.183947E-05,15.2415,0,1.0161,0.0002923934,15.2415,0
1.017,-0.0001238727,15.255,0,1.017,8.426032E-05,15.255,0
1.0179,-0.0001134661,15.2685,0,1.0179,-6.74754E-05,15.2685,0
1.0188,-0.0002272679,15.282,0,1.0188,3.726253E-05,15.282,0
1.0197,-0.0001836271,15.2955,0,1.0197,3.927672E-05,15.2955,0
1.0206,-0.0001154803,15.309,0,1.0206,-0.0001487144,15.309,0
1.0215,-0.0002047761,15.3225,0,1.0215,-9.701686E-05,15.3225,0
1.0224,-0.0002030976,15.336,0,1.0224,-9.802396E-05,15.336,0
1.0233,-0.0001836271,15.3495,0,1.0233,-0.0002128328,15.3495,0
1.0242,-0.0001030594,15.363,0,1.0242,-0.0002077974,15.363,0
1.0251,-0.0001406577,15.3765,0,1.0251,-0.0001188373,15.3765,0
1.026,-0.0001493858,15.39,0,1.026,-0.0001416648,15.39,0
1.0269,-1.443504E-05,15.4035,0,1.0269,-0.0001409934,15.4035,0
1.0278,0.0001138018,15.417,0,1.0278,-0.000119173,15.417,0
1.0287,2.853437E-05,15.4305,0,1.0287,-6.54612E-05,15.4305,0
1.0296,-7.049668E-05,15.444,0,1.0296,-9.433127E-05,15.444,0
1.0305,-2.752728E-05,15.4575,0,1.0305,-0.0001762417,15.4575,0
1.0314,-4.766919E-05,15.471,0,1.0314,-4.632639E-05,15.471,0
1.0323,-0.0002353246,15.4845,0,1.0323,-1.007095E-06,15.4845,0
1.0332,-0.0002823224,15.498,0,1.0332,-3.390555E-05,15.498,0
1.0341,-0.0001990692,15.5115,0,1.0341,-0.0001037308,15.5115,0
1.035,-0.0002564736,15.525,0,1.035,-8.526741E-05,15.525,0
1.0359,-4.49836E-05,15.5385,0,1.0359,-9.097429E-05,15.5385,0
1.0368,0.0002762798,15.552,0,1.0368,-0.0001571069,15.552,0
1.0377,0.0004414435,15.5655,0,1.0377,-6.74754E-05,15.5655,0
1.0386,0.0002453956,15.579,0,1.0386,-4.666209E-05,15.579,0
1.0395,0.0001060807,15.5925,0,1.0395,-8.761731E-05,15.5925,0
1.0404,-2.652018E-05,15.606,0,1.0404,-5.001907E-05,15.606,0
1.0413,-6.814679E-05,15.6195,0,1.0413,-4.061952E-05,15.6195,0
1.0422,-2.383459E-05,15.633,0,1.0422,0.0001030594,15.633,0
1.0431,-0.0002044404,15.6465,0,1.0431,-3.155566E-05,15.6465,0
1.044,-0.0001728847,15.66,0,1.044,-0.0001853056,15.66,0
1.0449,-4.196231E-05,15.6735,0,1.0449,-1.007095E-05,15.6735,0
1.0458,-6.076142E-05,15.687,0,1.0458,0.0001440146,15.687,0
1.0467,-0.0001413291,15.7005,0,1.0467,6.243992E-05,15.7005,0
1.0476,1.443504E-05,15.714,0,1.0476,-2.786297E-05,15.714,0
1.0485,7.721065E-06,15.7275,0,1.0485,5.438316E-05,15.7275,0
1.0494,8.392462E-06,15.741,0,1.0494,0.0001121233,15.741,0
1.0503,6.076142E-05,15.7545,0,1.0503,0.0001631495,15.7545,0
1.0512,-1.678492E-05,15.768,0,1.0512,0.0001883268,15.768,0
1.0521,-5.539025E-05,15.7815,0,1.0521,0.000164828,15.7815,0
1.053,-4.36408E-06,15.795,0,1.053,9.835965E-05,15.795,0
1.0539,6.6804E-05,15.8085,0,1.0539,8.358892E-05,15.8085,0
1.0548,0.0001037308,15.822,0,1.0548,5.404745E-05,15.822,0
1.0557,0.0001346151,15.8355,0,1.0557,0.0001178302,15.8355,0
1.0566,0.0001232013,15.849,0,1.0566,7.351797E-05,15.849,0
1.0575,0.000197055,15.8625,0,1.0575,7.721065E-06,15.8625,0
1.0584,0.0001497215,15.876,0,1.0584,3.424125E-05,15.876,0
1.0593,-4.934768E-05,15.8895,0,1.0593,2.081331E-05,15.8895,0
1.0602,-4.632639E-05,15.903,0,1.0602,-6.478981E-05,15.903,0
1.0611,5.941863E-05,15.9165,0,1.0611,-0.000102388,15.9165,0
1.062,-3.323415E-05,15.93,0,1.062,9.835965E-05,15.93,0
1.0629,-7.855344E-05,15.9435,0,1.0629,0.0001806058,15.9435,0
1.0638,-2.316319E-05,15.957,0,1.0638,7.150377E-05,15.957,0
1.0647,2.853437E-05,15.9705,0,1.0647,0.000112459,15.9705,0
1.0656,-7.687495E-05,15.984,0,1.0656,0.0002413672,15.984,0
1.0665,-0.0001668421,15.9975,0,1.0665,0.0001916838,15.9975,0
1.0674,-0.0002091402,16.011,0,1.0674,5.136187E-05,16.011,0
1.0683,-0.0001436789,16.0245,0,1.0683,-8.89601E-05,16.0245,0
1.0692,-0.0001594568,16.038,0,1.0692,-9.030289E-05,16.038,0
1.0701,-0.000246067,16.0515,0,1.0701,-0.0001020523,16.0515,0
1.071,-0.0001665064,16.065,0,1.071,-0.0001560998,16.065,0
1.0719,4.196231E-05,16.0785,0,1.0719,-0.0001866484,16.0785,0
1.0728,9.399557E-05,16.092,0,1.0728,-0.0001980621,16.092,0
1.0737,0.0001735561,16.1055,0,1.0737,-0.0002030976,16.1055,0
1.0746,0.0002413672,16.119,0,1.0746,-0.0002218967,16.119,0
1.0755,9.365987E-05,16.1325,0,1.0755,5.203327E-05,16.1325,0
1.0764,6.311131E-05,16.146,0,1.0764,0.0001178302,16.146,0
1.0773,6.54612E-05,16.1595,0,1.0773,-8.392462E-05,16.1595,0
1.0782,-2.383459E-05,16.173,0,1.0782,-0.0001470359,16.173,0
1.0791,-0.0001453574,16.1865,0,1.0791,-0.0001238727,16.1865,0
1.08,-0.0001225299,16.2,0,1.08,-0.0001339437,16.2,0
1.0809,-3.994812E-05,16.2135,0,1.0809,-0.0001127947,16.2135,0
1.0818,-1.007095E-05,16.227,0,1.0818,-7.821774E-05,16.227,0
1.0827,4.666209E-05,16.2405,0,1.0827,-1.376364E-05,16.2405,0
1.0836,4.46479E-05,16.254,0,1.0836,-7.116808E-05,16.254,0
1.0845,2.349889E-06,16.2675,0,1.0845,-0.0001181659,16.2675,0
1.0854,2.887007E-05,16.281,0,1.0854,-0.0001675135,16.281,0
1.0863,-0.0001077592,16.2945,0,1.0863,-0.0001178302,16.2945,0
1.0872,-8.157473E-05,16.308,0,1.0872,-9.365987E-05,16.308,0
1.0881,9.970245E-05,16.3215,0,1.0881,-0.0001232013,16.3215,0
1.089,2.1149E-05,16.335,0,1.089,1.040665E-05,16.335,0
1.0899,-0.0002017548,16.3485,0,1.0899,-5.941863E-05,16.3485,0
1.0908,-0.0001205158,16.362,0,1.0908,-8.023193E-05,16.362,0
1.0917,-6.378271E-06,16.3755,0,1.0917,-1.779202E-05,16.3755,0
1.0926,-2.21561E-05,16.389,0,1.0926,7.351797E-05,16.389,0
1.0935,9.198138E-05,16.4025,0,1.0935,0.0001054093,16.4025,0
1.0944,8.358892E-05,16.416,0,1.0944,8.661021E-05,16.416,0
1.0953,8.82887E-05,16.4295,0,1.0953,-1.812772E-05,16.4295,0
1.0962,6.411841E-05,16.443,0,1.0962,-1.644922E-05,16.443,0
1.0971,-2.484169E-05,16.4565,0,1.0971,-1.779202E-05,16.4565,0
1.098,4.968337E-05,16.47,0,1.098,-8.82887E-05,16.47,0
1.0989,9.097429E-05,16.4835,0,1.0989,-4.800488E-05,16.4835,0
1.0998,-9.735256E-06,16.497,0,1.0998,-0.0001399863,16.497,0
1.1007,-5.706874E-06,16.5105,0,1.1007,-0.0003138781,16.5105,0
1.1016,9.735256E-06,16.524,0,1.1016,-0.0002621805,16.524,0
1.1025,-0.0001050736,16.5375,0,1.1025,3.692683E-06,16.5375,0
1.1034,-5.572595E-05,16.551,0,1.1034,1.040665E-05,16.551,0
1.1043,-5.606165E-05,16.5645,0,1.1043,-8.493171E-05,16.5645,0
1.1052,-9.097429E-05,16.578,0,1.1052,3.390555E-05,16.578,0
1.1061,-0.0001064164,16.5915,0,1.1061,0.0002682231,16.5915,0
1.107,-2.551309E-05,16.605,0,1.107,0.0004448005,16.605,0
1.1079,4.46479E-05,16.6185,0,1.1079,0.0005602808,16.6185,0
1.1088,2.853437E-05,16.632,0,1.1088,0.0003602045,16.632,0
1.1097,-4.699779E-05,16.6455,0,1.1097,0.0002178683,16.6455,0
1.1106,-7.049668E-05,16.659,0,1.1106,6.210422E-05,16.659,0
1.1115,-3.054856E-05,16.6725,0,1.1115,9.735256E-06,16.6725,0
1.1124,0.0001362936,16.686,0,1.1124,-2.1149E-05,16.686,0
1.1133,0.0001393149,16.6995,0,1.1133,6.64683E-05,16.6995,0
1.1142,0.0003320058,16.713,0,1.1142,-5.941863E-05,16.713,0
1.1151,0.0005549096,16.7265,0,1.1151,-0.000148043,16.7265,0
1.116,0.000295079,16.74,0,1.116,-0.0001087663,16.74,0
1.1169,3.961242E-05,16.7535,0,1.1169,-0.0001168231,16.7535,0
1.1178,0.0001326009,16.767,0,1.1178,-0.0001154803,16.767,0
1.1187,6.61326E-05,16.7805,0,1.1187,-0.0001285725,16.7805,0
1.1196,-0.0001198444,16.794,0,1.1196,-5.505455E-05,16.794,0
1.1205,-8.090334E-05,16.8075,0,1.1205,-7.452507E-05,16.8075,0
1.1214,-5.740444E-05,16.821,0,1.1214,-4.33051E-05,16.821,0
1.1223,-1.107805E-05,16.8345,0,1.1223,-4.666209E-05,16.8345,0
1.1232,9.063859E-06,16.848,0,1.1232,-3.591974E-05,16.848,0
1.1241,-0.0001252155,16.8615,0,1.1241,-3.860533E-05,16.8615,0
1.125,-6.009003E-05,16.875,0,1.125,-7.385367E-05,16.875,0
1.1259,0.0001493858,16.8885,0,1.1259,-4.934768E-05,16.8885,0
1.1268,7.183947E-05,16.902,0,1.1268,5.740444E-05,16.902,0
1.1277,-5.740444E-05,16.9155,0,1.1277,5.807584E-05,16.9155,0
1.1286,-8.761731E-05,16.929,0,1.1286,-6.948959E-05,16.929,0
1.1295,-0.0001215228,16.9425,0,1.1295,-3.390555E-05,16.9425,0
1.1304,-0.0001379721,16.956,0,1.1304,4.36408E-06,16.956,0
1.1313,-0.000197055,16.9695,0,1.1313,-3.323415E-05,16.9695,0
1.1322,-0.0002302892,16.983,0,1.1322,7.049668E-05,16.983,0
1.1331,-7.452507E-05,16.9965,0,1.1331,9.365987E-05,16.9965,0
1.134,8.392462E-06,17.01,0,1.134,-1.309224E-05,17.01,0
1.1349,0.0001305867,17.0235,0,1.1349,-6.74754E-05,17.0235,0
1.1358,0.0002276036,17.037,0,1.1358,-0.0001634852,17.037,0
1.1367,-1.779202E-05,17.0505,0,1.1367,-0.0001436789,17.0505,0
1.1376,-8.224613E-05,17.064,0,1.1376,-0.0001030594,17.064,0
1.1385,-4.162661E-05,17.0775,0,1.1385,-0.0001027237,17.0775,0
1.1394,-5.438316E-05,17.091,0,1.1394,-0.0001386435,17.091,0
1.1403,-0.0001406577,17.1045,0,1.1403,-0.0001094377,17.1045,0
1.1412,-4.901198E-05,17.118,0,1.1412,-9.970245E-05,17.118,0
1.1421,4.129091E-05,17.1315,0,1.1421,-0.0001550927,17.1315,0
1.143,-0.0001795987,17.145,0,1.143,-0.0001275654,17.145,0
1.1439,-0.0002722515,17.1585,0,1.1439,-4.33051E-05,17.1585,0
1.1448,-0.0002306248,17.172,0,1.1448,-3.424125E-05,17.172,0
1.1457,-0.0004166018,17.1855,0,1.1457,-1.309224E-05,17.1855,0
1.1466,-0.0004155947,17.199,0,1.1466,7.049668E-06,17.199,0
1.1475,-0.0002383459,17.2125,0,1.1475,-1.107805E-05,17.2125,0
1.1484,-3.121996E-05,17.226,0,1.1484,7.049668E-06,17.226,0
1.1493,9.433127E-05,17.2395,0,1.1493,-1.544213E-05,17.2395,0
1.1502,4.263371E-05,17.253,0,1.1502,-4.666209E-05,17.253,0
1.1511,-3.256275E-05,17.2665,0,1.1511,-7.150377E-05,17.2665,0
1.152,-8.72816E-05,17.28,0,1.152,-2.14847E-05,17.28,0
1.1529,-7.754635E-05,17.2935,0,1.1529,2.1149E-05,17.2935,0
1.1538,-0.0001960479,17.307,0,1.1538,3.323415E-05,17.307,0
1.1547,-0.0001211871,17.3205,0,1.1547,2.383459E-05,17.3205,0
1.1556,9.063859E-05,17.334,0,1.1556,-5.941863E-05,17.334,0
1.1565,5.102617E-05,17.3475,0,1.1565,3.356985E-06,17.3475,0
1.1574,8.157473E-05,17.361,0,1.1574,-3.860533E-05,17.361,0
1.1583,0.0002084688,17.3745,0,1.1583,-0.0001319295,17.3745,0
1.1592,6.881819E-05,17.388,0,1.1592,-6.478981E-05,17.388,0
1.1601,1.443504E-05,17.4015,0,1.1601,-0.0001339437,17.4015,0
1.161,6.848249E-05,17.415,0,1.161,-0.0001782559,17.415,0
1.1619,8.426032E-05,17.4285,0,1.1619,-0.0001195087,17.4285,0
1.1628,0.0001067521,17.442,0,1.1628,6.378271E-06,17.442,0
1.1637,4.263371E-05,17.4555,0,1.1637,1.443504E-05,17.4555,0
1.1646,3.927672E-05,17.469,0,1.1646,-8.627451E-05,17.469,0
1.1655,-1.779202E-05,17.4825,0,1.1655,-9.198138E-05,17.4825,0
1.1664,-7.721065E-06,17.496,0,1.1664,-4.699779E-05,17.496,0
1.1673,-6.378271E-06,17.5095,0,1.1673,0.0001695277,17.5095,0
1.1682,-2.081331E-05,17.523,0,1.1682,0.0001863127,17.523,0
1.1691,-3.659113E-05,17.5365,0,1.1691,8.023193E-05,17.5365,0
1.17,-8.426032E-05,17.55,0,1.17,-1.409934E-05,17.55,0
1.1709,-5.136187E-05,17.5635,0,1.1709,-5.572595E-05,17.5635,0
1.1718,7.721065E-06,17.577,0,1.1718,-5.975433E-05,17.577,0
1.1727,1.141375E-05,17.5905,0,1.1727,1.577783E-05,17.5905,0
1.1736,-3.692683E-06,17.604,0,1.1736,0.000197055,17.604,0
1.1745,6.411841E-05,17.6175,0,1.1745,0.0002051118,17.6175,0
1.1754,3.524834E-05,17.631,0,1.1754,6.848249E-05,17.631,0
1.1763,8.291753E-05,17.6445,0,1.1763,-5.035477E-05,17.6445,0
1.1772,-3.927672E-05,17.658,0,1.1772,-0.0002027619,17.658,0
1.1781,-0.0001695277,17.6715,0,1.1781,-0.0003873961,17.6715,0
1.179,-4.599069E-05,17.685,0,1.179,-0.0002547952,17.685,0
1.1799,1.275654E-05,17.6985,0,1.1799,-9.164568E-05,17.6985,0
1.1808,-0.0001762417,17.712,0,1.1808,-0.0002635233,17.712,0
1.1817,-0.0001215228,17.7255,0,1.1817,-0.0001990692,17.7255,0
1.1826,0.0001913481,17.739,0,1.1826,0.0003434196,17.739,0
1.1835,0.0003783322,17.7525,0,1.1835,0.0006559548,17.7525,0
1.1844,0.0002652018,17.766,0,1.1844,0.0004320439,17.766,0
1.1853,9.500267E-05,17.7795,0,1.1853,0.0002225681,17.7795,0
1.1862,2.786297E-05,17.793,0,1.1862,0.0001285725,17.793,0
1.1871,-6.411841E-05,17.8065,0,1.1871,8.761731E-05,17.8065,0
1.188,1.040665E-05,17.82,0,1.188,1.644922E-05,17.82,0
1.1889,3.189136E-05,17.8335,0,1.1889,1.242084E-05,17.8335,0
1.1898,3.524834E-05,17.847,0,1.1898,-3.424125E-05,17.847,0
1.1907,-2.853437E-05,17.8605,0,1.1907,7.016098E-05,17.8605,0
1.1916,-0.0001812772,17.874,0,1.1916,4.196231E-05,17.874,0
1.1925,-0.0002490883,17.8875,0,1.1925,-0.0002406958,17.8875,0
1.1934,-0.0001708705,17.901,0,1.1934,-0.0002413672,17.901,0
1.1943,-0.0001621424,17.9145,0,1.1943,-0.0001473716,17.9145,0
1.1952,3.323415E-05,17.928,0,1.1952,-0.0001258869,17.928,0
1.1961,0.0004481575,17.9415,0,1.1961,-0.0001574426,17.9415,0
1.197,0.000369604,17.955,0,1.197,-1.242084E-05,17.955,0
1.1979,0.0001033951,17.9685,0,1.1979,-6.042573E-06,17.9685,0
1.1988,8.560311E-05,17.982,0,1.1988,4.162661E-05,17.982,0
1.1997,-4.36408E-06,17.9955,0,1.1997,5.841154E-05,17.9955,0
1.2006,-0.0002353246,18.009,0,1.2006,-1.309224E-05,18.009,0
1.2015,-0.0002574807,18.0225,0,1.2015,-2.316319E-05,18.0225,0
1.2024,-0.0001426719,18.036,0,1.2024,-4.129091E-05,18.036,0
1.2033,-1.376364E-05,18.0495,0,1.2033,-8.358892E-05,18.0495,0
1.2042,5.471885E-05,18.063,0,1.2042,-4.699779E-05,18.063,0
1.2051,0.0002074617,18.0765,0,1.2051,-1.174945E-05,18.0765,0
1.206,0.0004656138,18.09,0,1.206,-0.0001131304,18.09,0
1.2069,0.0002480812,18.1035,0,1.2069,-0.0001040665,18.1035,0
1.2078,2.450599E-05,18.117,0,1.2078,0.000112459,18.117,0
1.2087,-5.539025E-05,18.1305,0,1.2087,0.0001252155,18.1305,0
1.2096,4.263371E-05,18.144,0,1.2096,0.0002574807,18.144,0
1.2105,0.0001802701,18.1575,0,1.2105,0.0001715419,18.1575,0
1.2114,0.000235996,18.171,0,1.2114,8.69459E-05,18.171,0
1.2123,0.0001426719,18.1845,0,1.2123,-1.141375E-05,18.1845,0
1.2132,-4.36408E-05,18.198,0,1.2132,-7.049668E-05,18.198,0
1.2141,-0.0001863127,18.2115,0,1.2141,-8.761731E-05,18.2115,0
1.215,-0.0001883268,18.225,0,1.215,-1.611353E-05,18.225,0
1.2159,-0.0001604639,18.2385,0,1.2159,9.063859E-06,18.2385,0
1.2168,7.049668E-06,18.252,0,1.2168,-7.284657E-05,18.252,0
1.2177,0.0001279011,18.2655,0,1.2177,-1.141375E-05,18.2655,0
1.2186,0.0002547952,18.279,0,1.2186,-9.399558E-06,18.279,0
1.2195,0.000203769,18.2925,0,1.2195,-4.196231E-05,18.2925,0
1.2204,4.39765E-05,18.306,0,1.2204,-7.318227E-05,18.306,0
1.2213,-3.860533E-05,18.3195,0,1.2213,-3.692683E-06,18.3195,0
1.2222,-6.74754E-05,18.333,0,1.2222,-5.505455E-05,18.333,0
1.2231,-3.659113E-05,18.3465,0,1.2231,-0.0002541238,18.3465,0
1.224,-0.0002205539,18.36,0,1.224,-0.0001044022,18.36,0
1.2249,-0.0002410315,18.3735,0,1.2249,-0.0001017166,18.3735,0
1.2258,-9.500267E-05,18.387,0,1.2258,-0.0002588235,18.387,0
1.2267,-0.0001084306,18.4005,0,1.2267,-0.0002685588,18.4005,0
1.2276,-9.701686E-05,18.414,0,1.2276,-0.0002846723,18.414,0
1.2285,0.0001077592,18.4275,0,1.2285,-0.0004249943,18.4275,0
1.2294,3.189136E-05,18.441,0,1.2294,-0.0004139162,18.441,0
1.2303,3.189136E-05,18.4545,0,1.2303,-0.0002312963,18.4545,0
1.2312,3.457694E-05,18.468,0,1.2312,-6.109713E-05,18.468,0
1.2321,-0.0001144732,18.4815,0,1.2321,2.584878E-05,18.4815,0
1.233,-0.0001221943,18.495,0,1.233,0.0001232013,18.495,0
1.2339,-7.922484E-05,18.5085,0,1.2339,0.0001050736,18.5085,0
1.2348,-0.0001900053,18.522,0,1.2348,0.0001527428,18.522,0
1.2357,-0.0001376364,18.5355,0,1.2357,0.000323949,18.5355,0
1.2366,1.644922E-05,18.549,0,1.2366,0.0004038453,18.549,0
1.2375,-7.788205E-05,18.5625,0,1.2375,0.0002480812,18.5625,0
1.2384,-7.821774E-05,18.576,0,1.2384,0.0001352865,18.576,0
1.2393,-5.706874E-06,18.5895,0,1.2393,0.0001238727,18.5895,0
1.2402,6.109713E-05,18.603,0,1.2402,-2.014191E-05,18.603,0
1.2411,-0.0001983978,18.6165,0,1.2411,-0.0001856413,18.6165,0
1.242,-0.0001963836,18.63,0,1.242,-0.000119173,18.63,0
1.2429,-7.351797E-05,18.6435,0,1.2429,-0.000169192,18.6435,0
1.2438,1.309224E-05,18.657,0,1.2438,-7.217517E-05,18.657,0
1.2447,-4.699779E-06,18.6705,0,1.2447,0.0001722133,18.6705,0
1.2456,-3.558404E-05,18.684,0,1.2456,0.0002333104,18.684,0
1.2465,2.1149E-05,18.6975,0,1.2465,0.0001651637,18.6975,0
1.2474,-1.510643E-05,18.711,0,1.2474,0.0001889983,18.711,0
1.2483,-4.33051E-05,18.7245,0,1.2483,0.000203769,18.7245,0
1.2492,8.526741E-05,18.738,0,1.2492,6.243992E-05,18.738,0
1.2501,0.000109102,18.7515,0,1.2501,-1.577783E-05,18.7515,0
1.251,1.107805E-05,18.765,0,1.251,5.270466E-05,18.765,0
1.2519,0.0001225299,18.7785,0,1.2519,3.457694E-05,18.7785,0
1.2528,0.000186984,18.792,0,1.2528,5.169757E-05,18.792,0
1.2537,8.191043E-05,18.8055,0,1.2537,4.061952E-05,18.8055,0
1.2546,2.652018E-05,18.819,0,1.2546,-5.304036E-05,18.819,0
1.2555,6.109713E-05,18.8325,0,1.2555,1.107805E-05,18.8325,0
1.2564,3.424125E-05,18.846,0,1.2564,-0.0001440146,18.846,0
1.2573,6.277562E-05,18.8595,0,1.2573,-0.0002339818,18.8595,0
1.2582,9.802396E-05,18.873,0,1.2582,-0.0001054093,18.873,0
1.2591,-8.392462E-05,18.8865,0,1.2591,-7.183947E-05,18.8865,0
1.26,2.349889E-06,18.9,0,1.26,-0.0001181659,18.9,0
1.2609,7.418937E-05,18.9135,0,1.2609,-0.0001628138,18.9135,0
1.2618,-0.0001171588,18.927,0,1.2618,-0.0001373007,18.927,0
1.2627,-0.0001722133,18.9405,0,1.2627,-0.0001483787,18.9405,0
1.2636,-2.1149E-05,18.954,0,1.2636,-0.0001174945,18.954,0
1.2645,-0.0001853056,18.9675,0,1.2645,1.040665E-05,18.9675,0
1.2654,-0.0001685206,18.981,0,1.2654,7.049668E-06,18.981,0
1.2663,-2.752728E-05,18.9945,0,1.2663,-1.678492E-06,18.9945,0
1.2672,-8.996719E-05,19.008,0,1.2672,3.356985E-06,19.008,0
1.2681,3.054856E-05,19.0215,0,1.2681,-5.438316E-05,19.0215,0
1.269,2.383459E-05,19.035,0,1.269,-0.000102388,19.035,0
1.2699,-0.00018262,19.0485,0,1.2699,-6.076142E-05,19.0485,0
1.2708,-0.0002497597,19.062,0,1.2708,-3.994812E-05,19.062,0
1.2717,-0.0002702373,19.0755,0,1.2717,3.726253E-05,19.0755,0
1.2726,-0.0003232776,19.089,0,1.2726,-2.450599E-05,19.089,0
1.2735,-0.0002490883,19.1025,0,1.2735,-8.92958E-05,19.1025,0
1.2744,2.719158E-05,19.116,0,1.2744,-6.143282E-05,19.116,0
1.2753,0.0003860533,19.1295,0,1.2753,-3.356985E-06,19.1295,0
1.2762,0.0005972076,19.143,0,1.2762,-4.867628E-05,19.143,0
1.2771,0.0004689708,19.1565,0,1.2771,-0.0001067521,19.1565,0
1.278,0.0001685206,19.17,0,1.278,2.618448E-05,19.17,0
1.2789,0.0001500572,19.1835,0,1.2789,0.0001030594,19.1835,0
1.2798,0.0001661708,19.197,0,1.2798,-1.242084E-05,19.197,0
1.2807,5.908293E-05,19.2105,0,1.2807,7.385367E-06,19.2105,0
1.2816,5.035477E-06,19.224,0,1.2816,-2.047761E-05,19.224,0
1.2825,-6.344701E-05,19.2375,0,1.2825,-7.351797E-05,19.2375,0
1.2834,-1.577783E-05,19.251,0,1.2834,-7.855344E-05,19.251,0
1.2843,5.203327E-05,19.2645,0,1.2843,-0.0001080949,19.2645,0
1.2852,-3.256275E-05,19.278,0,1.2852,-2.517739E-05,19.278,0
1.2861,-5.404745E-05,19.2915,0,1.2861,-2.987716E-05,19.2915,0
1.287,-1.779202E-05,19.305,0,1.287,1.174945E-05,19.305,0
1.2879,-3.121996E-05,19.3185,0,1.2879,4.39765E-05,19.3185,0
1.2888,-0.000148043,19.332,0,1.2888,0.0001467002,19.332,0
1.2897,-0.0001279011,19.3455,0,1.2897,0.0001003738,19.3455,0
1.2906,-3.793393E-05,19.359,0,1.2906,-0.000109102,19.359,0
1.2915,-0.0001762417,19.3725,0,1.2915,-3.558404E-05,19.3725,0
1.2924,-0.0002151827,19.386,0,1.2924,7.721065E-06,19.386,0
1.2933,-9.735256E-06,19.3995,0,1.2933,-0.0001077592,19.3995,0
1.2942,4.699779E-05,19.413,0,1.2942,-0.0001500572,19.413,0
1.2951,-0.0001010452,19.4265,0,1.2951,7.721065E-06,19.4265,0
1.296,-0.0002101472,19.44,0,1.296,9.735256E-06,19.44,0
1.2969,-0.0002514381,19.4535,0,1.2969,-4.901198E-05,19.4535,0
1.2978,-9.298848E-05,19.467,0,1.2978,-3.256275E-05,19.467,0
1.2987,2.081331E-05,19.4805,0,1.2987,-4.36408E-06,19.4805,0
1.2996,1.174945E-05,19.494,0,1.2996,3.961242E-05,19.494,0
1.3005,5.706874E-06,19.5075,0,1.3005,-0.0001312581,19.5075,0
1.3014,-0.0001117876,19.521,0,1.3014,-0.0003410697,19.521,0
1.3023,-0.0003135424,19.5345,0,1.3023,-0.0002051118,19.5345,0
1.3032,-2.987716E-05,19.548,0,1.3032,-0.0001473716,19.548,0
1.3041,0.0002829938,19.5615,0,1.3041,-1.309224E-05,19.5615,0
1.305,0.0003722896,19.575,0,1.305,0.0001742275,19.575,0
1.3059,0.0002437171,19.5885,0,1.3059,0.0001715419,19.5885,0
1.3068,0.0001889983,19.602,0,1.3068,8.560311E-05,19.602,0
1.3077,0.0001097734,19.6155,0,1.3077,0.0001745632,19.6155,0
1.3086,-6.411841E-05,19.629,0,1.3086,0.0001567712,19.629,0
1.3095,3.121996E-05,19.6425,0,1.3095,5.069047E-05,19.6425,0
1.3104,0.0001379721,19.656,0,1.3104,-2.450599E-05,19.656,0
1.3113,1.342794E-06,19.6695,0,1.3113,-0.0001534142,19.6695,0
1.3122,-3.457694E-05,19.683,0,1.3122,-0.0001319295,19.683,0
1.3131,3.726253E-05,19.6965,0,1.3131,-6.915389E-05,19.6965,0
1.314,2.450599E-05,19.71,0,1.314,-0.0001050736,19.71,0
1.3149,1.242084E-05,19.7235,0,1.3149,-7.016098E-05,19.7235,0
1.3158,-0.0001228656,19.737,0,1.3158,-2.719158E-05,19.737,0
1.3167,-0.0001406577,19.7505,0,1.3167,-0.0001010452,19.7505,0
1.3176,-2.383459E-05,19.764,0,1.3176,-9.433127E-05,19.764,0
1.3185,-0.0001087663,19.7775,0,1.3185,6.54612E-05,19.7775,0
1.3194,-1.040665E-05,19.791,0,1.3194,0.0002887007,19.791,0
1.3203,-5.606165E-05,19.8045,0,1.3203,0.0003232776,19.8045,0
1.3212,-4.766919E-05,19.818,0,1.3212,0.0002178683,19.818,0
1.3221,-0.0001339437,19.8315,0,1.3221,8.258183E-05,19.8315,0
1.323,-0.0001752346,19.845,0,1.323,-1.913481E-05,19.845,0
1.3239,-0.0001705348,19.8585,0,1.3239,-0.0001507286,19.8585,0
1.3248,-0.0001181659,19.872,0,1.3248,-0.0001292439,19.872,0
1.3257,-0.0001688563,19.8855,0,1.3257,8.291753E-05,19.8855,0
1.3266,-0.0002333104,19.899,0,1.3266,2.752728E-05,19.899,0
1.3275,-0.0001406577,19.9125,0,1.3275,-1.712062E-05,19.9125,0
1.3284,-7.049668E-06,19.926,0,1.3284,-2.316319E-05,19.926,0
1.3293,-1.107805E-05,19.9395,0,1.3293,6.277562E-05,19.9395,0
1.3302,7.385367E-06,19.953,0,1.3302,7.150377E-05,19.953,0
1.3311,0.0001785916,19.9665,0,1.3311,2.719158E-05,19.9665,0
1.332,2.853437E-05,19.98,0,1.332,0.0004266728,19.98,0
1.3329,3.759823E-05,19.9935,0,1.3329,0.0003538262,19.9935,0
1.3338,0.0001473716,20.007,0,1.3338,9.198138E-05,20.007,0
1.3347,5.941863E-05,20.0205,0,1.3347,5.136187E-05,20.0205,0
1.3356,1.040665E-05,20.034,0,1.3356,3.894102E-05,20.034,0
1.3365,9.768826E-05,20.0475,0,1.3365,-2.786297E-05,20.0475,0
1.3374,8.090334E-05,20.061,0,1.3374,7.049668E-06,20.061,0
1.3383,7.217517E-05,20.0745,0,1.3383,5.706874E-06,20.0745,0
1.3392,0.0001198444,20.088,0,1.3392,-0.0001040665,20.088,0
1.3401,2.081331E-05,20.1015,0,1.3401,-8.392462E-05,20.1015,0
1.341,4.599069E-05,20.115,0,1.341,-0.0001144732,20.115,0
1.3419,0.0001171588,20.1285,0,1.3419,-0.0002024262,20.1285,0
1.3428,8.224613E-05,20.142,0,1.3428,-0.0002061189,20.142,0
1.3437,3.994812E-05,20.1555,0,1.3437,-0.0002897078,20.1555,0
1.3446,6.344701E-05,20.169,0,1.3446,-0.0003776608,20.169,0
1.3455,-8.761731E-05,20.1825,0,1.3455,-0.0002887007,20.1825,0
1.3464,-0.0001168231,20.196,0,1.3464,-6.54612E-05,20.196,0
1.3473,-0.0001896696,20.2095,0,1.3473,5.203327E-05,20.2095,0
1.3482,-0.0002500954,20.223,0,1.3482,5.169757E-05,20.223,0
1.3491,-0.0002732586,20.2365,0,1.3491,0.0001178302,20.2365,0
1.35,-4.867628E-05,20.25,0,1.35,6.881819E-05,20.25,0
1.3509,0.0001349508,20.2635,0,1.3509,-2.24918E-05,20.2635,0
1.3518,0.0003944457,20.277,0,1.3518,-0.0001762417,20.277,0
1.3527,0.000601236,20.2905,0,1.3527,-0.0001789273,20.2905,0
1.3536,0.0003863889,20.304,0,1.3536,-0.000218204,20.304,0
1.3545,9.903105E-05,20.3175,0,1.3545,-0.0002934005,20.3175,0
1.3554,-2.014191E-06,20.331,0,1.3554,-0.0001540856,20.331,0
1.3563,-7.284657E-05,20.3445,0,1.3563,-1.947051E-05,20.3445,0
1.3572,1.141375E-05,20.358,0,1.3572,5.169757E-05,20.358,0
1.3581,0.0001352865,20.3715,0,1.3581,-8.358892E-05,20.3715,0
1.359,0.0001742275,20.385,0,1.359,-0.000115816,20.385,0
1.3599,0.0001379721,20.3985,0,1.3599,-0.0001574426,20.3985,0
1.3608,0.0001117876,20.412,0,1.3608,-0.0001292439,20.412,0
1.3617,0.0001070878,20.4255,0,1.3617,-0.0001087663,20.4255,0
1.3626,-5.270466E-05,20.439,0,1.3626,-0.000175906,20.439,0
1.3635,-0.0002722515,20.4525,0,1.3635,-3.927672E-05,20.4525,0
1.3644,-0.0005126116,20.466,0,1.3644,-5.035477E-06,20.466,0
1.3653,-0.0005418173,20.4795,0,1.3653,-0.0001265583,20.4795,0
1.3662,-0.0003944457,20.493,0,1.3662,-5.908293E-05,20.493,0
1.3671,-0.000133608,20.5065,0,1.3671,0.000112459,20.5065,0
1.368,0.0002457313,20.52,0,1.368,0.0001040665,20.52,0
1.3689,0.0003353628,20.5335,0,1.3689,1.174945E-05,20.5335,0
1.3698,7.351797E-05,20.547,0,1.3698,7.855344E-05,20.547,0
1.3707,4.46479E-05,20.5605,0,1.3707,0.0001242084,20.5605,0
1.3716,0.0003081712,20.574,0,1.3716,0.0001050736,20.574,0
1.3725,0.0002024262,20.5875,0,1.3725,0.0001473716,20.5875,0
1.3734,-2.786297E-05,20.601,0,1.3734,0.0001399863,20.601,0
1.3743,5.203327E-05,20.6145,0,1.3743,6.143282E-05,20.6145,0
1.3752,-8.560311E-05,20.628,0,1.3752,4.129091E-05,20.628,0
1.3761,-0.0001829557,20.6415,0,1.3761,8.224613E-05,20.6415,0
1.377,-0.0001910124,20.655,0,1.377,4.53193E-05,20.655,0
1.3779,-0.000161471,20.6685,0,1.3779,-5.874724E-05,20.6685,0
1.3788,-0.0001101091,20.682,0,1.3788,-3.994812E-05,20.682,0
1.3797,-0.0001587854,20.6955,0,1.3797,-3.424125E-05,20.6955,0
1.3806,-0.0002752728,20.709,0,1.3806,-9.298848E-05,20.709,0
1.3815,-9.735256E-06,20.7225,0,1.3815,-2.987716E-05,20.7225,0
1.3824,0.0004491646,20.736,0,1.3824,-2.450599E-05,20.736,0
1.3833,0.0004468147,20.7495,0,1.3833,-3.356985E-06,20.7495,0
1.3842,0.0002346532,20.763,0,1.3842,-6.54612E-05,20.763,0
1.3851,0.0003078355,20.7765,0,1.3851,-0.0001101091,20.7765,0
1.386,0.0002017548,20.79,0,1.386,-3.927672E-05,20.79,0
1.3869,-1.846342E-05,20.8035,0,1.3869,-3.726253E-05,20.8035,0
1.3878,-3.524834E-05,20.817,0,1.3878,-8.459602E-05,20.817,0
1.3887,-2.719158E-05,20.8305,0,1.3887,-6.713969E-06,20.8305,0
1.3896,-0.000175906,20.844,0,1.3896,3.054856E-05,20.844,0
1.3905,-0.000185977,20.8575,0,1.3905,2.014191E-06,20.8575,0
1.3914,-0.0001467002,20.871,0,1.3914,-7.049668E-06,20.871,0
1.3923,-6.881819E-05,20.8845,0,1.3923,-2.316319E-05,20.8845,0
1.3932,-0.000119173,20.898,0,1.3932,8.358892E-05,20.898,0
1.3941,-0.000105745,20.9115,0,1.3941,8.526741E-05,20.9115,0
1.395,3.356985E-07,20.925,0,1.395,1.040665E-05,20.925,0
1.3959,-5.270466E-05,20.9385,0,1.3959,3.390555E-05,20.9385,0
1.3968,-0.00021149,20.952,0,1.3968,6.076142E-05,20.952,0
1.3977,-0.0001705348,20.9655,0,1.3977,2.584878E-05,20.9655,0
1.3986,-9.063859E-05,20.979,0,1.3986,-6.445411E-05,20.979,0
1.3995,-0.000246067,20.9925,0,1.3995,-8.82887E-05,20.9925,0
1.4004,-0.0002796368,21.006,0,1.4004,-5.941863E-05,21.006,0
1.4013,-0.0001178302,21.0195,0,1.4013,-6.814679E-05,21.0195,0
1.4022,-0.0001111162,21.033,0,1.4022,-0.0001977264,21.033,0
1.4031,-0.0002500954,21.0465,0,1.4031,-9.701686E-05,21.0465,0
1.404,-0.0001628138,21.06,0,1.404,1.544213E-05,21.06,0
1.4049,-0.0001413291,21.0735,0,1.4049,5.337606E-05,21.0735,0
1.4058,-6.61326E-05,21.087,0,1.4058,-7.586786E-05,21.087,0
1.4067,-7.284657E-05,21.1005,0,1.4067,-4.49836E-05,21.1005,0
1.4076,-0.0001104448,21.114,0,1.4076,-1.443504E-05,21.114,0
1.4085,-2.21561E-05,21.1275,0,1.4085,-2.081331E-05,21.1275,0
1.4094,7.049668E-05,21.141,0,1.4094,-2.853437E-05,21.141,0
1.4103,-8.358892E-05,21.1545,0,1.4103,3.591974E-05,21.1545,0
1.4112,-2.450599E-05,21.168,0,1.4112,5.169757E-05,21.168,0
1.4121,0.0001426719,21.1815,0,1.4121,7.016098E-05,21.1815,0
1.413,0.0001654994,21.195,0,1.413,0.0002652018,21.195,0
1.4139,0.000126894,21.2085,0,1.4139,0.0002903792,21.2085,0
1.4148,0.000112459,21.222,0,1.4148,8.123904E-05,21.222,0
1.4157,9.298848E-05,21.2355,0,1.4157,-3.625543E-05,21.2355,0
1.4166,-8.392462E-06,21.249,0,1.4166,-5.069047E-05,21.249,0
1.4175,3.189136E-05,21.2625,0,1.4175,-0.0001265583,21.2625,0
1.4184,4.53193E-05,21.276,0,1.4184,-0.0001299153,21.276,0
1.4193,4.129091E-05,21.2895,0,1.4193,-0.0001500572,21.2895,0
1.4202,4.934768E-05,21.303,0,1.4202,-5.606165E-05,21.303,0
1.4211,0.0001366293,21.3165,0,1.4211,-1.678492E-06,21.3165,0
1.422,0.0001500572,21.33,0,1.422,-5.471885E-05,21.33,0
1.4229,0.0001809415,21.3435,0,1.4229,-4.36408E-05,21.3435,0
1.4238,0.0001279011,21.357,0,1.4238,0.0003044785,21.357,0
1.4247,0.000102388,21.3705,0,1.4247,0.0004884413,21.3705,0
1.4256,0.000148043,21.384,0,1.4256,0.0001769131,21.384,0
1.4265,3.457694E-05,21.3975,0,1.4265,9.097429E-05,21.3975,0
1.4274,-3.726253E-05,21.411,0,1.4274,0.0001017166,21.411,0
1.4283,3.692683E-06,21.4245,0,1.4283,5.035477E-06,21.4245,0
1.4292,-1.846342E-05,21.438,0,1.4292,-0.0001832914,21.438,0
1.4301,-0.0001064164,21.4515,0,1.4301,-0.0001705348,21.4515,0
1.431,-8.358892E-05,21.465,0,1.431,-0.0001530785,21.465,0
1.4319,-3.927672E-05,21.4785,0,1.4319,-0.0001705348,21.4785,0
1.4328,1.947051E-05,21.492,0,1.4328,-0.0002061189,21.492,0
1.4337,-8.661021E-05,21.5055,0,1.4337,-0.0002205539,21.5055,0
1.4346,-0.0001420005,21.519,0,1.4346,-0.0002034333,21.519,0
1.4355,-6.478981E-05,21.5325,0,1.4355,-0.0001802701,21.5325,0
1.4364,-3.793393E-05,21.546,0,1.4364,-0.0001554284,21.546,0
1.4373,-0.0001322652,21.5595,0,1.4373,-5.539025E-05,21.5595,0
1.4382,-8.526741E-05,21.573,0,1.4382,-8.426032E-05,21.573,0
1.4391,-6.411841E-05,21.5865,0,1.4391,-0.0001631495,21.5865,0
1.44,-0.0002232395,21.6,0,1.44,-0.0001252155,21.6,0
1.4409,-8.090334E-05,21.6135,0,1.4409,-8.86244E-05,21.6135,0
1.4418,0.0001033951,21.627,0,1.4418,-0.000105745,21.627,0
1.4427,0.0001883268,21.6405,0,1.4427,-1.510643E-05,21.6405,0
1.4436,0.0002856794,21.654,0,1.4436,7.385367E-06,21.654,0
1.4445,0.0004521859,21.6675,0,1.4445,3.189136E-05,21.6675,0
1.4454,0.000513283,21.681,0,1.4454,4.565499E-05,21.681,0
1.4463,0.0003863889,21.6945,0,1.4463,-7.385367E-06,21.6945,0
1.4472,0.0001413291,21.708,0,1.4472,2.719158E-05,21.708,0
1.4481,4.53193E-05,21.7215,0,1.4481,2.920577E-05,21.7215,0
1.449,-5.706874E-06,21.735,0,1.449,0.0001980621,21.735,0
1.4499,3.726253E-05,21.7485,0,1.4499,0.0002521096,21.7485,0
1.4508,-3.692683E-06,21.762,0,1.4508,0.000185977,21.762,0
1.4517,6.61326E-05,21.7755,0,1.4517,9.231708E-05,21.7755,0
1.4526,0.0001174945,21.789,0,1.4526,-0.0002027619,21.789,0
1.4535,1.678492E-06,21.8025,0,1.4535,-0.0002668803,21.8025,0
1.4544,-3.659113E-05,21.816,0,1.4544,-0.0002017548,21.816,0
1.4553,-1.577783E-05,21.8295,0,1.4553,-0.0001735561,21.8295,0
1.4562,-0.0002165255,21.843,0,1.4562,-9.936675E-05,21.843,0
1.4571,-0.0004790417,21.8565,0,1.4571,-4.632639E-05,21.8565,0
1.458,-0.0003716182,21.87,0,1.458,2.316319E-05,21.87,0
1.4589,-0.0001668421,21.8835,0,1.4589,-3.692683E-06,21.8835,0
1.4598,-9.332418E-05,21.897,0,1.4598,-8.493171E-05,21.897,0
1.4607,-0.0001654994,21.9105,0,1.4607,1.913481E-05,21.9105,0
1.4616,-0.0001346151,21.924,0,1.4616,3.826963E-05,21.924,0
1.4625,8.090334E-05,21.9375,0,1.4625,-4.36408E-05,21.9375,0
1.4634,0.0001339437,21.951,0,1.4634,-8.157473E-05,21.951,0
1.4643,5.807584E-05,21.9645,0,1.4643,-4.599069E-05,21.9645,0
1.4652,-4.766919E-05,21.978,0,1.4652,-0.0001104448,21.978,0
1.4661,-0.0001030594,21.9915,0,1.4661,-0.000200412,21.9915,0
1.467,-0.0002229038,22.005,0,1.467,-6.478981E-05,22.005,0
1.4679,-0.0002339818,22.0185,0,1.4679,-2.920577E-05,22.0185,0
1.4688,-0.0002558022,22.032,0,1.4688,-7.452507E-05,22.032,0
1.4697,-0.0002232395,22.0455,0,1.4697,8.82887E-05,22.0455,0
1.4706,-0.0002920577,22.059,0,1.4706,0.0002165255,22.059,0
1.4715,-0.0001910124,22.0725,0,1.4715,0.0002554666,22.0725,0
1.4724,-2.786297E-05,22.086,0,1.4724,0.0001943694,22.086,0
1.4733,7.083238E-05,22.0995,0,1.4733,0.0001060807,22.0995,0
1.4742,8.358892E-05,22.113,0,1.4742,0.0001607996,22.113,0
1.4751,-4.263371E-05,22.1265,0,1.4751,-5.001907E-05,22.1265,0
1.476,6.6804E-05,22.14,0,1.476,-0.0001920195,22.14,0
1.4769,0.0001111162,22.1535,0,1.4769,-0.0001856413,22.1535,0
1.4778,-0.000102388,22.167,0,1.4778,-0.0002010834,22.167,0
1.4787,-5.807584E-05,22.1805,0,1.4787,-0.0001399863,22.1805,0
1.4796,3.927672E-05,22.194,0,1.4796,-9.768826E-05,22.194,0
1.4805,-9.298848E-05,22.2075,0,1.4805,9.063859E-05,22.2075,0
1.4814,-9.802396E-05,22.221,0,1.4814,6.009003E-05,22.221,0
1.4823,-3.021286E-06,22.2345,0,1.4823,5.001907E-05,22.2345,0
1.4832,3.323415E-05,22.248,0,1.4832,5.337606E-05,22.248,0
1.4841,-8.627451E-05,22.2615,0,1.4841,0.0001017166,22.2615,0
1.485,-8.996719E-05,22.275,0,1.485,1.107805E-05,22.275,0
1.4859,-1.712062E-05,22.2885,0,1.4859,-4.29694E-05,22.2885,0
1.4868,-3.961242E-05,22.302,0,1.4868,-0.000109102,22.302,0
1.4877,-3.390555E-05,22.3155,0,1.4877,-3.457694E-05,22.3155,0
1.4886,-7.284657E-05,22.329,0,1.4886,5.069047E-05,22.329,0
1.4895,-3.793393E-05,22.3425,0,1.4895,4.33051E-05,22.3425,0
1.4904,1.007095E-06,22.356,0,1.4904,4.36408E-06,22.356,0
1.4913,-7.687495E-05,22.3695,0,1.4913,-2.450599E-05,22.3695,0
1.4922,-6.61326E-05,22.383,0,1.4922,-0.0001255512,22.383,0
1.4931,0.0001084306,22.3965,0,1.4931,-0.0001607996,22.3965,0
1.494,2.21561E-05,22.41,0,1.494,-1.409934E-05,22.41,0
1.4949,-0.0001205158,22.4235,0,1.4949,1.376364E-05,22.4235,0
1.4958,-1.040665E-05,22.437,0,1.4958,-0.0002171969,22.437,0
1.4967,9.634547E-05,22.4505,0,1.4967,-0.0002652018,22.4505,0
1.4976,-7.956054E-05,22.464,0,1.4976,-0.000193698,22.464,0
1.4985,-3.457694E-05,22.4775,0,1.4985,-0.0002192111,22.4775,0
1.4994,0.0001151446,22.491,0,1.4994,-4.46479E-05,22.491,0
1.5003,0.0001621424,22.5045,0,1.5003,8.761731E-05,22.5045,0
1.5012,3.021286E-05,22.518,0,1.5012,0.000263859,22.518,0
1.5021,-5.874724E-05,22.5315,0,1.5021,0.0002537881,22.5315,0
1.503,1.141375E-05,22.545,0,1.503,0.000193698,22.545,0
1.5039,8.291753E-05,22.5585,0,1.5039,0.0001621424,22.5585,0
1.5048,4.196231E-05,22.572,0,1.5048,0.0001795987,22.572,0
1.5057,6.814679E-05,22.5855,0,1.5057,0.0001279011,22.5855,0
1.5066,0.0002084688,22.599,0,1.5066,0.000102388,22.599,0
1.5075,0.0001346151,22.6125,0,1.5075,0.0002024262,22.6125,0
1.5084,0.0001762417,22.626,0,1.5084,2.383459E-05,22.626,0
1.5093,0.0001822843,22.6395,0,1.5093,-3.524834E-05,22.6395,0
1.5102,0.0001473716,22.653,0,1.5102,-1.174945E-05,22.653,0
1.5111,6.881819E-05,22.6665,0,1.5111,-9.735256E-06,22.6665,0
1.512,8.157473E-05,22.68,0,1.512,-4.666209E-05,22.68,0
1.5129,7.687495E-05,22.6935,0,1.5129,-7.217517E-05,22.6935,0
1.5138,0.0001634852,22.707,0,1.5138,-0.0001107805,22.707,0
1.5147,1.409934E-05,22.7205,0,1.5147,3.021286E-06,22.7205,0
1.5156,-0.0001510643,22.734,0,1.5156,2.383459E-05,22.734,0
1.5165,-2.21561E-05,22.7475,0,1.5165,-7.486076E-05,22.7475,0
1.5174,1.577783E-05,22.761,0,1.5174,-0.000115816,22.761,0
1.5183,-0.0001607996,22.7745,0,1.5183,-2.28275E-05,22.7745,0
1.5192,-9.835965E-05,22.788,0,1.5192,-7.418937E-05,22.788,0
1.5201,2.21561E-05,22.8015,0,1.5201,-0.0001228656,22.8015,0
1.521,-0.000102388,22.815,0,1.521,-4.766919E-05,22.815,0
1.5219,-0.0001463645,22.8285,0,1.5219,-4.800488E-05,22.8285,0
1.5228,4.263371E-05,22.842,0,1.5228,-9.030289E-05,22.842,0
1.5237,0.000148043,22.8555,0,1.5237,1.007095E-06,22.8555,0
1.5246,0.0001473716,22.869,0,1.5246,6.814679E-05,22.869,0
1.5255,0.0002655375,22.8825,0,1.5255,-1.007095E-06,22.8825,0
1.5264,0.0002994431,22.896,0,1.5264,-5.404745E-05,22.896,0
1.5273,0.0004078737,22.9095,0,1.5273,-0.0001054093,22.9095,0
1.5282,0.0002890364,22.923,0,1.5282,-3.524834E-05,22.923,0
1.5291,0.0001728847,22.9365,0,1.5291,5.606165E-05,22.9365,0
1.53,0.0002252537,22.95,0,1.53,2.584878E-05,22.95,0
1.5309,0.000239353,22.9635,0,1.5309,-3.726253E-05,22.9635,0
1.5318,4.46479E-05,22.977,0,1.5318,-2.584878E-05,22.977,0
1.5327,-9.600977E-05,22.9905,0,1.5327,-0.0001000381,22.9905,0
1.5336,-6.61326E-05,23.004,0,1.5336,-0.000148043,23.004,0
1.5345,-9.701686E-05,23.0175,0,1.5345,-4.129091E-05,23.0175,0
1.5354,-0.0001275654,23.031,0,1.5354,-6.814679E-05,23.031,0
1.5363,-0.0001292439,23.0445,0,1.5363,-0.0001809415,23.0445,0
1.5372,-0.0002477455,23.058,0,1.5372,-0.0001564355,23.058,0
1.5381,-0.0003682612,23.0715,0,1.5381,-0.0001265583,23.0715,0
1.539,-0.0003605402,23.085,0,1.539,-0.0001295796,23.085,0
1.5399,-0.0002447242,23.0985,0,1.5399,-9.298848E-05,23.0985,0
1.5408,-6.344701E-05,23.112,0,1.5408,-5.539025E-05,23.112,0
1.5417,9.634547E-05,23.1255,0,1.5417,-1.275654E-05,23.1255,0
1.5426,0.0001963836,23.139,0,1.5426,-2.719158E-05,23.139,0
1.5435,0.0001735561,23.1525,0,1.5435,-8.627451E-05,23.1525,0
1.5444,4.43122E-05,23.166,0,1.5444,-0.000249424,23.166,0
1.5453,-0.0001272297,23.1795,0,1.5453,-0.0002356603,23.1795,0
1.5462,-0.0001292439,23.193,0,1.5462,-0.0002218967,23.193,0
1.5471,-7.116808E-05,23.2065,0,1.5471,-0.0002124971,23.2065,0
1.548,-0.0002635233,23.22,0,1.548,-8.795301E-05,23.22,0
1.5489,-0.0002024262,23.2335,0,1.5489,0.0001362936,23.2335,0
1.5498,-7.653925E-05,23.247,0,1.5498,0.0002937362,23.247,0
1.5507,-1.007095E-06,23.2605,0,1.5507,0.000327306,23.2605,0
1.5516,4.53193E-05,23.274,0,1.5516,0.0004307012,23.274,0
1.5525,-7.016098E-05,23.2875,0,1.5525,0.0003588617,23.2875,0
1.5534,-0.0001242084,23.301,0,1.5534,0.0001205158,23.301,0
1.5543,5.874724E-05,23.3145,0,1.5543,2.18204E-05,23.3145,0
1.5552,7.721065E-06,23.328,0,1.5552,5.270466E-05,23.328,0
1.5561,-0.0001926909,23.3415,0,1.5561,4.263371E-05,23.3415,0
1.557,-0.0001591211,23.355,0,1.557,2.819867E-05,23.355,0
1.5579,-7.217517E-05,23.3685,0,1.5579,4.565499E-05,23.3685,0
1.5588,-0.0001621424,23.382,0,1.5588,9.701686E-05,23.382,0
1.5597,-0.0001359579,23.3955,0,1.5597,4.39765E-05,23.3955,0
1.5606,8.224613E-05,23.409,0,1.5606,-3.692683E-06,23.409,0
1.5615,3.323415E-05,23.4225,0,1.5615,4.599069E-05,23.4225,0
1.5624,7.721065E-06,23.436,0,1.5624,-6.042573E-06,23.436,0
1.5633,2.349889E-06,23.4495,0,1.5633,-0.0002769512,23.4495,0
1.5642,-5.035477E-06,23.463,0,1.5642,-0.0003309987,23.463,0
1.5651,-0.0001299153,23.4765,0,1.5651,-0.0001440146,23.4765,0
1.566,-7.049668E-05,23.49,0,1.566,-9.231708E-05,23.49,0
1.5669,5.236896E-05,23.5035,0,1.5669,-0.0001376364,23.5035,0
1.5678,4.263371E-05,23.517,0,1.5678,-0.0001473716,23.517,0
1.5687,-1.846342E-05,23.5305,0,1.5687,-8.157473E-05,23.5305,0
1.5696,-9.634547E-05,23.544,0,1.5696,-4.733349E-05,23.544,0
1.5705,-0.0001178302,23.5575,0,1.5705,-3.491264E-05,23.5575,0
1.5714,-6.009003E-05,23.571,0,1.5714,4.666209E-05,23.571,0
1.5723,-9.634547E-05,23.5845,0,1.5723,0.0001070878,23.5845,0
1.5732,-0.000109102,23.598,0,1.5732,8.258183E-05,23.598,0
1.5741,6.54612E-05,23.6115,0,1.5741,0.0002306248,23.6115,0
1.575,1.309224E-05,23.625,0,1.575,0.0002474098,23.625,0
1.5759,-3.356985E-07,23.6385,0,1.5759,1.409934E-05,23.6385,0
1.5768,0.0001329366,23.652,0,1.5768,2.1149E-05,23.652,0
1.5777,0.0001782559,23.6655,0,1.5777,-2.349889E-06,23.6655,0
1.5786,0.0001641566,23.679,0,1.5786,-1.376364E-05,23.679,0
1.5795,0.0001440146,23.6925,0,1.5795,-1.812772E-05,23.6925,0
1.5804,0.0001037308,23.706,0,1.5804,-7.721065E-06,23.706,0
1.5813,0.000140322,23.7195,0,1.5813,-4.666209E-05,23.7195,0
1.5822,6.54612E-05,23.733,0,1.5822,-9.735256E-06,23.733,0
1.5831,-2.450599E-05,23.7465,0,1.5831,-1.040665E-05,23.7465,0
1.584,5.035477E-05,23.76,0,1.584,-7.116808E-05,23.76,0
1.5849,-3.356985E-07,23.7735,0,1.5849,-8.090334E-05,23.7735,0
1.5858,-4.800488E-05,23.787,0,1.5858,-4.733349E-05,23.787,0
1.5867,8.761731E-05,23.8005,0,1.5867,-5.807584E-05,23.8005,0
1.5876,0.0001305867,23.814,0,1.5876,-9.567407E-05,23.814,0
1.5885,4.699779E-06,23.8275,0,1.5885,-2.584878E-05,23.8275,0
1.5894,-6.54612E-05,23.841,0,1.5894,-1.107805E-05,23.841,0
1.5903,-7.083238E-05,23.8545,0,1.5903,6.881819E-05,23.8545,0
1.5912,-0.0001067521,23.868,0,1.5912,4.934768E-05,23.868,0
1.5921,-0.000175906,23.8815,0,1.5921,-3.692683E-06,23.8815,0
1.593,-0.0001292439,23.895,0,1.593,3.961242E-05,23.895,0
1.5939,-3.289845E-05,23.9085,0,1.5939,3.189136E-05,23.9085,0
1.5948,0.0001527428,23.922,0,1.5948,-3.927672E-05,23.922,0
1.5957,0.0002457313,23.9355,0,1.5957,-5.136187E-05,23.9355,0
1.5966,0.0001238727,23.949,0,1.5966,-0.0001097734,23.949,0
1.5975,0.000109102,23.9625,0,1.5975,-0.0001416648,23.9625,0
1.5984,0.0001856413,23.976,0,1.5984,-7.553216E-05,23.976,0
1.5993,3.155566E-05,23.9895,0,1.5993,5.404745E-05,23.9895,0
1.6002,4.33051E-05,24.003,0,1.6002,5.841154E-05,24.003,0
1.6011,0.0002447242,24.0165,0,1.6011,5.706874E-06,24.0165,0
1.602,8.023193E-05,24.03,0,1.602,3.356985E-05,24.03,0
1.6029,-3.356985E-07,24.0435,0,1.6029,2.786297E-05,24.0435,0
1.6038,1.174945E-05,24.057,0,1.6038,2.1149E-05,24.057,0
1.6047,-0.0001017166,24.0705,0,1.6047,1.980621E-05,24.0705,0
1.6056,-0.0002356603,24.084,0,1.6056,0.0001607996,24.084,0
1.6065,-0.0002907149,24.0975,0,1.6065,8.526741E-05,24.0975,0
1.6074,-0.0002735943,24.111,0,1.6074,-0.0001413291,24.111,0
1.6083,-0.0002947433,24.1245,0,1.6083,-0.0001618067,24.1245,0
1.6092,-0.0003232776,24.138,0,1.6092,-8.560311E-05,24.138,0
1.6101,-0.0001104448,24.1515,0,1.6101,-0.0001708705,24.1515,0
1.611,0.0002010834,24.165,0,1.611,-0.0002903792,24.165,0
1.6119,0.0003481193,24.1785,0,1.6119,-0.0002151827,24.1785,0
1.6128,0.0001040665,24.192,0,1.6128,-8.426032E-05,24.192,0
1.6137,4.263371E-05,24.2055,0,1.6137,0.0001963836,24.2055,0
1.6146,0.0001829557,24.219,0,1.6146,0.0001319295,24.219,0
1.6155,-6.478981E-05,24.2325,0,1.6155,4.666209E-05,24.2325,0
1.6164,-0.000189334,24.246,0,1.6164,8.392462E-06,24.246,0
1.6173,-0.0001762417,24.2595,0,1.6173,-5.740444E-05,24.2595,0
1.6182,-0.0001863127,24.273,0,1.6182,-1.846342E-05,24.273,0
1.6191,-0.0002323034,24.2865,0,1.6191,-1.309224E-05,24.2865,0
1.62,-0.0002135042,24.3,0,1.62,-5.438316E-05,24.3,0
1.6209,-7.486076E-05,24.3135,0,1.6209,-6.243992E-05,24.3135,0
1.6218,0.0002034333,24.327,0,1.6218,-0.000123537,24.327,0
1.6227,0.0001352865,24.3405,0,1.6227,-9.063859E-05,24.3405,0
1.6236,4.229801E-05,24.354,0,1.6236,-4.49836E-05,24.354,0
1.6245,0.0001332723,24.3675,0,1.6245,-1.074235E-05,24.3675,0
1.6254,0.0001107805,24.381,0,1.6254,4.36408E-06,24.381,0
1.6263,-4.061952E-05,24.3945,0,1.6263,3.054856E-05,24.3945,0
1.6272,-2.081331E-05,24.408,0,1.6272,3.659113E-05,24.408,0
1.6281,0.0001164874,24.4215,0,1.6281,-6.51255E-05,24.4215,0
1.629,-2.786297E-05,24.435,0,1.629,4.36408E-06,24.435,0
1.6299,-0.0001544213,24.4485,0,1.6299,2.450599E-05,24.4485,0
1.6308,-9.735256E-05,24.462,0,1.6308,-4.867628E-05,24.462,0
1.6317,-0.0001420005,24.4755,0,1.6317,-8.224613E-05,24.4755,0
1.6326,-0.000207126,24.489,0,1.6326,-0.0001044022,24.489,0
1.6335,-9.030289E-05,24.5025,0,1.6335,-0.000140322,24.5025,0
1.6344,-0.0001497215,24.516,0,1.6344,-0.0001604639,24.516,0
1.6353,-0.000130251,24.5295,0,1.6353,-0.0001272297,24.5295,0
1.6362,-7.553216E-05,24.543,0,1.6362,-3.424125E-05,24.543,0
1.6371,-0.0001560998,24.5565,0,1.6371,5.069047E-05,24.5565,0
1.638,-0.0001550927,24.57,0,1.638,7.754635E-05,24.57,0
1.6389,-5.169757E-05,24.5835,0,1.6389,-2.752728E-05,24.5835,0
1.6398,7.486076E-05,24.597,0,1.6398,-2.853437E-05,24.597,0
1.6407,0.0001822843,24.6105,0,1.6407,-2.316319E-05,24.6105,0
1.6416,0.0002598306,24.624,0,1.6416,-5.539025E-05,24.624,0
1.6425,0.0001963836,24.6375,0,1.6425,3.256275E-05,24.6375,0
1.6434,0.0001715419,24.651,0,1.6434,5.874724E-05,24.651,0
1.6443,0.0001712062,24.6645,0,1.6443,5.136187E-05,24.6645,0
1.6452,5.404745E-05,24.678,0,1.6452,7.486076E-05,24.678,0
1.6461,-5.069047E-05,24.6915,0,1.6461,8.82887E-05,24.6915,0
1.647,-3.457694E-05,24.705,0,1.647,-4.028382E-06,24.705,0
1.6479,-2.450599E-05,24.7185,0,1.6479,-0.0001393149,24.7185,0
1.6488,-7.049668E-06,24.732,0,1.6488,-0.0001651637,24.732,0
1.6497,4.263371E-05,24.7455,0,1.6497,1.678492E-05,24.7455,0
1.6506,-1.242084E-05,24.759,0,1.6506,3.961242E-05,24.759,0
1.6515,5.471885E-05,24.7725,0,1.6515,3.021286E-06,24.7725,0
1.6524,6.009003E-05,24.786,0,1.6524,4.263371E-05,24.786,0
1.6533,-8.392462E-06,24.7995,0,1.6533,0.0001440146,24.7995,0
1.6542,5.035477E-05,24.813,0,1.6542,1.644922E-05,24.813,0
1.6551,0.0001010452,24.8265,0,1.6551,-9.466698E-05,24.8265,0
1.656,-3.860533E-05,24.84,0,1.656,1.107805E-05,24.84,0
1.6569,-2.417029E-05,24.8535,0,1.6569,-4.632639E-05,24.8535,0
1.6578,4.095522E-05,24.867,0,1.6578,-0.0001678492,24.867,0
1.6587,8.69459E-05,24.8805,0,1.6587,-0.000161471,24.8805,0
1.6596,5.539025E-05,24.894,0,1.6596,-0.0001309224,24.894,0
1.6605,9.433127E-05,24.9075,0,1.6605,-0.0001399863,24.9075,0
1.6614,5.874724E-05,24.921,0,1.6614,-0.0001748989,24.921,0
1.6623,2.18204E-05,24.9345,0,1.6623,-0.0002678874,24.9345,0
1.6632,5.069047E-05,24.948,0,1.6632,-0.0001010452,24.948,0
1.6641,4.263371E-05,24.9615,0,1.6641,2.450599E-05,24.9615,0
1.665,6.948959E-05,24.975,0,1.665,5.337606E-05,24.975,0
1.6659,0.0001299153,24.9885,0,1.6659,0.0001164874,24.9885,0
1.6668,-1.644922E-05,25.002,0,1.6668,4.666209E-05,25.002,0
1.6677,-3.256275E-05,25.0155,0,1.6677,-4.129091E-05,25.0155,0
1.6686,9.030289E-05,25.029,0,1.6686,-3.994812E-05,25.029,0
1.6695,-0.0001564355,25.0425,0,1.6695,4.263371E-05,25.0425,0
1.6704,-0.0002423743,25.056,0,1.6704,2.316319E-05,25.056,0
1.6713,-5.069047E-05,25.0695,0,1.6713,1.141375E-05,25.0695,0
1.6722,-4.36408E-06,25.083,0,1.6722,8.291753E-05,25.083,0
1.6731,-0.000164828,25.0965,0,1.6731,9.600977E-05,25.0965,0
1.674,-0.0001054093,25.11,0,1.674,0.0001000381,25.11,0
1.6749,0.000109102,25.1235,0,1.6749,0.000130251,25.1235,0
1.6758,0.0001393149,25.137,0,1.6758,8.358892E-05,25.137,0
1.6767,-4.699779E-06,25.1505,0,1.6767,0.0001080949,25.1505,0
1.6776,-3.356985E-05,25.164,0,1.6776,0.0001473716,25.164,0
1.6785,9.735256E-06,25.1775,0,1.6785,0.0002343175,25.1775,0
1.6794,8.560311E-05,25.191,0,1.6794,0.0001346151,25.191,0
1.6803,7.754635E-05,25.2045,0,1.6803,0.0001654994,25.2045,0
1.6812,-6.243992E-05,25.218,0,1.6812,-7.754635E-05,25.218,0
1.6821,-6.411841E-05,25.2315,0,1.6821,-0.0003511406,25.2315,0
1.683,-0.0001675135,25.245,0,1.683,-0.0002205539,25.245,0
1.6839,-6.982528E-05,25.2585,0,1.6839,-7.016098E-05,25.2585,0
1.6848,7.956054E-05,25.272,0,1.6848,-5.270466E-05,25.272,0
1.6857,-4.229801E-05,25.2855,0,1.6857,-3.491264E-05,25.2855,0
1.6866,-0.0001279011,25.299,0,1.6866,-7.888914E-05,25.299,0
1.6875,-8.69459E-05,25.3125,0,1.6875,-0.0001111162,25.3125,0
1.6884,0.0001044022,25.326,0,1.6884,-7.620356E-05,25.326,0
1.6893,0.000263859,25.3395,0,1.6893,-0.0001010452,25.3395,0
1.6902,3.558404E-05,25.353,0,1.6902,4.129091E-05,25.353,0
1.6911,-0.0001597925,25.3665,0,1.6911,0.0001188373,25.3665,0
1.692,-2.853437E-05,25.38,0,1.692,-4.49836E-05,25.38,0
1.6929,8.795301E-05,25.3935,0,1.6929,-5.706874E-05,25.3935,0
1.6938,-7.351797E-05,25.407,0,1.6938,4.699779E-05,25.407,0
1.6947,-4.766919E-05,25.4205,0,1.6947,3.726253E-05,25.4205,0
1.6956,-7.016098E-05,25.434,0,1.6956,-9.265278E-05,25.434,0
1.6965,-0.0001829557,25.4475,0,1.6965,-6.948959E-05,25.4475,0
1.6974,-0.0001010452,25.461,0,1.6974,-6.076142E-05,25.461,0
1.6983,-9.735256E-06,25.4745,0,1.6983,-0.0001332723,25.4745,0
1.6992,-0.0001117876,25.488,0,1.6992,-8.493171E-05,25.488,0
1.7001,-3.021286E-06,25.5015,0,1.7001,2.21561E-05,25.5015,0
1.701,6.243992E-05,25.515,0,1.701,0.000193698,25.515,0
1.7019,7.721065E-06,25.5285,0,1.7019,0.0001738918,25.5285,0
1.7028,6.57969E-05,25.542,0,1.7028,2.853437E-05,25.542,0
1.7037,-3.793393E-05,25.5555,0,1.7037,9.063859E-06,25.5555,0
1.7046,-0.0001114519,25.569,0,1.7046,-3.692683E-06,25.569,0
1.7055,9.970245E-05,25.5825,0,1.7055,-6.009003E-05,25.5825,0
1.7064,0.0002625162,25.596,0,1.7064,-3.457694E-05,25.596,0
1.7073,2.21561E-05,25.6095,0,1.7073,3.121996E-05,25.6095,0
1.7082,-8.728161E-06,25.623,0,1.7082,-4.599069E-05,25.623,0
1.7091,0.0001537499,25.6365,0,1.7091,-7.351797E-05,25.6365,0
1.71,-1.644922E-05,25.65,0,1.71,1.678492E-06,25.65,0
1.7109,-9.768826E-05,25.6635,0,1.7109,-3.356985E-05,25.6635,0
1.7118,-2.047761E-05,25.677,0,1.7118,-0.0001460288,25.677,0
1.7127,-4.36408E-06,25.6905,0,1.7127,-7.855344E-05,25.6905,0
1.7136,-8.392462E-05,25.704,0,1.7136,9.030289E-05,25.704,0
1.7145,5.069047E-05,25.7175,0,1.7145,0.0001285725,25.7175,0
1.7154,0.0001554284,25.731,0,1.7154,9.030289E-05,25.731,0
1.7163,9.634547E-05,25.7445,0,1.7163,-0.0001537499,25.7445,0
1.7172,-5.706874E-06,25.758,0,1.7172,-7.956054E-05,25.758,0
1.7181,-0.0001490501,25.7715,0,1.7181,-6.54612E-05,25.7715,0
1.719,-9.970245E-05,25.785,0,1.719,-0.0001292439,25.785,0
1.7199,-1.577783E-05,25.7985,0,1.7199,-0.0001292439,25.7985,0
1.7208,-9.332418E-05,25.812,0,1.7208,-1.678492E-06,25.812,0
1.7217,-7.385367E-05,25.8255,0,1.7217,-9.298848E-05,25.8255,0
1.7226,-1.812772E-05,25.839,0,1.7226,-0.0001896696,25.839,0
1.7235,-0.0001299153,25.8525,0,1.7235,-0.0001215228,25.8525,0
1.7244,-0.0001534142,25.866,0,1.7244,-0.0001064164,25.866,0
1.7253,-8.526741E-05,25.8795,0,1.7253,-0.0001769131,25.8795,0
1.7262,-1.678492E-06,25.893,0,1.7262,-0.0001977264,25.893,0
1.7271,-0.0001839628,25.9065,0,1.7271,-0.0001544213,25.9065,0
1.728,-0.0001534142,25.92,0,1.728,-6.478981E-05,25.92,0
1.7289,-1.242084E-05,25.9335,0,1.7289,-8.728161E-06,25.9335,0
1.7298,0.0002118257,25.947,0,1.7298,5.471885E-05,25.947,0
1.7307,0.000119173,25.9605,0,1.7307,0.0001631495,25.9605,0
1.7316,-4.901198E-05,25.974,0,1.7316,0.0001064164,25.974,0
1.7325,-3.021286E-05,25.9875,0,1.7325,0.000109102,25.9875,0
1.7334,4.095522E-05,26.001,0,1.7334,1.678492E-06,26.001,0
1.7343,-0.0001215228,26.0145,0,1.7343,1.309224E-05,26.0145,0
1.7352,-0.0001007095,26.028,0,1.7352,2.383459E-05,26.028,0
1.7361,3.994812E-05,26.0415,0,1.7361,-2.853437E-05,26.0415,0
1.737,-6.57969E-05,26.055,0,1.737,0.0001148089,26.055,0
1.7379,-3.457694E-05,26.0685,0,1.7379,0.000154757,26.0685,0
1.7388,6.076142E-05,26.082,0,1.7388,6.109713E-05,26.082,0
1.7397,1.275654E-05,26.0955,0,1.7397,4.800488E-05,26.0955,0
1.7406,-4.733349E-05,26.109,0,1.7406,8.728161E-06,26.109,0
1.7415,7.586786E-05,26.1225,0,1.7415,-4.800488E-05,26.1225,0
1.7424,3.189136E-05,26.136,0,1.7424,-4.699779E-06,26.136,0
1.7433,4.834058E-05,26.1495,0,1.7433,-0.0001567712,26.1495,0
1.7442,1.846342E-05,26.163,0,1.7442,-5.404745E-05,26.163,0
1.7451,-9.231708E-05,26.1765,0,1.7451,-1.544213E-05,26.1765,0
1.746,-3.356985E-07,26.19,0,1.746,2.618448E-05,26.19,0
1.7469,9.365987E-05,26.2035,0,1.7469,-7.351797E-05,26.2035,0
1.7478,-4.162661E-05,26.217,0,1.7478,-6.848249E-05,26.217,0
1.7487,-5.270466E-05,26.2305,0,1.7487,-6.143282E-05,26.2305,0
1.7496,0.0001017166,26.244,0,1.7496,-2.450599E-05,26.244,0
1.7505,4.934768E-05,26.2575,0,1.7505,0.0001413291,26.2575,0
1.7514,4.229801E-05,26.271,0,1.7514,0.0001319295,26.271,0
1.7523,0.000102388,26.2845,0,1.7523,-2.081331E-05,26.2845,0
1.7532,-6.344701E-05,26.298,0,1.7532,-4.53193E-05,26.298,0
1.7541,-0.0001842985,26.3115,0,1.7541,-5.975433E-05,26.3115,0
1.755,-9.567407E-05,26.325,0,1.755,-8.157473E-05,26.325,0
1.7559,-7.956054E-05,26.3385,0,1.7559,-5.941863E-05,26.3385,0
1.7568,-0.0001007095,26.352,0,1.7568,-0.0001399863,26.352,0
1.7577,0.0001252155,26.3655,0,1.7577,5.001907E-05,26.3655,0
1.7586,0.0002383459,26.379,0,1.7586,6.74754E-05,26.379,0
1.7595,8.82887E-05,26.3925,0,1.7595,-0.0002534524,26.3925,0
1.7604,-6.948959E-05,26.406,0,1.7604,-0.0003028,26.406,0
1.7613,-0.0001211871,26.4195,0,1.7613,-0.0001785916,26.4195,0
1.7622,0.0001530785,26.433,0,1.7622,-0.0001842985,26.433,0
1.7631,0.0003810178,26.4465,0,1.7631,-0.0001601282,26.4465,0
1.764,0.0002611734,26.46,0,1.764,1.812772E-05,26.46,0
1.7649,0.0002145113,26.4735,0,1.7649,0.0002171969,26.4735,0
1.7658,0.0002453956,26.487,0,1.7658,0.0001554284,26.487,0
1.7667,0.0002796368,26.5005,0,1.7667,8.89601E-05,26.5005,0
1.7676,9.903105E-05,26.514,0,1.7676,0.0001265583,26.514,0
1.7685,-1.644922E-05,26.5275,0,1.7685,0.0001769131,26.5275,0
1.7694,-3.659113E-05,26.541,0,1.7694,0.0001138018,26.541,0
1.7703,-5.606165E-05,26.5545,0,1.7703,1.443504E-05,26.5545,0
1.7712,-0.0001641566,26.568,0,1.7712,1.779202E-05,26.568,0
1.7721,-0.0003816892,26.5815,0,1.7721,-2.551309E-05,26.5815,0
1.773,-0.0002309606,26.595,0,1.773,-0.0001111162,26.595,0
1.7739,-9.701686E-05,26.6085,0,1.7739,-0.0001319295,26.6085,0
1.7748,-0.0001406577,26.622,0,1.7748,-2.21561E-05,26.622,0
1.7757,-6.51255E-05,26.6355,0,1.7757,-5.874724E-05,26.6355,0
1.7766,1.107805E-05,26.649,0,1.7766,-0.000115816,26.649,0
1.7775,-0.0002286107,26.6625,0,1.7775,-0.000190341,26.6625,0
1.7784,-0.0001856413,26.676,0,1.7784,3.692683E-05,26.676,0
1.7793,-1.376364E-05,26.6895,0,1.7793,0.0001507286,26.6895,0
1.7802,-0.0001258869,26.703,0,1.7802,0.0001067521,26.703,0
1.7811,-0.0002118257,26.7165,0,1.7811,-2.786297E-05,26.7165,0
1.782,-3.323415E-05,26.73,0,1.782,-8.224613E-05,26.73,0
1.7829,-2.584878E-05,26.7435,0,1.7829,-1.376364E-05,26.7435,0
1.7838,-6.478981E-05,26.757,0,1.7838,-3.793393E-05,26.757,0
1.7847,-1.443504E-05,26.7705,0,1.7847,-3.088426E-05,26.7705,0
1.7856,-4.901198E-05,26.784,0,1.7856,-1.812772E-05,26.784,0
1.7865,-9.634547E-05,26.7975,0,1.7865,-4.263371E-05,26.7975,0
1.7874,-5.774014E-05,26.811,0,1.7874,-6.6804E-05,26.811,0
1.7883,-0.0001027237,26.8245,0,1.7883,1.577783E-05,26.8245,0
1.7892,-0.0001258869,26.838,0,1.7892,2.584878E-05,26.838,0
1.7901,5.203327E-05,26.8515,0,1.7901,5.706874E-06,26.8515,0
1.791,1.007095E-06,26.865,0,1.791,6.78111E-05,26.865,0
1.7919,2.18204E-05,26.8785,0,1.7919,6.210422E-05,26.8785,0
1.7928,8.92958E-05,26.892,0,1.7928,-5.371176E-06,26.892,0
1.7937,-1.947051E-05,26.9055,0,1.7937,-3.021286E-05,26.9055,0
1.7946,-4.49836E-05,26.919,0,1.7946,2.349889E-06,26.919,0
1.7955,-4.867628E-05,26.9325,0,1.7955,-1.107805E-05,26.9325,0
1.7964,-1.409934E-05,26.946,0,1.7964,4.43122E-05,26.946,0
1.7973,5.606165E-05,26.9595,0,1.7973,4.162661E-05,26.9595,0
1.7982,5.438316E-05,26.973,0,1.7982,0.000102388,26.973,0
1.7991,7.620356E-05,26.9865,0,1.7991,0.0001352865,26.9865,0
1.8,7.620356E-05,27,0,1.8,-6.344701E-05,27,0
1.8009,0.0001399863,27.0135,0,1.8009,-2.786297E-05,27.0135,0
1.8018,0.0001816129,27.027,0,1.8018,0.0001258869,27.027,0
1.8027,0.0001087663,27.0405,0,1.8027,-1.913481E-05,27.0405,0
1.8036,2.047761E-05,27.054,0,1.8036,-0.000148043,27.054,0
1.8045,-7.351797E-05,27.0675,0,1.8045,-3.726253E-05,27.0675,0
1.8054,-6.344701E-05,27.081,0,1.8054,-4.36408E-05,27.081,0
1.8063,-2.551309E-05,27.0945,0,1.8063,-9.298848E-05,27.0945,0
1.8072,-8.258183E-05,27.108,0,1.8072,-9.567407E-05,27.108,0
1.8081,-9.903105E-05,27.1215,0,1.8081,-8.728161E-06,27.1215,0
1.809,4.53193E-05,27.135,0,1.809,-2.719158E-05,27.135,0
1.8099,0.0001695277,27.1485,0,1.8099,1.577783E-05,27.1485,0
1.8108,0.0002124971,27.162,0,1.8108,2.450599E-05,27.162,0
1.8117,0.000130251,27.1755,0,1.8117,7.721065E-05,27.1755,0
1.8126,-2.920577E-05,27.189,0,1.8126,0.0001218585,27.189,0
1.8135,2.21561E-05,27.2025,0,1.8135,7.989624E-05,27.2025,0
1.8144,0.0001164874,27.216,0,1.8144,4.095522E-05,27.216,0
1.8153,-6.881819E-05,27.2295,0,1.8153,-1.342794E-06,27.2295,0
1.8162,-3.323415E-05,27.243,0,1.8162,-8.392462E-06,27.243,0
1.8171,0.0001399863,27.2565,0,1.8171,3.793393E-05,27.2565,0
1.818,-1.376364E-05,27.27,0,1.818,5.606165E-05,27.27,0
1.8189,3.356985E-05,27.2835,0,1.8189,-3.692683E-06,27.2835,0
1.8198,0.0001406577,27.297,0,1.8198,-0.0001628138,27.297,0
1.8207,3.424125E-05,27.3105,0,1.8207,-0.0001225299,27.3105,0
