X[s],"Trigno IM sensor 3: EMG 3 (IM)",X[s],"Trigno IM sensor 3: Mag 3.Z (IM)",X[s],"Trigno IM sensor 4: EMG 4 (IM)",X[s],"Trigno IM sensor 4: Mag 4.Z (IM)"
0.000000,-2.719158E-05,0.000000,44,0.000000,-1.007095E-05,0.000000,104
0.0009,-3.860533E-05,0.0135,46,0.0009,4.028382E-06,0.0135,104
0.0018,-4.196231E-05,0.027,45,0.0018,1.174945E-05,0.027,105
0.0027,-5.673304E-05,0.0405,47,0.0027,2.685588E-06,0.0405,107
0.0036,-2.652018E-05,0.054,45,0.0036,-2.047761E-05,0.054,104
0.0045,-2.014191E-05,0.0675,45,0.0045,-2.719158E-05,0.0675,109
0.0054,-3.289845E-05,0.081,45,0.0054,-3.356985E-05,0.081,105
0.0063,-9.735256E-06,0.0945,46,0.0063,-2.584878E-05,0.0945,104
0.0072,7.721065E-06,0.108,46,0.0072,-2.853437E-05,0.108,103
0.0081,-4.666209E-05,0.1215,45,0.0081,-4.46479E-05,0.1215,104
0.009000001,-1.007095E-06,0.135,45,0.009000001,-3.088426E-05,0.135,106
0.0099,5.203327E-05,0.1485,46,0.0099,-2.014191E-06,0.1485,105
0.0108,-5.270466E-05,0.162,44,0.0108,-1.712062E-05,0.162,107
0.0117,-9.903105E-05,0.1755,45,0.0117,2.047761E-05,0.1755,105
0.0126,-4.061952E-05,0.189,45,0.0126,-9.063859E-06,0.189,108
0.0135,-1.980621E-05,0.2025,44,0.0135,-1.779202E-05,0.2025,106
0.0144,3.356985E-07,0.216,45,0.0144,-1.980621E-05,0.216,104
0.0153,-6.713969E-07,0.2295,44,0.0153,-8.728161E-06,0.2295,101
0.0162,4.229801E-05,0.243,45,0.0162,-2.786297E-05,0.243,105
0.0171,-2.484169E-05,0.2565,45,0.0171,-5.706874E-05,0.2565,103
0.018,-2.517739E-05,0.27,44,0.018,-3.994812E-05,0.27,105
0.0189,6.344701E-05,0.2835,44,0.0189,-3.256275E-05,0.2835,106
0.0198,-8.728161E-06,0.297,44,0.0198,-3.088426E-05,0.297,102
0.0207,3.591974E-05,0.3105,44,0.0207,-3.994812E-05,0.3105,104
0.0216,5.841154E-05,0.324,45,0.0216,-4.196231E-05,0.324,106
0.0225,1.812772E-05,0.3375,45,0.0225,-3.558404E-05,0.3375,107
0.0234,0.0001148089,0.351,45,0.0234,-2.21561E-05,0.351,103
0.0243,9.365987E-05,0.3645,45,0.0243,-3.189136E-05,0.3645,103
0.0252,4.196231E-05,0.378,46,0.0252,-4.867628E-05,0.378,108
0.0261,4.129091E-05,0.3915,46,0.0261,-2.18204E-05,0.3915,105
0.027,3.524834E-05,0.405,45,0.027,-1.913481E-05,0.405,106
0.0279,7.183947E-05,0.4185,44,0.0279,-1.644922E-05,0.4185,107
0.0288,3.860533E-05,0.432,45,0.0288,-6.51255E-05,0.432,107
0.0297,2.21561E-05,0.4455,44,0.0297,-4.36408E-06,0.4455,105
0.0306,-7.452507E-05,0.459,46,0.0306,6.378271E-06,0.459,107
0.0315,-5.941863E-05,0.4725,44,0.0315,-3.793393E-05,0.4725,107
0.0324,1.040665E-05,0.486,45,0.0324,-4.800488E-05,0.486,105
0.0333,-6.478981E-05,0.4995,44,0.0333,2.047761E-05,0.4995,106
0.0342,-7.418937E-05,0.513,45,0.0342,-1.678492E-06,0.513,105
0.0351,5.169757E-05,0.5265,46,0.0351,-8.392462E-05,0.5265,109
0.036,1.040665E-05,0.54,45,0.036,2.349889E-05,0.54,104
0.0369,1.644922E-05,0.5535,45,0.0369,1.477073E-05,0.5535,104
0.0378,0.000119173,0.567,45,0.0378,-5.438316E-05,0.567,107
0.0387,8.258183E-05,0.5805,47,0.0387,-1.074235E-05,0.5805,106
0.0396,7.721065E-06,0.594,46,0.0396,2.383459E-05,0.594,103
0.0405,-1.846342E-05,0.6075,46,0.0405,-5.706874E-06,0.6075,107
0.0414,7.385367E-06,0.621,45,0.0414,-1.913481E-05,0.621,107
0.0423,3.793393E-05,0.6345,46,0.0423,-5.807584E-05,0.6345,105
0.0432,-2.719158E-05,0.648,45,0.0432,6.042573E-06,0.648,102
0.0441,-5.740444E-05,0.6615,44,0.0441,2.014191E-05,0.6615,106
0.045,1.040665E-05,0.675,45,0.045,-3.054856E-05,0.675,106
0.0459,-2.719158E-05,0.6885,44,0.0459,-4.061952E-05,0.6885,107
0.0468,-8.157473E-05,0.702,45,0.0468,2.618448E-05,0.702,104
0.0477,3.021286E-06,0.7155,44,0.0477,-1.678492E-06,0.7155,107
0.0486,2.1149E-05,0.729,44,0.0486,-8.392462E-05,0.729,105
0.0495,-7.150377E-05,0.7425,45,0.0495,9.063859E-06,0.7425,106
0.0504,-8.761731E-05,0.756,43,0.0504,1.577783E-05,0.756,104
0.0513,-2.551309E-05,0.7695,45,0.0513,-6.948959E-05,0.7695,102
0.0522,1.107805E-05,0.783,44,0.0522,-9.063859E-06,0.783,106
0.0531,-6.74754E-05,0.7965,43,0.0531,1.040665E-05,0.7965,106
0.054,-2.24918E-05,0.81,45,0.054,9.735256E-06,0.81,105
0.0549,-7.150377E-05,0.8235,42,0.0549,6.713969E-06,0.8235,106
0.0558,-7.385367E-06,0.837,39,0.0558,-5.807584E-05,0.837,106
0.0567,-3.356985E-07,0.8505,41,0.0567,4.36408E-06,0.8505,108
0.0576,-9.802396E-05,0.864,41,0.0576,-1.376364E-05,0.864,104
0.0585,-3.457694E-05,0.8775,40,0.0585,-6.210422E-05,0.8775,108
0.0594,1.913481E-05,0.891,40,0.0594,-6.61326E-05,0.891,102
0.0603,-7.754635E-05,0.9045,41,0.0603,8.728161E-06,0.9045,105
0.0612,-4.263371E-05,0.918,40,0.0612,-2.853437E-05,0.918,102
0.0621,8.89601E-05,0.9315,41,0.0621,-8.157473E-05,0.9315,103
0.063,-1.174945E-05,0.945,43,0.063,1.007095E-05,0.945,104
0.0639,-0.000154757,0.9585,43,0.0639,3.591974E-05,0.9585,103
0.0648,-6.478981E-05,0.972,43,0.0648,-5.304036E-05,0.972,102
0.0657,5.706874E-06,0.9855,44,0.0657,-3.491264E-05,0.9855,104
0.0666,-0.0001084306,0.999,45,0.0666,6.378271E-06,0.999,101
0.0675,-3.323415E-05,1.0125,45,0.0675,-2.383459E-05,1.0125,101
0.0684,-1.040665E-05,1.026,44,0.0684,-3.323415E-05,1.026,102
0.0693,2.383459E-05,1.0395,46,0.0693,-6.814679E-05,1.0395,99
0.0702,4.39765E-05,1.053,47,0.0702,8.056763E-06,1.053,103
0.0711,3.021286E-06,1.0665,46,0.0711,5.706874E-06,1.0665,104
0.072,-4.36408E-05,1.08,44,0.072,-4.29694E-05,1.08,100
0.0729,2.652018E-05,1.0935,44,0.0729,-4.061952E-05,1.0935,104
0.07380001,-5.035477E-05,1.107,44,0.07380001,3.323415E-05,1.107,104
0.07470001,2.014191E-06,1.1205,43,0.07470001,5.706874E-06,1.1205,100
0.0756,7.418937E-05,1.134,42,0.0756,-5.774014E-05,1.134,101
0.0765,-1.477073E-05,1.1475,39,0.0765,1.678492E-05,1.1475,105
0.0774,5.471885E-05,1.161,42,0.0774,1.007095E-06,1.161,105
0.0783,0.0001211871,1.1745,43,0.0783,-7.183947E-05,1.1745,103
0.0792,0.0001044022,1.188,42,0.0792,-3.726253E-05,1.188,100
0.0801,1.510643E-05,1.2015,42,0.0801,-7.385367E-06,1.2015,105
0.081,-1.577783E-05,1.215,42,0.081,-6.378271E-06,1.215,100
0.0819,2.316319E-05,1.2285,41,0.0819,-9.735256E-06,1.2285,103
0.0828,7.754635E-05,1.242,42,0.0828,-5.673304E-05,1.242,104
0.0837,-4.49836E-05,1.2555,40,0.0837,-1.678492E-06,1.2555,105
0.0846,-6.009003E-05,1.269,41,0.0846,1.309224E-05,1.269,103
0.0855,6.009003E-05,1.2825,40,0.0855,-1.510643E-05,1.2825,103
0.0864,3.994812E-05,1.296,40,0.0864,-2.417029E-05,1.296,101
0.0873,-8.258183E-05,1.3095,39,0.0873,5.337606E-05,1.3095,103
0.0882,-9.063859E-06,1.323,40,0.0882,2.719158E-05,1.323,105
0.0891,7.754635E-05,1.3365,39,0.0891,-7.217517E-05,1.3365,101
0.09,-7.620356E-05,1.35,39,0.09,2.652018E-05,1.35,101
0.0909,-8.056764E-05,1.3635,41,0.0909,2.920577E-05,1.3635,101
0.0918,3.390555E-05,1.377,41,0.0918,-6.54612E-05,1.377,103
0.0927,-3.994812E-05,1.3905,40,0.0927,-3.323415E-05,1.3905,103
0.0936,-8.92958E-05,1.404,40,0.0936,2.383459E-05,1.404,104
0.09450001,-3.826963E-05,1.4175,38,0.09450001,3.692683E-06,1.4175,101
0.09540001,-3.054856E-05,1.431,41,0.09540001,-1.779202E-05,1.431,101
0.09630001,1.510643E-05,1.4445,38,0.09630001,-5.069047E-05,1.4445,104
0.0972,2.517739E-05,1.458,39,0.0972,6.713969E-07,1.458,105
0.0981,-4.36408E-05,1.4715,40,0.0981,3.692683E-06,1.4715,101
0.099,-6.143282E-05,1.485,39,0.099,-4.263371E-05,1.485,104
0.0999,-7.721065E-06,1.4985,40,0.0999,-5.035477E-05,1.4985,103
0.1008,-4.129091E-05,1.512,40,0.1008,8.056763E-06,1.512,102
0.1017,-5.673304E-05,1.5255,39,0.1017,-5.706874E-06,1.5255,104
0.1026,8.023193E-05,1.539,39,0.1026,-7.553216E-05,1.539,99
0.1035,-1.040665E-05,1.5525,40,0.1035,1.812772E-05,1.5525,105
0.1044,-9.970245E-05,1.566,38,0.1044,3.860533E-05,1.566,103
0.1053,1.846342E-05,1.5795,39,0.1053,-3.121996E-05,1.5795,103
0.1062,8.291753E-05,1.593,39,0.1062,-1.107805E-05,1.593,105
0.1071,-7.956054E-05,1.6065,39,0.1071,2.21561E-05,1.6065,103
0.108,-4.129091E-05,1.62,40,0.108,-9.063859E-06,1.62,103
0.1089,-1.040665E-05,1.6335,39,0.1089,-2.450599E-05,1.6335,101
0.1098,4.666209E-05,1.647,40,0.1098,-7.620356E-05,1.647,104
0.1107,-4.095522E-05,1.6605,38,0.1107,-2.1149E-05,1.6605,103
0.1116,-4.263371E-05,1.674,39,0.1116,-1.242084E-05,1.674,104
0.1125,1.007095E-06,1.6875,39,0.1125,-5.539025E-05,1.6875,103
0.1134,3.189136E-05,1.701,40,0.1134,-4.733349E-05,1.701,101
0.1143,-9.063859E-06,1.7145,39,0.1143,1.779202E-05,1.7145,103
0.1152,-7.049668E-06,1.728,40,0.1152,-1.913481E-05,1.728,107
0.1161,6.344701E-05,1.7415,39,0.1161,-8.090334E-05,1.7415,102
0.117,3.021286E-06,1.755,39,0.117,9.063859E-06,1.755,106
0.1179,-4.733349E-05,1.7685,39,0.1179,1.712062E-05,1.7685,105
0.1188,-4.666209E-05,1.782,38,0.1188,-6.881819E-05,1.782,104
0.1197,6.6804E-05,1.7955,39,0.1197,-2.014191E-05,1.7955,107
0.1206,3.121996E-05,1.809,39,0.1206,1.107805E-05,1.809,106
0.1215,-1.275654E-05,1.8225,39,0.1215,-1.510643E-05,1.8225,103
0.1224,-6.713969E-07,1.836,39,0.1224,-2.1149E-05,1.836,101
0.1233,8.89601E-05,1.8495,40,0.1233,-5.807584E-05,1.8495,100
0.1242,-1.980621E-05,1.863,39,0.1242,-2.014191E-06,1.863,103
0.1251,-0.0001819486,1.8765,40,0.1251,-2.316319E-05,1.8765,107
0.126,-6.74754E-05,1.89,39,0.126,-6.478981E-05,1.89,105
0.1269,2.014191E-06,1.9035,39,0.1269,-4.061952E-05,1.9035,102
0.1278,-0.0001164874,1.917,39,0.1278,1.678492E-06,1.917,102
0.1287,-4.36408E-05,1.9305,40,0.1287,-2.819867E-05,1.9305,101
0.1296,4.800488E-05,1.944,39,0.1296,-8.224613E-05,1.944,100
0.1305,-4.129091E-05,1.9575,39,0.1305,-3.356985E-07,1.9575,103
0.1314,4.49836E-05,1.971,39,0.1314,2.517739E-05,1.971,100
0.1323,0.0001715419,1.9845,39,0.1323,-4.800488E-05,1.9845,101
0.1332,6.881819E-05,1.998,40,0.1332,-3.189136E-05,1.998,100
0.1341,-3.524834E-05,2.0115,39,0.1341,2.047761E-05,2.0115,104
0.135,1.309224E-05,2.025,40,0.135,-9.399558E-06,2.025,102
0.1359,7.049668E-06,2.0385,39,0.1359,-2.28275E-05,2.0385,103
0.1368,5.035477E-05,2.052,38,0.1368,-6.009003E-05,2.052,100
0.1377,6.277562E-05,2.0655,38,0.1377,-1.376364E-05,2.0655,101
0.1386,-7.922484E-05,2.079,38,0.1386,-2.484169E-05,2.079,101
0.1395,-1.443504E-05,2.0925,39,0.1395,-7.284657E-05,2.0925,102
0.1404,0.0001033951,2.106,39,0.1404,-6.176852E-05,2.106,103
0.1413,-4.43122E-05,2.1195,38,0.1413,1.577783E-05,2.1195,101
0.1422,-3.524834E-05,2.133,38,0.1422,-2.887007E-05,2.133,105
0.1431,9.433127E-05,2.1465,38,0.1431,-8.795301E-05,2.1465,100
0.144,-2.920577E-05,2.16,39,0.144,2.584878E-05,2.16,101
0.1449,-5.236896E-05,2.1735,39,0.1449,1.342794E-05,2.1735,103
0.1458,-9.735256E-06,2.187,40,0.1458,-4.968337E-05,2.187,101
0.1467,-6.042573E-06,2.2005,39,0.1467,3.356985E-06,2.2005,99
0.1476,-9.164568E-05,2.214,39,0.1476,6.6804E-05,2.214,102
0.1485,-4.699779E-05,2.2275,39,0.1485,5.706874E-06,2.2275,100
0.1494,4.39765E-05,2.241,41,0.1494,-5.035477E-06,2.241,105
0.1503,1.779202E-05,2.2545,39,0.1503,-3.189136E-05,2.2545,100
0.1512,-3.793393E-05,2.268,40,0.1512,7.721065E-06,2.268,101
0.1521,-0.0001131304,2.2815,39,0.1521,8.392462E-06,2.2815,101
0.153,-6.74754E-05,2.295,39,0.153,-3.927672E-05,2.295,101
0.1539,-3.860533E-05,2.3085,37,0.1539,-5.270466E-05,2.3085,104
0.1548,-9.768826E-05,2.322,38,0.1548,2.987716E-05,2.322,104
0.1557,-7.553216E-05,2.3355,38,0.1557,-1.007095E-06,2.3355,100
0.1566,4.599069E-05,2.349,39,0.1566,-0.0001037308,2.349,103
0.1575,-1.980621E-05,2.3625,38,0.1575,2.014191E-06,2.3625,106
0.1584,9.097429E-05,2.376,38,0.1584,2.349889E-06,2.376,102
0.1593,0.0001111162,2.3895,39,0.1593,-7.721065E-05,2.3895,105
0.1602,4.263371E-05,2.403,39,0.1602,-3.155566E-05,2.403,105
0.1611,1.879912E-05,2.4165,38,0.1611,-5.706874E-06,2.4165,103
0.162,8.392462E-06,2.43,39,0.162,-6.378271E-06,2.43,102
0.1629,-3.424125E-05,2.4435,38,0.1629,-1.477073E-05,2.4435,101
0.1638,3.121996E-05,2.457,39,0.1638,-6.076142E-05,2.457,102
0.1647,1.577783E-05,2.4705,39,0.1647,3.021286E-06,2.4705,103
0.1656,-0.0001715419,2.484,39,0.1656,1.007095E-06,2.484,104
0.1665,-8.526741E-05,2.4975,37,0.1665,-4.565499E-05,2.4975,105
0.1674,-2.18204E-05,2.511,40,0.1674,-5.136187E-05,2.511,105
0.1683,-8.090334E-05,2.5245,38,0.1683,1.074235E-05,2.5245,106
0.1692,-4.46479E-05,2.538,39,0.1692,-2.18204E-05,2.538,104
0.1701,7.217517E-05,2.5515,38,0.1701,-7.553216E-05,2.5515,107
0.171,-4.162661E-05,2.565,37,0.171,2.618448E-05,2.565,101
0.1719,4.699779E-06,2.5785,38,0.1719,3.356985E-05,2.5785,98
0.1728,0.0001225299,2.592,38,0.1728,-5.975433E-05,2.592,105
0.1737,8.291753E-05,2.6055,38,0.1737,1.040665E-05,2.6055,103
0.1746,-5.404745E-05,2.619,37,0.1746,3.625543E-05,2.619,103
0.1755,1.980621E-05,2.6325,37,0.1755,-2.719158E-05,2.6325,104
0.1764,1.712062E-05,2.646,38,0.1764,-3.155566E-05,2.646,102
0.1773,5.572595E-05,2.6595,38,0.1773,-6.54612E-05,2.6595,103
0.1782,5.203327E-05,2.673,37,0.1782,1.007095E-05,2.673,104
0.1791,-3.659113E-05,2.6865,37,0.1791,-8.392462E-06,2.6865,103
0.18,-2.987716E-05,2.7,37,0.18,-5.337606E-05,2.7,104
0.1809,3.524834E-05,2.7135,36,0.1809,-6.076142E-05,2.7135,103
0.1818,-5.505455E-05,2.727,36,0.1818,1.309224E-05,2.727,107
0.1827,7.721065E-06,2.7405,36,0.1827,2.349889E-06,2.7405,106
0.1836,8.69459E-05,2.754,36,0.1836,-5.539025E-05,2.754,103
0.1845,3.356985E-07,2.7675,37,0.1845,2.081331E-05,2.7675,104
0.1854,-4.33051E-05,2.781,37,0.1854,3.021286E-05,2.781,104
0.1863,4.095522E-05,2.7945,35,0.1863,-3.524834E-05,2.7945,106
0.1872,5.035477E-05,2.808,36,0.1872,-7.721065E-06,2.808,104
0.1881,-6.814679E-05,2.8215,36,0.1881,3.390555E-05,2.8215,104
0.189,-7.217517E-05,2.835,36,0.189,1.342794E-06,2.835,105
0.1899,-2.685588E-06,2.8485,37,0.1899,-6.713969E-07,2.8485,107
0.1908,6.344701E-05,2.862,36,0.1908,-5.136187E-05,2.862,105
0.1917,-6.74754E-05,2.8755,36,0.1917,1.141375E-05,2.8755,105
0.1926,-0.0001809415,2.889,36,0.1926,-1.980621E-05,2.889,104
0.1935,-3.659113E-05,2.9025,35,0.1935,-5.203327E-05,2.9025,107
0.1944,-3.860533E-05,2.916,35,0.1944,-5.236896E-05,2.916,108
0.1953,-9.332418E-05,2.9295,36,0.1953,2.383459E-05,2.9295,104
0.1962,1.712062E-05,2.943,36,0.1962,-8.056763E-06,2.943,103
0.1971,6.143282E-05,2.9565,36,0.1971,-9.433127E-05,2.9565,105
0.198,-4.33051E-05,2.97,38,0.198,-2.349889E-06,2.97,105
0.1989,7.486076E-05,2.9835,38,0.1989,2.584878E-05,2.9835,104
0.1998,0.0001070878,2.997,38,0.1998,-6.51255E-05,2.997,105
0.2007,-8.996719E-05,3.0105,39,0.2007,-4.36408E-06,3.0105,105
0.2016,-8.358892E-05,3.024,39,0.2016,2.652018E-05,3.024,103
0.2025,-3.659113E-05,3.0375,40,0.2025,-6.378271E-06,3.0375,104
0.2034,7.049668E-06,3.051,40,0.2034,-1.577783E-05,3.051,101
0.2043,4.162661E-05,3.0645,39,0.2043,-7.855344E-05,3.0645,107
0.2052,0.0001030594,3.078,39,0.2052,-3.088426E-05,3.078,107
0.2061,-2.618448E-05,3.0915,0,0.2061,-1.678492E-05,3.0915,0
0.207,-3.524834E-05,3.105,0,0.207,-4.632639E-05,3.105,0
0.2079,5.404745E-05,3.1185,0,0.2079,-5.673304E-05,3.1185,0
0.2088,-5.807584E-05,3.132,0,0.2088,-5.035477E-06,3.132,0
0.2097,-6.948959E-05,3.1455,0,0.2097,-4.162661E-05,3.1455,0
0.2106,7.351797E-05,3.159,0,0.2106,-7.620356E-05,3.159,0
0.2115,-4.33051E-05,3.1725,0,0.2115,1.040665E-05,3.1725,0
0.2124,-1.678492E-06,3.186,0,0.2124,3.692683E-06,3.186,0
0.2133,0.0001218585,3.1995,0,0.2133,-6.243992E-05,3.1995,0
0.2142,0.0001077592,3.213,0,0.2142,-3.054856E-05,3.213,0
0.2151,-3.793393E-05,3.2265,0,0.2151,1.141375E-05,3.2265,0
0.216,-2.014191E-06,3.24,0,0.216,1.007095E-06,3.24,0
0.2169,2.1149E-05,3.2535,0,0.2169,-2.853437E-05,3.2535,0
0.2178,3.591974E-05,3.267,0,0.2178,-5.539025E-05,3.267,0
0.2187,-2.987716E-05,3.2805,0,0.2187,5.035477E-06,3.2805,0
0.2196,-0.0001188373,3.294,0,0.2196,3.021286E-05,3.294,0
0.2205,-7.888914E-05,3.3075,0,0.2205,-3.659113E-05,3.3075,0
0.2214,6.378271E-06,3.321,0,0.2214,-5.001907E-05,3.321,0
0.2223,-2.685588E-06,3.3345,0,0.2223,2.786297E-05,3.3345,0
0.2232,-4.699779E-05,3.348,0,0.2232,-6.042573E-06,3.348,0
0.2241,4.53193E-05,3.3615,0,0.2241,-8.96315E-05,3.3615,0
0.225,1.174945E-05,3.375,0,0.225,7.721065E-06,3.375,0
0.2259,-3.356985E-07,3.3885,0,0.2259,3.692683E-06,3.3885,0
0.2268,1.242084E-05,3.402,0,0.2268,-7.821774E-05,3.402,0
0.2277,8.69459E-05,3.4155,0,0.2277,-1.040665E-05,3.4155,0
0.2286,-3.356985E-06,3.429,0,0.2286,1.107805E-05,3.429,0
0.2295,-6.378271E-05,3.4425,0,0.2295,1.007095E-06,3.4425,0
0.2304,-4.36408E-06,3.456,0,0.2304,-1.007095E-06,3.456,0
0.2313,9.533837E-05,3.4695,0,0.2313,-3.826963E-05,3.4695,0
0.2322,-2.349889E-05,3.483,0,0.2322,5.035477E-06,3.483,0
0.2331,-0.000164828,3.4965,0,0.2331,-7.049668E-06,3.4965,0
0.234,-5.539025E-05,3.51,0,0.234,-5.236896E-05,3.51,0
0.2349,-4.36408E-06,3.5235,0,0.2349,-5.001907E-05,3.5235,0
0.2358,-0.0001134661,3.537,0,0.2358,1.913481E-05,3.537,0
0.2367,-6.915389E-05,3.5505,0,0.2367,-1.376364E-05,3.5505,0
0.2376,3.054856E-05,3.564,0,0.2376,-7.284657E-05,3.564,0
0.2385,-3.927672E-05,3.5775,0,0.2385,1.577783E-05,3.5775,0
0.2394,4.229801E-05,3.591,0,0.2394,1.846342E-05,3.591,0
0.2403,0.0001567712,3.6045,0,0.2403,-6.344701E-05,3.6045,0
0.2412,-5.941863E-05,3.618,0,0.2412,-4.36408E-06,3.618,0
0.2421,-0.0001060807,3.6315,0,0.2421,4.53193E-05,3.6315,0
0.243,-7.721065E-06,3.645,0,0.243,1.275654E-05,3.645,0
0.2439,-1.577783E-05,3.6585,0,0.2439,-2.685588E-06,3.6585,0
0.2448,2.786297E-05,3.672,0,0.2448,-4.867628E-05,3.672,0
0.2457,5.270466E-05,3.6855,0,0.2457,1.275654E-05,3.6855,0
0.2466,-6.57969E-05,3.699,0,0.2466,1.107805E-05,3.699,0
0.2475,-5.001907E-05,3.7125,0,0.2475,-5.471885E-05,3.7125,0
0.2484,9.500267E-05,3.726,0,0.2484,-5.069047E-05,3.726,0
0.2493,-6.076142E-05,3.7395,0,0.2493,4.33051E-05,3.7395,0
0.2502,-2.21561E-05,3.753,0,0.2502,1.107805E-05,3.753,0
0.2511,6.54612E-05,3.7665,0,0.2511,-6.109713E-05,3.7665,0
0.252,-9.735256E-06,3.78,0,0.252,3.894102E-05,3.78,0
0.2529,-1.510643E-05,3.7935,0,0.2529,3.289845E-05,3.7935,0
0.2538,2.920577E-05,3.807,0,0.2538,-4.666209E-05,3.807,0
0.2547,0.000112459,3.8205,0,0.2547,-1.040665E-05,3.8205,0
0.2556,-3.793393E-05,3.834,0,0.2556,4.800488E-05,3.834,0
0.2565,-1.846342E-05,3.8475,0,0.2565,3.356985E-07,3.8475,0
0.2574,6.311131E-05,3.861,0,0.2574,-2.853437E-05,3.861,0
0.2583,1.913481E-05,3.8745,0,0.2583,-8.023193E-05,3.8745,0
0.2592,-4.699779E-06,3.888,0,0.2592,-4.263371E-05,3.888,0
0.2601,2.920577E-05,3.9015,0,0.2601,-5.001907E-05,3.9015,0
0.261,1.342794E-06,3.915,0,0.261,-6.948959E-05,3.915,0
0.2619,2.383459E-05,3.9285,0,0.2619,-7.888914E-05,3.9285,0
0.2628,-3.659113E-05,3.942,0,0.2628,6.042573E-06,3.942,0
0.2637,-5.371176E-06,3.9555,0,0.2637,-3.356985E-07,3.9555,0
0.2646,3.088426E-05,3.969,0,0.2646,-8.392462E-05,3.969,0
0.2655,-4.599069E-05,3.9825,0,0.2655,1.040665E-05,3.9825,0
0.2664,-6.009003E-05,3.996,0,0.2664,2.987716E-05,3.996,0
0.2673,-8.92958E-05,4.0095,0,0.2673,-4.666209E-05,4.0095,0
0.2682,-4.733349E-05,4.023,0,0.2682,-4.733349E-05,4.023,0
0.2691,-6.848249E-05,4.0365,0,0.2691,1.174945E-05,4.0365,0
0.27,-9.231708E-05,4.05,0,0.27,-1.678492E-06,4.05,0
0.2709,-6.277562E-05,4.0635,0,0.2709,-1.779202E-05,4.0635,0
0.2718,2.1149E-05,4.077,0,0.2718,-7.855344E-05,4.077,0
0.2727,4.36408E-06,4.0905,0,0.2727,-5.035477E-06,4.0905,0
0.2736,-7.553216E-05,4.104,0,0.2736,1.208515E-05,4.104,0
0.2745,-4.36408E-05,4.1175,0,0.2745,-3.155566E-05,4.1175,0
0.2754,9.500267E-05,4.131,0,0.2754,-1.947051E-05,4.131,0
0.2763,-5.102617E-05,4.1445,0,0.2763,2.853437E-05,4.1445,0
0.2772,-8.392462E-06,4.158,0,0.2772,1.107805E-05,4.158,0
0.2781,7.486076E-05,4.1715,0,0.2781,-5.471885E-05,4.1715,0
0.279,-2.18204E-05,4.185,0,0.279,2.450599E-05,4.185,0
0.2799,0.0001003738,4.1985,0,0.2799,4.33051E-05,4.1985,0
0.2808,0.0001322652,4.212,0,0.2808,-5.572595E-05,4.212,0
0.2817,-5.975433E-05,4.2255,0,0.2817,-1.678492E-06,4.2255,0
0.2826,-8.023193E-05,4.239,0,0.2826,5.001907E-05,4.239,0
0.2835,-1.678492E-06,4.2525,0,0.2835,-8.728161E-06,4.2525,0
0.2844,-5.606165E-05,4.266,0,0.2844,-1.779202E-05,4.266,0
0.2853,2.652018E-05,4.2795,0,0.2853,-5.740444E-05,4.2795,0
0.2862,3.927672E-05,4.293,0,0.2862,-5.035477E-06,4.293,0
0.2871,-1.644922E-05,4.3065,0,0.2871,1.544213E-05,4.3065,0
0.288,-4.834058E-05,4.32,0,0.288,-4.934768E-05,4.32,0
0.2889,5.035477E-06,4.3335,0,0.2889,-6.378271E-05,4.3335,0
0.2898,-6.344701E-05,4.347,0,0.2898,1.309224E-05,4.347,0
0.2907,-6.378271E-05,4.3605,0,0.2907,-1.141375E-05,4.3605,0
0.2916,4.39765E-05,4.374,0,0.2916,-6.78111E-05,4.374,0
0.2925,-9.399558E-06,4.3875,0,0.2925,-3.021286E-06,4.3875,0
0.2934,1.040665E-05,4.401,0,0.2934,-1.107805E-05,4.401,0
0.2943,7.821774E-05,4.4145,0,0.2943,-7.116808E-05,4.4145,0
0.2952,-1.812772E-05,4.428,0,0.2952,-3.054856E-05,4.428,0
0.2961,-0.0001131304,4.4415,0,0.2961,2.349889E-06,4.4415,0
0.297,-3.659113E-05,4.455,0,0.297,-3.054856E-05,4.455,0
0.2979,-5.035477E-06,4.4685,0,0.2979,-4.39765E-05,4.4685,0
0.2988,1.443504E-05,4.482,0,0.2988,-8.89601E-05,4.482,0
0.2997,2.383459E-05,4.4955,0,0.2997,-3.424125E-05,4.4955,0
0.3006,4.901198E-05,4.509,0,0.3006,-2.18204E-05,4.509,0
0.3015,8.69459E-05,4.5225,0,0.3015,-6.243992E-05,4.5225,0
0.3024,5.706874E-05,4.536,0,0.3024,-5.270466E-05,4.536,0
0.3033,-1.913481E-05,4.5495,0,0.3033,4.095522E-05,4.5495,0
0.3042,6.210422E-05,4.563,0,0.3042,-4.36408E-06,4.563,0
0.3051,5.774014E-05,4.5765,0,0.3051,-6.176852E-05,4.5765,0
0.306,-2.719158E-05,4.59,0,0.306,2.417029E-05,4.59,0
0.3069,-6.210422E-05,4.6035,0,0.3069,1.174945E-05,4.6035,0
0.3078,-4.934768E-05,4.617,0,0.3078,-5.539025E-05,4.617,0
0.3087,-6.109713E-05,4.6305,0,0.3087,-4.36408E-06,4.6305,0
0.3096,-0.0001211871,4.644,0,0.3096,2.954147E-05,4.644,0
0.3105,-9.567407E-05,4.6575,0,0.3105,-1.846342E-05,4.6575,0
0.3114,-5.740444E-05,4.671,0,0.3114,-2.685588E-06,4.671,0
0.3123,7.049668E-06,4.6845,0,0.3123,-5.941863E-05,4.6845,0
0.3132,7.016098E-05,4.698,0,0.3132,-9.399558E-06,4.698,0
0.3141,-7.888914E-05,4.7115,0,0.3141,2.1149E-05,4.7115,0
0.315,-3.961242E-05,4.725,0,0.315,-2.719158E-05,4.725,0
0.3159,5.673304E-05,4.7385,0,0.3159,-5.035477E-05,4.7385,0
0.3168,-5.740444E-05,4.752,0,0.3168,6.378271E-06,4.752,0
0.3177,-5.471885E-05,4.7655,0,0.3177,-1.544213E-05,4.7655,0
0.3186,6.74754E-05,4.779,0,0.3186,-7.721065E-05,4.779,0
0.3195,-3.961242E-05,4.7925,0,0.3195,-8.392462E-06,4.7925,0
0.3204,-3.692683E-06,4.806,0,0.3204,-6.378271E-06,4.806,0
0.3213,5.706874E-05,4.8195,0,0.3213,-9.198138E-05,4.8195,0
0.3222,6.713969E-07,4.833,0,0.3222,-5.404745E-05,4.833,0
0.3231,-4.632639E-05,4.8465,0,0.3231,2.316319E-05,4.8465,0
0.324,-1.443504E-05,4.86,0,0.324,-9.063859E-06,4.86,0
0.3249,4.39765E-05,4.8735,0,0.3249,-3.390555E-05,4.8735,0
0.3258,4.800488E-05,4.887,0,0.3258,-5.975433E-05,4.887,0
0.3267,2.752728E-05,4.9005,0,0.3267,9.735256E-06,4.9005,0
0.3276,5.539025E-05,4.914,0,0.3276,2.920577E-05,4.914,0
0.3285,2.450599E-05,4.9275,0,0.3285,-3.793393E-05,4.9275,0
0.3294,3.826963E-05,4.941,0,0.3294,-2.853437E-05,4.941,0
0.3303,2.517739E-05,4.9545,0,0.3303,6.54612E-05,4.9545,0
0.3312,-5.136187E-05,4.968,0,0.3312,1.678492E-05,4.968,0
0.3321,4.263371E-05,4.9815,0,0.3321,-5.807584E-05,4.9815,0
0.333,2.1149E-05,4.995,0,0.333,3.994812E-05,4.995,0
0.3339,-7.486076E-05,5.0085,0,0.3339,5.035477E-05,5.0085,0
0.3348,-2.316319E-05,5.022,0,0.3348,-4.39765E-05,5.022,0
0.3357,-6.948959E-05,5.0355,0,0.3357,2.1149E-05,5.0355,0
0.3366,-0.0001027237,5.049,0,0.3366,3.256275E-05,5.049,0
0.3375,-0.0001127947,5.0625,0,0.3375,-1.309224E-05,5.0625,0
0.3384,-5.404745E-05,5.076,0,0.3384,-2.316319E-05,5.076,0
0.3393,5.572595E-05,5.0895,0,0.3393,-5.404745E-05,5.0895,0
0.3402,-3.692683E-06,5.103,0,0.3402,-1.409934E-05,5.103,0
0.3411,-4.565499E-05,5.1165,0,0.3411,-1.107805E-05,5.1165,0
0.342,1.040665E-05,5.13,0,0.342,-5.740444E-05,5.13,0
0.3429,3.591974E-05,5.1435,0,0.3429,-6.74754E-05,5.1435,0
0.3438,-4.766919E-05,5.157,0,0.3438,-6.713969E-07,5.157,0
0.3447,-2.24918E-05,5.1705,0,0.3447,-2.954147E-05,5.1705,0
0.3456,5.841154E-05,5.184,0,0.3456,-9.063859E-05,5.184,0
0.3465,-1.947051E-05,5.1975,0,0.3465,1.678492E-06,5.1975,0
0.3474,3.021286E-06,5.211,0,0.3474,-4.36408E-06,5.211,0
0.3483,0.0001070878,5.2245,0,0.3483,-9.600977E-05,5.2245,0
0.3492,7.922484E-05,5.238,0,0.3492,-5.001907E-05,5.238,0
0.3501,-2.987716E-05,5.2515,0,0.3501,-9.399558E-06,5.2515,0
0.351,3.625543E-05,5.265,0,0.351,-3.793393E-05,5.265,0
0.3519,1.141375E-05,5.2785,0,0.3519,-3.860533E-05,5.2785,0
0.3528,4.263371E-05,5.292,0,0.3528,-7.989624E-05,5.292,0
0.3537,6.713969E-07,5.3055,0,0.3537,-7.721065E-06,5.3055,0
0.3546,-6.243992E-05,5.319,0,0.3546,3.121996E-05,5.319,0
0.3555,-4.028382E-06,5.3325,0,0.3555,-2.752728E-05,5.3325,0
0.3564,5.438316E-05,5.346,0,0.3564,-3.457694E-05,5.346,0
0.3573,-0.0001131304,5.3595,0,0.3573,2.719158E-05,5.3595,0
0.3582,-4.867628E-05,5.373,0,0.3582,-5.706874E-06,5.373,0
0.3591,5.740444E-05,5.3865,0,0.3591,-7.217517E-05,5.3865,0
0.36,-3.356985E-07,5.4,0,0.36,4.36408E-06,5.4,0
0.3609,-3.424125E-05,5.4135,0,0.3609,-1.040665E-05,5.4135,0
0.3618,5.471885E-05,5.427,0,0.3618,-8.358892E-05,5.427,0
0.3627,5.404745E-05,5.4405,0,0.3627,-3.994812E-05,5.4405,0
0.3636,-6.143282E-05,5.454,0,0.3636,5.371176E-06,5.454,0
0.3645,-2.786297E-05,5.4675,0,0.3645,-2.316319E-05,5.4675,0
0.3654,6.713969E-06,5.481,0,0.3654,-1.712062E-05,5.481,0
0.3663,-4.061952E-05,5.4945,0,0.3663,-5.337606E-05,5.4945,0
0.3672,-4.968337E-05,5.508,0,0.3672,-1.443504E-05,5.508,0
0.3681,-1.174945E-05,5.5215,0,0.3681,-1.980621E-05,5.5215,0
0.369,-4.46479E-05,5.535,0,0.369,-5.270466E-05,5.535,0
0.3699,-3.356985E-07,5.5485,0,0.3699,-5.807584E-05,5.5485,0
0.3708,-1.678492E-05,5.562,0,0.3708,2.786297E-05,5.562,0
0.3717,-2.887007E-05,5.5755,0,0.3717,-7.049668E-06,5.5755,0
0.3726,2.484169E-05,5.589,0,0.3726,-8.69459E-05,5.589,0
0.3735,-3.323415E-05,5.6025,0,0.3735,2.517739E-05,5.6025,0
0.3744,-2.719158E-05,5.616,0,0.3744,2.18204E-05,5.616,0
0.3753,-3.021286E-05,5.6295,0,0.3753,-4.49836E-05,5.6295,0
0.3762,-9.735256E-05,5.643,0,0.3762,1.007095E-05,5.643,0
0.3771,-9.265278E-05,5.6565,0,0.3771,3.793393E-05,5.6565,0
0.378,-8.627451E-05,5.67,0,0.378,9.735256E-06,5.67,0
0.3789,-3.390555E-05,5.6835,0,0.3789,-8.728161E-06,5.6835,0
0.3798,2.1149E-05,5.697,0,0.3798,-4.834058E-05,5.697,0
0.3807,2.21561E-05,5.7105,0,0.3807,6.042573E-06,5.7105,0
0.3816,-5.539025E-05,5.724,0,0.3816,-7.049668E-06,5.724,0
0.3825,-2.887007E-05,5.7375,0,0.3825,-4.766919E-05,5.7375,0
0.3834,4.49836E-05,5.751,0,0.3834,-9.063859E-06,5.751,0
0.3843,-0.0001010452,5.7645,0,0.3843,2.752728E-05,5.7645,0
0.3852,-2.450599E-05,5.778,0,0.3852,3.692683E-06,5.778,0
0.3861,0.0001352865,5.7915,0,0.3861,-5.941863E-05,5.7915,0
0.387,-1.712062E-05,5.805,0,0.387,1.409934E-05,5.805,0
0.3879,2.853437E-05,5.8185,0,0.3879,3.692683E-05,5.8185,0
0.3888,6.64683E-05,5.832,0,0.3888,-4.49836E-05,5.832,0
0.3897,0.000115816,5.8455,0,0.3897,-2.349889E-06,5.8455,0
0.3906,2.450599E-05,5.859,0,0.3906,5.001907E-05,5.859,0
0.3915,3.457694E-05,5.8725,0,0.3915,-6.713969E-07,5.8725,0
0.3924,-2.450599E-05,5.886,0,0.3924,-3.021286E-06,5.886,0
0.3933,2.920577E-05,5.8995,0,0.3933,-3.759823E-05,5.8995,0
0.3942,-8.392462E-06,5.913,0,0.3942,1.644922E-05,5.913,0
0.3951,-8.392462E-06,5.9265,0,0.3951,7.049668E-06,5.9265,0
0.396,-1.040665E-05,5.94,0,0.396,-6.311131E-05,5.94,0
0.3969,4.867628E-05,5.9535,0,0.3969,-8.023193E-05,5.9535,0
0.3978,-3.121996E-05,5.967,0,0.3978,1.040665E-05,5.967,0
0.3987,-2.450599E-05,5.9805,0,0.3987,-1.913481E-05,5.9805,0
0.3996,0.0001188373,5.994,0,0.3996,-8.92958E-05,5.994,0
0.4005,1.577783E-05,6.0075,0,0.4005,1.007095E-06,6.0075,0
0.4014,-7.553216E-05,6.021,0,0.4014,1.242084E-05,6.021,0
0.4023,1.007095E-06,6.0345,0,0.4023,-4.095522E-05,6.0345,0
0.4032,-6.6804E-05,6.048,0,0.4032,4.028382E-06,6.048,0
0.4041,-0.000158114,6.0615,0,0.4041,3.826963E-05,6.0615,0
0.405,-6.478981E-05,6.075,0,0.405,-1.678492E-06,6.075,0
0.4059,3.021286E-06,6.0885,0,0.4059,-2.786297E-05,6.0885,0
0.4068,1.309224E-05,6.102,0,0.4068,-5.539025E-05,6.102,0
0.4077,2.987716E-05,6.1155,0,0.4077,-6.042573E-06,6.1155,0
0.4086,8.258183E-05,6.129,0,0.4086,-3.961242E-05,6.129,0
0.4095,3.927672E-05,6.1425,0,0.4095,-7.284657E-05,6.1425,0
0.4104,1.040665E-05,6.156,0,0.4104,-5.807584E-05,6.156,0
0.4113,-5.639734E-05,6.1695,0,0.4113,2.24918E-05,6.1695,0
0.4122,2.685588E-06,6.183,0,0.4122,-1.275654E-05,6.183,0
0.4131,4.934768E-05,6.1965,0,0.4131,-8.761731E-05,6.1965,0
0.414,-2.786297E-05,6.21,0,0.414,1.040665E-05,6.21,0
0.4149,-4.129091E-05,6.2235,0,0.4149,2.652018E-05,6.2235,0
0.4158,3.289845E-05,6.237,0,0.4158,-5.606165E-05,6.237,0
0.4167,9.735256E-06,6.2505,0,0.4167,-2.316319E-05,6.2505,0
0.4176,-1.678492E-05,6.264,0,0.4176,2.920577E-05,6.264,0
0.4185,-6.378271E-06,6.2775,0,0.4185,-8.728161E-06,6.2775,0
0.4194,-3.659113E-05,6.291,0,0.4194,-2.18204E-05,6.291,0
0.4203,4.061952E-05,6.3045,0,0.4203,-7.888914E-05,6.3045,0
0.4212,-2.887007E-05,6.318,0,0.4212,-1.644922E-05,6.318,0
0.4221,-0.0001554284,6.3315,0,0.4221,-9.063859E-06,6.3315,0
0.423,-5.706874E-06,6.345,0,0.423,-4.834058E-05,6.345,0
0.4239,-1.007095E-06,6.3585,0,0.4239,-6.311131E-05,6.3585,0
0.4248,-7.553216E-05,6.372,0,0.4248,1.074235E-05,6.372,0
0.4257,1.141375E-05,6.3855,0,0.4257,-2.18204E-05,6.3855,0
0.4266,5.539025E-05,6.399,0,0.4266,-9.634547E-05,6.399,0
0.4275,-9.030289E-05,6.4125,0,0.4275,-2.517739E-05,6.4125,0
0.4284,-2.920577E-05,6.426,0,0.4284,-1.812772E-05,6.426,0
0.4293,3.692683E-05,6.4395,0,0.4293,-8.090334E-05,6.4395,0
0.4302,0.0001185016,6.453,0,0.4302,-2.618448E-05,6.453,0
0.4311,-3.860533E-05,6.4665,0,0.4311,2.752728E-05,6.4665,0
0.432,1.678492E-06,6.48,0,0.432,-6.378271E-06,6.48,0
0.4329,1.040665E-05,6.4935,0,0.4329,-1.846342E-05,6.4935,0
0.4338,5.337606E-05,6.507,0,0.4338,-5.270466E-05,6.507,0
0.4347,5.471885E-05,6.5205,0,0.4347,1.208515E-05,6.5205,0
0.4356,-0.0001238727,6.534,0,0.4356,1.980621E-05,6.534,0
0.4365,-8.493171E-05,6.5475,0,0.4365,-3.759823E-05,6.5475,0
0.4374,2.1149E-05,6.561,0,0.4374,-3.189136E-05,6.561,0
0.4383,-5.673304E-05,6.5745,0,0.4383,5.471885E-05,6.5745,0
0.4392,-6.478981E-05,6.588,0,0.4392,9.063859E-06,6.588,0
0.4401,7.217517E-05,6.6015,0,0.4401,-5.337606E-05,6.6015,0
0.441,-1.913481E-05,6.615,0,0.441,3.121996E-05,6.615,0
0.4419,5.035477E-06,6.6285,0,0.4419,1.846342E-05,6.6285,0
0.4428,7.284657E-05,6.642,0,0.4428,-7.150377E-05,6.642,0
0.4437,0.0001735561,6.6555,0,0.4437,-1.510643E-05,6.6555,0
0.4446,4.699779E-06,6.669,0,0.4446,2.047761E-05,6.669,0
0.4455,-3.289845E-05,6.6825,0,0.4455,-3.021286E-06,6.6825,0
0.4464,3.121996E-05,6.696,0,0.4464,-2.18204E-05,6.696,0
0.4473,6.948959E-05,6.7095,0,0.4473,-4.49836E-05,6.7095,0
0.4482,-3.390555E-05,6.723,0,0.4482,1.208515E-05,6.723,0
0.4491,-6.109713E-05,6.7365,0,0.4491,2.047761E-05,6.7365,0
0.45,7.385367E-06,6.75,0,0.45,-2.719158E-05,6.75,0
0.4509,-2.719158E-05,6.7635,0,0.4509,-3.424125E-05,6.7635,0
0.4518,-6.61326E-05,6.777,0,0.4518,1.577783E-05,6.777,0
0.4527,-2.819867E-05,6.7905,0,0.4527,-7.721065E-06,6.7905,0
0.4536,4.129091E-05,6.804,0,0.4536,-7.217517E-05,6.804,0
0.4545,-4.196231E-05,6.8175,0,0.4545,-1.275654E-05,6.8175,0
0.4554,-4.800488E-05,6.831,0,0.4554,2.584878E-05,6.831,0
0.4563,4.229801E-05,6.8445,0,0.4563,-6.143282E-05,6.8445,0
0.4572,-0.0001242084,6.858,0,0.4572,-1.846342E-05,6.858,0
0.4581,-0.0001242084,6.8715,0,0.4581,2.450599E-05,6.8715,0
0.459,-3.021286E-05,6.885,0,0.459,-5.706874E-06,6.885,0
0.4599,-5.203327E-05,6.8985,0,0.4599,-2.719158E-05,6.8985,0
0.4608,3.054856E-05,6.912,0,0.4608,-7.116808E-05,6.912,0
0.4617,5.337606E-05,6.9255,0,0.4617,6.042573E-06,6.9255,0
0.4626,-3.860533E-05,6.939,0,0.4626,-9.063859E-06,6.939,0
0.4635,2.014191E-06,6.9525,0,0.4635,-7.452507E-05,6.9525,0
0.4644,5.539025E-05,6.966,0,0.4644,-6.277562E-05,6.966,0
0.4653,-0.0001010452,6.9795,0,0.4653,3.390555E-05,6.9795,0
0.4662,-5.941863E-05,6.993,0,0.4662,-6.378271E-06,6.993,0
0.4671,4.39765E-05,7.0065,0,0.4671,-5.035477E-05,7.0065,0
0.468,-3.356985E-06,7.02,0,0.468,9.735256E-06,7.02,0
0.4689,1.544213E-05,7.0335,0,0.4689,2.551309E-05,7.0335,0
0.4698,0.0001044022,7.047,0,0.4698,-5.438316E-05,7.047,0
0.4707,-3.189136E-05,7.0605,0,0.4707,-5.169757E-05,7.0605,0
0.4716,-8.526741E-05,7.074,0,0.4716,-5.035477E-06,7.074,0
0.4725,1.812772E-05,7.0875,0,0.4725,-2.719158E-05,7.0875,0
0.4734,-4.36408E-06,7.101,0,0.4734,-1.644922E-05,7.101,0
0.4743,1.577783E-05,7.1145,0,0.4743,-3.659113E-05,7.1145,0
0.4752,5.337606E-05,7.128,0,0.4752,3.692683E-06,7.128,0
0.4761,8.661021E-05,7.1415,0,0.4761,0,7.1415,0
0.477,-3.356985E-07,7.155,0,0.477,-5.371176E-05,7.155,0
0.4779,5.203327E-05,7.1685,0,0.4779,-6.076142E-05,7.1685,0
0.4788,3.961242E-05,7.182,0,0.4788,3.625543E-05,7.182,0
0.4797,-2.719158E-05,7.1955,0,0.4797,-1.342794E-06,7.1955,0
0.4806,6.143282E-05,7.209,0,0.4806,-9.835965E-05,7.209,0
0.4815,1.846342E-05,7.2225,0,0.4815,-6.713969E-07,7.2225,0
0.4824,-9.970245E-05,7.236,0,0.4824,3.994812E-05,7.236,0
0.4833,-9.298848E-05,7.2495,0,0.4833,-3.256275E-05,7.2495,0
0.4842,-4.46479E-05,7.263,0,0.4842,-2.685588E-05,7.263,0
0.4851,-0.0001097734,7.2765,0,0.4851,1.980621E-05,7.2765,0
0.486,-9.533837E-05,7.29,0,0.486,1.007095E-06,7.29,0
0.4869,-3.390555E-05,7.3035,0,0.4869,-2.1149E-05,7.3035,0
0.4878,1.242084E-05,7.317,0,0.4878,-7.855344E-05,7.317,0
0.4887,2.1149E-05,7.3305,0,0.4887,8.392462E-06,7.3305,0
0.4896,3.054856E-05,7.344,0,0.4896,-4.028382E-06,7.344,0
0.4905,8.090334E-05,7.3575,0,0.4905,-6.478981E-05,7.3575,0
0.4914,6.74754E-05,7.371,0,0.4914,-5.807584E-05,7.371,0
0.4923,-7.922484E-05,7.3845,0,0.4923,7.385367E-06,7.3845,0
0.4932,-2.719158E-05,7.398,0,0.4932,-2.484169E-05,7.398,0
0.4941,7.653925E-05,7.4115,0,0.4941,-7.989624E-05,7.4115,0
0.495,-7.217517E-05,7.425,0,0.495,3.323415E-05,7.425,0
0.4959,-3.994812E-05,7.4385,0,0.4959,3.155566E-05,7.4385,0
0.4968,3.961242E-05,7.452,0,0.4968,-6.311131E-05,7.452,0
0.4977,2.28275E-05,7.4655,0,0.4977,-2.517739E-05,7.4655,0
0.4986,-1.107805E-05,7.479,0,0.4986,2.24918E-05,7.479,0
0.4995,-2.920577E-05,7.4925,0,0.4995,-1.309224E-05,7.4925,0
0.5004,-4.39765E-05,7.506,0,0.5004,-1.712062E-05,7.506,0
0.5013,3.323415E-05,7.5195,0,0.5013,-4.229801E-05,7.5195,0
0.5022,-1.376364E-05,7.533,0,0.5022,1.409934E-05,7.533,0
0.5031,-4.33051E-05,7.5465,0,0.5031,2.1149E-05,7.5465,0
0.504,-3.256275E-05,7.56,0,0.504,-4.263371E-05,7.56,0
0.5049,1.712062E-05,7.5735,0,0.5049,-5.337606E-05,7.5735,0
0.5058,-6.378271E-05,7.587,0,0.5058,1.879912E-05,7.587,0
0.5067,-2.316319E-05,7.6005,0,0.5067,6.042573E-06,7.6005,0
0.5076,0.0001178302,7.614,0,0.5076,-6.54612E-05,7.614,0
0.5085,-1.812772E-05,7.6275,0,0.5085,2.081331E-05,7.6275,0
0.5094,-5.740444E-05,7.641,0,0.5094,3.961242E-05,7.641,0
0.5103,2.1149E-05,7.6545,0,0.5103,-3.054856E-05,7.6545,0
0.5112,-7.989624E-05,7.668,0,0.5112,-4.36408E-06,7.668,0
0.5121,-0.0001587854,7.6815,0,0.5121,2.954147E-05,7.6815,0
0.513,-6.478981E-05,7.695,0,0.513,3.692683E-06,7.695,0
0.5139,7.049668E-06,7.7085,0,0.5139,-2.349889E-05,7.7085,0
0.5148,-2.517739E-05,7.722,0,0.5148,-4.162661E-05,7.722,0
0.5157,1.980621E-05,7.7355,0,0.5157,1.477073E-05,7.7355,0
0.5166,0.0001131304,7.749,0,0.5166,3.625543E-05,7.749,0
0.5175,5.169757E-05,7.7625,0,0.5175,-6.378271E-06,7.7625,0
0.5184,6.109713E-05,7.776,0,0.5184,-3.524834E-05,7.776,0
0.5193,-5.035477E-06,7.7895,0,0.5193,3.491264E-05,7.7895,0
0.5202,-9.063859E-06,7.803,0,0.5202,-8.728161E-06,7.803,0
0.5211,5.069047E-05,7.8165,0,0.5211,-7.721065E-05,7.8165,0
0.522,-9.399558E-06,7.83,0,0.522,1.309224E-05,7.83,0
0.5229,-5.572595E-05,7.8435,0,0.5229,-1.007095E-06,7.8435,0
0.5238,1.477073E-05,7.857,0,0.5238,-7.016098E-05,7.857,0
0.5247,-6.6804E-05,7.8705,0,0.5247,-6.277562E-05,7.8705,0
0.5256,-4.196231E-05,7.884,0,0.5256,-1.242084E-05,7.884,0
0.5265,-5.270466E-05,7.8975,0,0.5265,-4.196231E-05,7.8975,0
0.5274,-3.860533E-05,7.911,0,0.5274,-4.53193E-05,7.911,0
0.5283,3.121996E-05,7.9245,0,0.5283,-9.130999E-05,7.9245,0
0.5292,3.021286E-05,7.938,0,0.5292,-9.735256E-06,7.938,0
0.5301,1.779202E-05,7.9515,0,0.5301,2.987716E-05,7.9515,0
0.531,3.860533E-05,7.965,0,0.531,-7.049668E-06,7.965,0
0.5319,4.699779E-05,7.9785,0,0.5319,-4.632639E-05,7.9785,0
0.5328,-3.692683E-05,7.992,0,0.5328,2.047761E-05,7.992,0
0.5337,4.263371E-05,8.0055,0,0.5337,-1.107805E-05,8.0055,0
0.5346,7.284657E-05,8.019,0,0.5346,-8.92958E-05,8.019,0
0.5355,-3.625543E-05,8.0325,0,0.5355,-1.712062E-05,8.0325,0
0.5364,-7.553216E-05,8.046,0,0.5364,-3.424125E-05,8.046,0
0.5373,-2.047761E-05,8.0595,0,0.5373,-9.164568E-05,8.0595,0
0.5382,-1.947051E-05,8.073,0,0.5382,-3.457694E-05,8.073,0
0.5391,-0.0001319295,8.0865,0,0.5391,3.457694E-05,8.0865,0
0.54,-4.43122E-05,8.1,0,0.54,-1.376364E-05,8.1,0
0.5409,-2.21561E-05,8.1135,0,0.5409,-3.424125E-05,8.1135,0
0.5418,3.524834E-05,8.127,0,0.5418,-6.948959E-05,8.127,0
0.5427,0.0001037308,8.1405,0,0.5427,-2.316319E-05,8.1405,0
0.5436,4.766919E-05,8.154,0,0.5436,-2.517739E-05,8.154,0
0.5445,3.625543E-05,8.1675,0,0.5445,-5.874724E-05,8.1675,0
0.5454,0.0001188373,8.181,0,0.5454,-7.351797E-05,8.181,0
0.5463,-2.450599E-05,8.1945,0,0.5463,3.692683E-06,8.1945,0
0.5472,-4.129091E-05,8.208,0,0.5472,-3.021286E-05,8.208,0
0.5481,8.157473E-05,8.2215,0,0.5481,-8.123904E-05,8.2215,0
0.549,4.36408E-06,8.235,0,0.549,9.399558E-06,8.235,0
0.5499,-0.0001473716,8.2485,0,0.5499,1.678492E-06,8.2485,0
0.5508,-6.881819E-05,8.262,0,0.5508,-4.733349E-05,8.262,0
0.5517,1.846342E-05,8.2755,0,0.5517,-1.242084E-05,8.2755,0
0.5526,-0.0001467002,8.289,0,0.5526,2.1149E-05,8.289,0
0.5535,-7.553216E-05,8.3025,0,0.5535,3.356985E-06,8.3025,0
0.5544,9.735256E-06,8.316,0,0.5544,-1.678492E-05,8.316,0
0.5553,2.517739E-05,8.3295,0,0.5553,-4.229801E-05,8.3295,0
0.5562,1.007095E-05,8.343,0,0.5562,3.356985E-06,8.343,0
0.5571,-2.987716E-05,8.3565,0,0.5571,-3.390555E-05,8.3565,0
0.558,-4.36408E-05,8.37,0,0.558,-6.411841E-05,8.37,0
0.5589,1.107805E-05,8.3835,0,0.5589,-6.6804E-05,8.3835,0
0.5598,-4.733349E-05,8.397,0,0.5598,5.706874E-06,8.397,0
0.5607,2.18204E-05,8.4105,0,0.5607,-1.174945E-05,8.4105,0
0.5616,6.344701E-05,8.424,0,0.5616,-6.948959E-05,8.424,0
0.5625,-1.174945E-05,8.4375,0,0.5625,1.644922E-05,8.4375,0
0.5634,2.920577E-05,8.451,0,0.5634,2.24918E-05,8.451,0
0.5643,4.934768E-05,8.4645,0,0.5643,-5.471885E-05,8.4645,0
0.5652,4.53193E-05,8.478,0,0.5652,1.376364E-05,8.478,0
0.5661,-4.39765E-05,8.4915,0,0.5661,5.774014E-05,8.4915,0
0.567,-7.855344E-05,8.505,0,0.567,2.920577E-05,8.505,0
0.5679,-2.484169E-05,8.5185,0,0.5679,1.007095E-06,8.5185,0
0.5688,8.426032E-05,8.532,0,0.5688,-3.424125E-05,8.532,0
0.5697,-1.174945E-05,8.5455,0,0.5697,2.920577E-05,8.5455,0
0.5706,-6.378271E-05,8.559,0,0.5706,6.713969E-07,8.559,0
0.5715,-2.450599E-05,8.5725,0,0.5715,-4.834058E-05,8.5725,0
0.5724,6.109713E-05,8.586,0,0.5724,-3.793393E-05,8.586,0
0.5733,-5.673304E-05,8.5995,0,0.5733,3.189136E-05,8.5995,0
0.5742,-4.800488E-05,8.613,0,0.5742,1.007095E-06,8.613,0
0.5751,7.217517E-05,8.6265,0,0.5751,-5.539025E-05,8.6265,0
0.576,-4.934768E-05,8.64,0,0.576,1.980621E-05,8.64,0
0.5769,4.800488E-05,8.6535,0,0.5769,2.1149E-05,8.6535,0
0.5778,0.0001661708,8.667,0,0.5778,-4.53193E-05,8.667,0
0.5787,3.021286E-06,8.6805,0,0.5787,-8.392462E-06,8.6805,0
0.5796,-4.766919E-05,8.694,0,0.5796,2.1149E-05,8.694,0
0.5805,6.243992E-05,8.7075,0,0.5805,3.692683E-06,8.7075,0
0.5814,3.021286E-06,8.721,0,0.5814,2.349889E-06,8.721,0
0.5823,1.980621E-05,8.7345,0,0.5823,-5.539025E-05,8.7345,0
0.5832,-1.174945E-05,8.748,0,0.5832,-2.517739E-05,8.748,0
0.5841,-0.0001467002,8.7615,0,0.5841,1.040665E-05,8.7615,0
0.585,-8.258183E-05,8.775,0,0.585,-2.819867E-05,8.775,0
0.5859,-6.713969E-07,8.7885,0,0.5859,-2.719158E-05,8.7885,0
0.5868,-2.987716E-05,8.802,0,0.5868,4.666209E-05,8.802,0
0.5877,-8.82887E-05,8.8155,0,0.5877,6.378271E-06,8.8155,0
0.5886,4.934768E-05,8.829,0,0.5886,-7.418937E-05,8.829,0
0.5895,3.390555E-05,8.8425,0,0.5895,-1.107805E-05,8.8425,0
0.5904,3.356985E-07,8.856,0,0.5904,-1.376364E-05,8.856,0
0.5913,4.46479E-05,8.8695,0,0.5913,-6.51255E-05,8.8695,0
0.5922,-3.457694E-05,8.883,0,0.5922,-2.551309E-05,8.883,0
0.5931,-9.365987E-05,8.8965,0,0.5931,-1.678492E-06,8.8965,0
0.594,-0.0001017166,8.91,0,0.594,-1.644922E-05,8.91,0
0.5949,-2.584878E-05,8.9235,0,0.5949,-2.719158E-05,8.9235,0
0.5958,1.644922E-05,8.937,0,0.5958,-5.539025E-05,8.937,0
0.5967,1.980621E-05,8.9505,0,0.5967,1.275654E-05,8.9505,0
0.5976,-4.095522E-05,8.964,0,0.5976,2.24918E-05,8.964,0
0.5985,3.088426E-05,8.9775,0,0.5985,-3.155566E-05,8.9775,0
0.5994,1.712062E-05,8.991,0,0.5994,-5.438316E-05,8.991,0
0.6003,-5.539025E-05,9.0045,0,0.6003,6.713969E-07,9.0045,0
0.6012,1.141375E-05,9.018,0,0.6012,-2.047761E-05,9.018,0
0.6021,9.600977E-05,9.0315,0,0.6021,-8.89601E-05,9.0315,0
0.603,-4.632639E-05,9.045,0,0.603,0,9.045,0
0.6039,5.606165E-05,9.0585,0,0.6039,-2.450599E-05,9.0585,0
0.6048,0.0001070878,9.072001,0,0.6048,-9.466698E-05,9.072001,0
0.6057,5.035477E-05,9.0855,0,0.6057,-1.174945E-05,9.0855,0
0.6066,2.047761E-05,9.099,0,0.6066,3.457694E-05,9.099,0
0.6075,-3.256275E-05,9.1125,0,0.6075,-1.007095E-05,9.1125,0
0.6084,-2.081331E-05,9.126,0,0.6084,-3.793393E-05,9.126,0
0.6093,2.24918E-05,9.1395,0,0.6093,-7.956054E-05,9.1395,0
0.6102,9.063859E-06,9.153,0,0.6102,-1.812772E-05,9.153,0
0.6111,-0.0001319295,9.1665,0,0.6111,-1.409934E-05,9.1665,0
0.612,-0.0001027237,9.18,0,0.612,-5.136187E-05,9.18,0
0.6129,-1.913481E-05,9.1935,0,0.6129,-3.424125E-05,9.1935,0
0.6138,-0.0001080949,9.207,0,0.6138,2.887007E-05,9.207,0
0.6147,-5.606165E-05,9.2205,0,0.6147,-2.349889E-06,9.2205,0
0.6156,0.0001238727,9.234,0,0.6156,-7.083238E-05,9.234,0
0.6165,-4.901198E-05,9.2475,0,0.6165,1.544213E-05,9.2475,0
0.6174,1.309224E-05,9.261,0,0.6174,1.846342E-05,9.261,0
0.6183,0.0001198444,9.2745,0,0.6183,-4.733349E-05,9.2745,0
0.6192,-6.61326E-05,9.288,0,0.6192,-2.081331E-05,9.288,0
0.6201,-0.0001030594,9.3015,0,0.6201,2.652018E-05,9.3015,0
0.621,-2.719158E-05,9.315,0,0.621,-1.510643E-05,9.315,0
0.6219,-7.049668E-06,9.3285,0,0.6219,-2.316319E-05,9.3285,0
0.6228,-3.524834E-05,9.342,0,0.6228,-6.109713E-05,9.342,0
0.6237,2.584878E-05,9.3555,0,0.6237,-2.18204E-05,9.3555,0
0.6246,0.0001265583,9.369,0,0.6246,-1.913481E-05,9.369,0
0.6255,3.390555E-05,9.3825,0,0.6255,-4.095522E-05,9.3825,0
0.6264,5.203327E-05,9.396,0,0.6264,-4.36408E-05,9.396,0
0.6273,1.577783E-05,9.4095,0,0.6273,2.954147E-05,9.4095,0
0.6282,-3.659113E-05,9.423,0,0.6282,-1.846342E-05,9.423,0
0.6291,6.78111E-05,9.4365,0,0.6291,-8.157473E-05,9.4365,0
0.63,-1.309224E-05,9.45,0,0.63,3.222705E-05,9.45,0
0.6309,-0.0001215228,9.4635,0,0.6309,4.666209E-05,9.4635,0
0.6318,-7.821774E-05,9.477,0,0.6318,-2.584878E-05,9.477,0
0.6327,-3.323415E-05,9.4905,0,0.6327,1.208515E-05,9.4905,0
0.6336,-3.927672E-05,9.504,0,0.6336,4.43122E-05,9.504,0
0.6345,-7.150377E-05,9.5175,0,0.6345,7.385367E-06,9.5175,0
0.6354,-3.524834E-05,9.531,0,0.6354,-2.920577E-05,9.531,0
0.6363,6.109713E-05,9.5445,0,0.6363,-7.687495E-05,9.5445,0
0.6372,3.021286E-05,9.558,0,0.6372,-4.699779E-06,9.558,0
0.6381,1.174945E-05,9.5715,0,0.6381,9.063859E-06,9.5715,0
0.639,3.524834E-05,9.585,0,0.639,-3.524834E-05,9.585,0
0.6399,4.867628E-05,9.5985,0,0.6399,-4.43122E-05,9.5985,0
0.6408,-4.095522E-05,9.612,0,0.6408,1.947051E-05,9.612,0
0.6417,2.584878E-05,9.6255,0,0.6417,-3.021286E-06,9.6255,0
0.6426,6.51255E-05,9.639,0,0.6426,-8.82887E-05,9.639,0
0.6435,-1.409934E-05,9.6525,0,0.6435,1.678492E-06,9.6525,0
0.6444,-8.023193E-05,9.666,0,0.6444,2.349889E-06,9.666,0
0.6453,-9.063859E-06,9.6795,0,0.6453,-7.351797E-05,9.6795,0
0.6462,-5.035477E-06,9.693,0,0.6462,-1.040665E-05,9.693,0
0.6471,-0.0001252155,9.7065,0,0.6471,2.21561E-05,9.7065,0
0.648,-4.968337E-05,9.72,0,0.648,-1.611353E-05,9.72,0
0.6489,-4.33051E-05,9.7335,0,0.6489,-3.121996E-05,9.7335,0
0.6498,3.356985E-07,9.747,0,0.6498,-5.706874E-05,9.747,0
0.6507,6.814679E-05,9.7605,0,0.6507,7.385367E-06,9.7605,0
0.6516,-7.888914E-05,9.774,0,0.6516,-2.920577E-05,9.774,0
0.6525,-3.726253E-05,9.7875,0,0.6525,-6.51255E-05,9.7875,0
0.6534,0.0001017166,9.801,0,0.6534,-5.606165E-05,9.801,0
0.6543,-6.51255E-05,9.8145,0,0.6543,6.378271E-06,9.8145,0
0.6552,-4.599069E-05,9.828,0,0.6552,-2.014191E-05,9.828,0
0.6561,0.0001185016,9.8415,0,0.6561,-7.351797E-05,9.8415,0
0.657,1.376364E-05,9.855,0,0.657,2.383459E-05,9.855,0
0.6579,2.24918E-05,9.8685,0,0.6579,3.054856E-05,9.8685,0
0.6588,7.553216E-05,9.882,0,0.6588,-3.189136E-05,9.882,0
0.6597,-1.376364E-05,9.8955,0,0.6597,-8.728161E-06,9.8955,0
0.6606,-0.0001292439,9.909,0,0.6606,2.551309E-05,9.909,0
0.6615,-6.478981E-05,9.9225,0,0.6615,-1.443504E-05,9.9225,0
0.6624,1.678492E-05,9.936,0,0.6624,-2.081331E-05,9.936,0
0.6633,4.196231E-05,9.9495,0,0.6633,-5.404745E-05,9.9495,0
0.6642,4.901198E-05,9.963,0,0.6642,-2.18204E-05,9.963,0
0.6651,6.076142E-05,9.976501,0,0.6651,-4.39765E-05,9.976501,0
0.666,3.390555E-05,9.99,0,0.666,-7.284657E-05,9.99,0
0.6669,4.39765E-05,10.0035,0,0.6669,-6.61326E-05,10.0035,0
0.6678,-2.18204E-05,10.017,0,0.6678,7.385367E-06,10.017,0
0.6687,2.316319E-05,10.0305,0,0.6687,-2.383459E-05,10.0305,0
0.6696,4.699779E-05,10.044,0,0.6696,-7.351797E-05,10.044,0
0.6705,-5.069047E-05,10.0575,0,0.6705,2.517739E-05,10.0575,0
0.6714,-8.627451E-05,10.071,0,0.6714,2.417029E-05,10.071,0
0.6723,-7.989624E-05,10.0845,0,0.6723,-7.721065E-05,10.0845,0
0.6732,-6.61326E-05,10.098,0,0.6732,-1.644922E-05,10.098,0
0.6741,-0.0001232013,10.1115,0,0.6741,3.155566E-05,10.1115,0
0.675,-8.761731E-05,10.125,0,0.675,1.174945E-05,10.125,0
0.6759,-2.652018E-05,10.1385,0,0.6759,-2.1149E-05,10.1385,0
0.6768,4.599069E-05,10.152,0,0.6768,-4.229801E-05,10.152,0
0.6777,-2.349889E-05,10.1655,0,0.6777,1.980621E-05,10.1655,0
0.6786,2.719158E-05,10.179,0,0.6786,-1.007095E-05,10.179,0
0.6795,4.53193E-05,10.1925,0,0.6795,-6.009003E-05,10.1925,0
0.6804,0.0001070878,10.206,0,0.6804,-6.915389E-05,10.206,0
0.6813,-2.584878E-05,10.2195,0,0.6813,2.383459E-05,10.2195,0
0.6822,7.721065E-06,10.233,0,0.6822,-7.721065E-06,10.233,0
0.6831,9.701686E-05,10.2465,0,0.6831,-6.210422E-05,10.2465,0
0.684,-2.987716E-05,10.26,0,0.684,1.980621E-05,10.26,0
0.6849,-6.344701E-05,10.2735,0,0.6849,6.009003E-05,10.2735,0
0.6858,1.074235E-05,10.287,0,0.6858,-1.242084E-05,10.287,0
0.6867,4.53193E-05,10.3005,0,0.6867,1.477073E-05,10.3005,0
0.6876,-3.524834E-05,10.314,0,0.6876,2.21561E-05,10.314,0
0.6885,4.263371E-05,10.3275,0,0.6885,-9.063859E-06,10.3275,0
0.6894,-3.659113E-05,10.341,0,0.6894,-5.706874E-06,10.341,0
0.6903,1.443504E-05,10.3545,0,0.6903,-5.874724E-05,10.3545,0
0.6912,2.786297E-05,10.368,0,0.6912,-1.477073E-05,10.368,0
0.6921,-0.0001514,10.3815,0,0.6921,-3.692683E-06,10.3815,0
0.693,-9.768826E-05,10.395,0,0.693,-5.975433E-05,10.395,0
0.6939,1.745632E-05,10.4085,0,0.6939,-9.030289E-05,10.4085,0
0.6948,-7.049668E-05,10.422,0,0.6948,1.342794E-06,10.422,0
0.6957,-9.298848E-05,10.4355,0,0.6957,-3.121996E-05,10.4355,0
0.6966,5.069047E-05,10.449,0,0.6966,-7.116808E-05,10.449,0
0.6975,7.721065E-06,10.4625,0,0.6975,3.927672E-05,10.4625,0
0.6984,3.860533E-05,10.476,0,0.6984,5.438316E-05,10.476,0
0.6993,0.0001349508,10.4895,0,0.6993,-1.846342E-05,10.4895,0
0.7002,7.888914E-05,10.503,0,0.7002,-5.706874E-06,10.503,0
0.7011,-1.980621E-05,10.5165,0,0.7011,2.450599E-05,10.5165,0
0.702,-2.014191E-05,10.53,0,0.702,-5.035477E-06,10.53,0
0.7029,-3.356985E-07,10.5435,0,0.7029,-3.994812E-05,10.5435,0
0.7038,3.591974E-05,10.557,0,0.7038,-8.560311E-05,10.557,0
0.7047,-7.150377E-05,10.5705,0,0.7047,-1.678492E-06,10.5705,0
0.7056,-0.0001601282,10.584,0,0.7056,2.517739E-05,10.584,0
0.7065,-7.049668E-05,10.5975,0,0.7065,-7.049668E-06,10.5975,0
0.7074,1.141375E-05,10.611,0,0.7074,-2.484169E-05,10.611,0
0.7083,-1.007095E-05,10.6245,0,0.7083,3.927672E-05,10.6245,0
0.7092,-7.418937E-05,10.638,0,0.7092,3.021286E-06,10.638,0
0.7101,3.323415E-05,10.6515,0,0.7101,-7.989624E-05,10.6515,0
0.711,7.721065E-06,10.665,0,0.711,4.36408E-06,10.665,0
0.7119,1.846342E-05,10.6785,0,0.7119,-8.728161E-06,10.6785,0
0.7128,3.356985E-07,10.692,0,0.7128,-7.956054E-05,10.692,0
0.7137,6.344701E-05,10.7055,0,0.7137,-6.109713E-05,10.7055,0
0.7146,-5.136187E-05,10.719,0,0.7146,-2.383459E-05,10.719,0
0.7155,7.385367E-06,10.7325,0,0.7155,-6.210422E-05,10.7325,0
0.7164,-1.577783E-05,10.746,0,0.7164,-7.016098E-05,10.746,0
0.7173,6.378271E-05,10.7595,0,0.7173,-0.0001050736,10.7595,0
0.7182,7.351797E-05,10.773,0,0.7182,1.007095E-06,10.773,0
0.7191,3.726253E-05,10.7865,0,0.7191,4.53193E-05,10.7865,0
0.72,9.634547E-05,10.8,0,0.72,-1.242084E-05,10.8,0
0.7209,0.000102388,10.8135,0,0.7209,1.678492E-05,10.8135,0
0.7218,-6.61326E-05,10.827,0,0.7218,7.754635E-05,10.827,0
0.7227,-6.344701E-05,10.8405,0,0.7227,1.544213E-05,10.8405,0
0.7236,5.505455E-05,10.854,0,0.7236,-5.740444E-05,10.854,0
0.7245,-9.164568E-05,10.8675,0,0.7245,-6.713969E-07,10.8675,0
0.7254,-8.627451E-05,10.881,0,0.7254,-1.007095E-06,10.881,0
0.7263,-3.021286E-06,10.8945,0,0.7263,-7.016098E-05,10.8945,0
0.7272,-0.0001010452,10.908,0,0.7272,-6.61326E-05,10.908,0
0.7281,-0.000123537,10.9215,0,0.7281,-3.155566E-05,10.9215,0
0.729,-3.424125E-05,10.935,0,0.729,-5.169757E-05,10.935,0
0.7299,-3.356985E-06,10.9485,0,0.7299,-6.311131E-05,10.9485,0
0.7308,3.021286E-05,10.962,0,0.7308,-8.191043E-05,10.962,0
0.7317,5.337606E-05,10.9755,0,0.7317,-2.786297E-05,10.9755,0
0.7326,6.848249E-05,10.989,0,0.7326,-1.107805E-05,10.989,0
0.7335,-3.356985E-05,11.0025,0,0.7335,-4.599069E-05,11.0025,0
0.7344,2.584878E-05,11.016,0,0.7344,-4.699779E-06,11.016,0
0.7353,-2.316319E-05,11.0295,0,0.7353,9.030289E-05,11.0295,0
0.7362,-9.231708E-05,11.043,0,0.7362,5.069047E-05,11.043,0
0.7371,1.275654E-05,11.0565,0,0.7371,-4.33051E-05,11.0565,0
0.738,-6.814679E-05,11.07,0,0.738,6.78111E-05,11.07,0
0.7389,-8.023193E-05,11.0835,0,0.7389,3.088426E-05,11.0835,0
0.7398,3.994812E-05,11.097,0,0.7398,9.063859E-06,11.097,0
0.7407,3.424125E-05,11.1105,0,0.7407,0.0001265583,11.1105,0
0.7416,-2.24918E-05,11.124,0,0.7416,0.000154757,11.124,0
0.7425,-5.404745E-05,11.1375,0,0.7425,0.000109102,11.1375,0
0.7434,1.712062E-05,11.151,0,0.7434,7.956054E-05,11.151,0
0.7443,0.0001245441,11.1645,0,0.7443,-6.042573E-06,11.1645,0
0.7452,2.24918E-05,11.178,0,0.7452,1.577783E-05,11.178,0
0.7461,1.779202E-05,11.1915,0,0.7461,4.36408E-06,11.1915,0
0.747,7.486076E-05,11.205,0,0.747,-5.404745E-05,11.205,0
0.7479,3.558404E-05,11.2185,0,0.7479,-9.835965E-05,11.2185,0
0.7488,-4.800488E-05,11.232,0,0.7488,-2.517739E-05,11.232,0
0.7497,-3.860533E-05,11.2455,0,0.7497,-3.826963E-05,11.2455,0
0.7506,-1.544213E-05,11.259,0,0.7506,-0.0001265583,11.259,0
0.7515,-5.639734E-05,11.2725,0,0.7515,-2.752728E-05,11.2725,0
0.7524,-4.901198E-05,11.286,0,0.7524,-9.735256E-06,11.286,0
0.7533,8.82887E-05,11.2995,0,0.7533,-8.358892E-05,11.2995,0
0.7542,1.174945E-05,11.313,0,0.7542,-5.337606E-05,11.313,0
0.7551,-6.143282E-05,11.3265,0,0.7551,6.713969E-07,11.3265,0
0.756,-7.922484E-05,11.34,0,0.756,-6.478981E-05,11.34,0
0.7569,-9.298848E-05,11.3535,0,0.7569,-5.371176E-05,11.3535,0
0.7578,-3.524834E-05,11.367,0,0.7578,-8.627451E-05,11.367,0
0.7587,-0.0001245441,11.3805,0,0.7587,-7.486076E-05,11.3805,0
0.7596,-0.0002675517,11.394,0,0.7596,-0.0001258869,11.394,0
0.7605,-0.0001634852,11.4075,0,0.7605,-0.000140322,11.4075,0
0.7614,-3.524834E-05,11.421,0,0.7614,-0.0001309224,11.421,0
0.7623,-0.0001379721,11.4345,0,0.7623,-7.553216E-05,11.4345,0
0.7632,7.385367E-06,11.448,0,0.7632,-8.795301E-05,11.448,0
0.7641,0.0002682231,11.4615,0,0.7641,-7.586786E-05,11.4615,0
0.765,0.0001607996,11.475,0,0.765,2.954147E-05,11.475,0
0.7659,0.0001188373,11.4885,0,0.7659,1.712062E-05,11.4885,0
0.7668,0.0002913863,11.502,0,0.7668,-9.735256E-06,11.502,0
0.7677,0.0002145113,11.5155,0,0.7677,-1.544213E-05,11.5155,0
0.7686,4.36408E-06,11.529,0,0.7686,-1.678492E-06,11.529,0
0.7695,-6.378271E-06,11.5425,0,0.7695,-7.888914E-05,11.5425,0
0.7704,2.1149E-05,11.556,0,0.7704,-0.0001077592,11.556,0
0.7713,1.913481E-05,11.5695,0,0.7713,-0.0001010452,11.5695,0
0.7722,-1.678492E-05,11.583,0,0.7722,-5.706874E-06,11.583,0
0.7731,-8.291753E-05,11.5965,0,0.7731,1.007095E-05,11.5965,0
0.774,-2.987716E-05,11.61,0,0.774,-6.042573E-06,11.61,0
0.7749,-6.713969E-07,11.6235,0,0.7749,-3.659113E-05,11.6235,0
0.7758,-6.109713E-05,11.637,0,0.7758,2.853437E-05,11.637,0
0.7767,-4.229801E-05,11.6505,0,0.7767,2.652018E-05,11.6505,0
0.7776,7.721065E-06,11.664,0,0.7776,-1.342794E-05,11.664,0
0.7785,-7.788205E-05,11.6775,0,0.7785,7.016098E-05,11.6775,0
0.7794,-0.0001067521,11.691,0,0.7794,-2.719158E-05,11.691,0
0.7803,-0.0001097734,11.7045,0,0.7803,-0.0001920195,11.7045,0
0.7812,-0.0001530785,11.718,0,0.7812,-0.0001675135,11.718,0
0.7821,-0.0001607996,11.7315,0,0.7821,-7.351797E-05,11.7315,0
0.783,-0.0001104448,11.745,0,0.783,-1.577783E-05,11.745,0
0.7839,-5.438316E-05,11.7585,0,0.7839,-5.505455E-05,11.7585,0
0.7848,-6.311131E-05,11.772,0,0.7848,-0.0001064164,11.772,0
0.7857,-7.284657E-05,11.7855,0,0.7857,1.409934E-05,11.7855,0
0.7866,-5.807584E-05,11.799,0,0.7866,0.0001097734,11.799,0
0.7875,1.107805E-05,11.8125,0,0.7875,0.0001312581,11.8125,0
0.7884,8.291753E-05,11.826,0,0.7884,0.0001094377,11.826,0
0.7893,-9.567407E-05,11.8395,0,0.7893,0.0001883268,11.8395,0
0.7902,-1.980621E-05,11.853,0,0.7902,0.0001245441,11.853,0
0.7911,0.0001490501,11.8665,0,0.7911,3.189136E-05,11.8665,0
0.792,0.0001285725,11.88,0,0.792,0.000133608,11.88,0
0.7929,0.0003111925,11.8935,0,0.7929,0.0001178302,11.8935,0
0.7938,0.0003189135,11.907,0,0.7938,2.349889E-05,11.907,0
0.7947,7.721065E-05,11.9205,0,0.7947,6.6804E-05,11.9205,0
0.7956,5.706874E-06,11.934,0,0.7956,4.263371E-05,11.934,0
0.7965,5.035477E-06,11.9475,0,0.7965,-1.443504E-05,11.9475,0
0.7974,-0.0001020523,11.961,0,0.7974,-5.841154E-05,11.961,0
0.7983,-5.169757E-05,11.9745,0,0.7983,-0.0001453574,11.9745,0
0.7992,7.318227E-05,11.988,0,0.7992,-5.841154E-05,11.988,0
0.8001,-7.049668E-05,12.0015,0,0.8001,-6.915389E-05,12.0015,0
0.801,-5.304036E-05,12.015,0,0.801,-0.0001017166,12.015,0
0.8019,9.030289E-05,12.0285,0,0.8019,-0.0001121233,12.0285,0
0.8028,-6.042573E-05,12.042,0,0.8028,-4.733349E-05,12.042,0
0.8037,-5.539025E-05,12.0555,0,0.8037,-0.0001047379,12.0555,0
0.8046,8.560311E-05,12.069,0,0.8046,-0.0001440146,12.069,0
0.8055,-2.18204E-05,12.0825,0,0.8055,3.961242E-05,12.0825,0
0.8064,1.040665E-05,12.096,0,0.8064,0.0001510643,12.096,0
0.8073,0.0001144732,12.1095,0,0.8073,4.162661E-05,12.1095,0
0.8082,1.846342E-05,12.123,0,0.8082,4.36408E-05,12.123,0
0.8091,-4.43122E-05,12.1365,0,0.8091,0.0001654994,12.1365,0
0.81,2.1149E-05,12.15,0,0.81,0.0001218585,12.15,0
0.8109,4.263371E-05,12.1635,0,0.8109,2.719158E-05,12.1635,0
0.8118,2.685588E-06,12.177,0,0.8118,-7.653925E-05,12.177,0
0.8127,-7.016098E-05,12.1905,0,0.8127,-5.941863E-05,12.1905,0
0.8136,-0.0001597925,12.204,0,0.8136,-6.243992E-05,12.204,0
0.8145,-6.143282E-05,12.2175,0,0.8145,-8.661021E-05,12.2175,0
0.8154,-2.685588E-06,12.231,0,0.8154,-9.164568E-05,12.231,0
0.8163,-2.719158E-05,12.2445,0,0.8163,-1.712062E-05,12.2445,0
0.8172,5.035477E-05,12.258,0,0.8172,-1.107805E-05,12.258,0
0.8181,0.0002024262,12.2715,0,0.8181,-6.948959E-05,12.2715,0
0.819,0.0001500572,12.285,0,0.819,1.342794E-06,12.285,0
0.8199,8.157473E-05,12.2985,0,0.8199,1.846342E-05,12.2985,0
0.8208,6.277562E-05,12.312,0,0.8208,-0.0001285725,12.312,0
0.8217,8.493171E-05,12.3255,0,0.8217,-0.0001211871,12.3255,0
0.8226,-3.021286E-05,12.339,0,0.8226,-0.0001282368,12.339,0
0.8235,-1.007095E-06,12.3525,0,0.8235,-0.000193698,12.3525,0
0.8244,-6.814679E-05,12.366,0,0.8244,-0.0002786297,12.366,0
0.8253,-3.356985E-05,12.3795,0,0.8253,-0.000369604,12.3795,0
0.8262,-0.0001279011,12.393,0,0.8262,-0.0003034714,12.393,0
0.8271,-0.0002776226,12.4065,0,0.8271,-0.00024271,12.4065,0
0.828,-0.000154757,12.42,0,0.828,-0.0001550927,12.42,0
0.8289,-0.0001386435,12.4335,0,0.8289,-3.793393E-05,12.4335,0
0.8298,-0.0002517739,12.447,0,0.8298,0.0002124971,12.447,0
0.8307,-0.0001225299,12.4605,0,0.8307,0.0003175708,12.4605,0
0.8316,3.591974E-05,12.474,0,0.8316,0.000327306,12.474,0
0.8325,-0.000109102,12.4875,0,0.8325,0.0003756466,12.4875,0
0.8334,-9.332418E-05,12.501,0,0.8334,0.0002769512,12.501,0
0.8343,3.994812E-05,12.5145,0,0.8343,0.0001044022,12.5145,0
0.8352,3.356985E-06,12.528,0,0.8352,2.752728E-05,12.528,0
0.8361,-0.0001111162,12.5415,0,0.8361,5.337606E-05,12.5415,0
0.837,1.242084E-05,12.555,0,0.837,5.706874E-06,12.555,0
0.8379,-6.243992E-05,12.5685,0,0.8379,-3.021286E-05,12.5685,0
0.8388,4.263371E-05,12.582,0,0.8388,-5.136187E-05,12.582,0
0.8397,0.0001178302,12.5955,0,0.8397,-2.349889E-06,12.5955,0
0.8406,0.0001040665,12.609,0,0.8406,-1.309224E-05,12.609,0
0.8415,0.0001708705,12.6225,0,0.8415,-8.728161E-06,12.6225,0
0.8424,0.0002306248,12.636,0,0.8424,2.28275E-05,12.636,0
0.8433,4.36408E-06,12.6495,0,0.8433,-0.0001097734,12.6495,0
0.8442,-5.841154E-05,12.663,0,0.8442,-0.000295079,12.663,0
0.8451,4.49836E-05,12.6765,0,0.8451,-0.0003286488,12.6765,0
0.846,-1.007095E-06,12.69,0,0.846,-0.0001953765,12.69,0
0.8469,-6.881819E-05,12.7035,0,0.8469,-0.0001668421,12.7035,0
0.8478,6.378271E-06,12.717,0,0.8478,-0.0001631495,12.717,0
0.8487,-8.493171E-05,12.7305,0,0.8487,-7.351797E-05,12.7305,0
0.8496,-0.0001554284,12.744,0,0.8496,0.000154757,12.744,0
0.8505,-2.450599E-05,12.7575,0,0.8505,0.0003605402,12.7575,0
0.8514,4.800488E-05,12.771,0,0.8514,0.0003202563,12.771,0
0.8523,-5.438316E-05,12.7845,0,0.8523,0.0001094377,12.7845,0
0.8532,-1.376364E-05,12.798,0,0.8532,4.263371E-05,12.798,0
0.8541,1.510643E-05,12.8115,0,0.8541,-1.477073E-05,12.8115,0
0.855,-2.853437E-05,12.825,0,0.855,-3.356985E-07,12.825,0
0.8559,3.189136E-05,12.8385,0,0.8559,5.874724E-05,12.8385,0
0.8568,-6.982528E-05,12.852,0,0.8568,6.6804E-05,12.852,0
0.8577,-8.89601E-05,12.8655,0,0.8577,-7.586786E-05,12.8655,0
0.8586,4.061952E-05,12.879,0,0.8586,-0.000175906,12.879,0
0.8595001,5.706874E-06,12.8925,0,0.8595001,-7.620356E-05,12.8925,0
0.8604,0.0001379721,12.906,0,0.8604,-0.000119173,12.906,0
0.8613,0.0001312581,12.9195,0,0.8613,-0.0002171969,12.9195,0
0.8622,4.699779E-06,12.933,0,0.8622,-0.0001265583,12.933,0
0.8631,-8.69459E-05,12.9465,0,0.8631,-0.000112459,12.9465,0
0.864,-0.0001520714,12.96,0,0.864,-0.0001080949,12.96,0
0.8649,-0.0001373007,12.9735,0,0.8649,-3.558404E-05,12.9735,0
0.8658,-6.076142E-05,12.987,0,0.8658,-5.001907E-05,12.987,0
0.8667,-9.869535E-05,13.0005,0,0.8667,-5.807584E-05,13.0005,0
0.8676,-0.0001983978,13.014,0,0.8676,-0.0001795987,13.014,0
0.8685,-4.599069E-05,13.0275,0,0.8685,-0.0002370031,13.0275,0
0.8694,-3.121996E-05,13.041,0,0.8694,-0.000119173,13.041,0
0.8703,-0.0001889983,13.0545,0,0.8703,1.510643E-05,13.0545,0
0.8712,-0.0001117876,13.068,0,0.8712,5.337606E-05,13.068,0
0.8721,0.0001460288,13.0815,0,0.8721,6.042573E-05,13.0815,0
0.873,3.558404E-05,13.095,0,0.873,8.258183E-05,13.095,0
0.8739,0.0001644923,13.1085,0,0.8739,0.0001493858,13.1085,0
0.8748,0.0002628519,13.122,0,0.8748,0.0001601282,13.122,0
0.8757,0.0002447242,13.1355,0,0.8757,0.0001359579,13.1355,0
0.8766,6.74754E-05,13.149,0,0.8766,7.251087E-05,13.149,0
0.8775,8.090334E-05,13.1625,0,0.8775,-5.304036E-05,13.1625,0
0.8784,9.231708E-05,13.176,0,0.8784,-7.821774E-05,13.176,0
0.8793,6.344701E-05,13.1895,0,0.8793,-3.793393E-05,13.1895,0
0.8802,1.577783E-05,13.203,0,0.8802,0.000130251,13.203,0
0.8811,-8.526741E-05,13.2165,0,0.8811,7.687495E-05,13.2165,0
0.882,-6.61326E-05,13.23,0,0.882,-5.270466E-05,13.23,0
0.8829,-1.577783E-05,13.2435,0,0.8829,-0.0002413672,13.2435,0
0.8838,-8.090334E-05,13.257,0,0.8838,-0.0004424506,13.257,0
0.8847,-0.0001379721,13.2705,0,0.8847,-0.0006009003,13.2705,0
0.8856,-8.090334E-05,13.284,0,0.8856,-0.0006489052,13.284,0
0.8865,-0.0001292439,13.2975,0,0.8865,-0.0004770276,13.2975,0
0.8874,-0.0001591211,13.311,0,0.8874,-0.0003662471,13.311,0
0.8883,-7.183947E-05,13.3245,0,0.8883,-0.000203769,13.3245,0
0.8892,4.061952E-05,13.338,0,0.8892,0.0003199207,13.338,0
0.8901,-7.956054E-05,13.3515,0,0.8901,0.0008308538,13.3515,0
0.891,-3.356985E-06,13.365,0,0.891,0.0008211185,13.365,0
0.8919,8.89601E-05,13.3785,0,0.8919,0.0006777752,13.3785,0
0.8928,0.0001010452,13.392,0,0.8928,0.0006210422,13.392,0
0.8937,1.577783E-05,13.4055,0,0.8937,0.0005656519,13.4055,0
0.8946,-8.358892E-05,13.419,0,0.8946,0.0002641947,13.419,0
0.8955,1.443504E-05,13.4325,0,0.8955,0.0001607996,13.4325,0
0.8964,3.692683E-06,13.446,0,0.8964,6.61326E-05,13.446,0
0.8973,-0.0001359579,13.4595,0,0.8973,3.524834E-05,13.4595,0
0.8982,-4.867628E-05,13.473,0,0.8982,-2.719158E-05,13.473,0
0.8991,7.318227E-05,13.4865,0,0.8991,-0.0001352865,13.4865,0
0.9,4.666209E-05,13.5,0,0.9,-0.0001816129,13.5,0
0.9009,3.121996E-05,13.5135,0,0.9009,-0.0002195468,13.5135,0
0.9018,6.713969E-06,13.527,0,0.9018,-0.0002682231,13.527,0
0.9027,5.706874E-05,13.5405,0,0.9027,-0.000179263,13.5405,0
0.9036,0.0001201801,13.554,0,0.9036,-7.049668E-06,13.554,0
0.9045,7.956054E-05,13.5675,0,0.9045,-7.116808E-05,13.5675,0
0.9054,-0.0001037308,13.581,0,0.9054,-0.0001846342,13.581,0
0.9063,-3.323415E-05,13.5945,0,0.9063,-0.0002997787,13.5945,0
0.9072,-8.728161E-06,13.608,0,0.9072,-0.0002944076,13.608,0
0.9081,-0.0001044022,13.6215,0,0.9081,-0.0002450599,13.6215,0
0.909,-2.349889E-05,13.635,0,0.909,-0.0002964218,13.635,0
0.9099,3.659113E-05,13.6485,0,0.9099,-0.0002729229,13.6485,0
0.9108,-0.0001319295,13.662,0,0.9108,7.284657E-05,13.662,0
0.9117,-5.941863E-05,13.6755,0,0.9117,0.0001849699,13.6755,0
0.9126,0.0001326009,13.689,0,0.9126,2.047761E-05,13.689,0
0.9135,-4.46479E-05,13.7025,0,0.9135,-3.054856E-05,13.7025,0
0.9144,-0.0001587854,13.716,0,0.9144,-0.0001238727,13.716,0
0.9153,-9.198138E-05,13.7295,0,0.9153,-0.0001822843,13.7295,0
0.9162,-0.0001695277,13.743,0,0.9162,-0.000158114,13.743,0
0.9171,-0.0002628519,13.7565,0,0.9171,-0.0001473716,13.7565,0
0.918,-0.0002218967,13.77,0,0.918,-6.176852E-05,13.77,0
0.9189,-0.0001856413,13.7835,0,0.9189,2.887007E-05,13.7835,0
0.9198,-0.0001497215,13.797,0,0.9198,0.0002897078,13.797,0
0.9207,3.524834E-05,13.8105,0,0.9207,0.0003212634,13.8105,0
0.9216,0.0003558404,13.824,0,0.9216,-3.390555E-05,13.824,0
0.9225,0.0005307393,13.8375,0,0.9225,-0.0001950408,13.8375,0
0.9234,0.0004938125,13.851,0,0.9234,-0.0001285725,13.851,0
0.9243,0.000235996,13.8645,0,0.9243,0.0001352865,13.8645,0
0.9252,0.0001094377,13.878,0,0.9252,9.634547E-05,13.878,0
0.9261,0.0001802701,13.8915,0,0.9261,-1.007095E-06,13.8915,0
0.927,0.0001017166,13.905,0,0.927,0.0003434196,13.905,0
0.9279,5.807584E-05,13.9185,0,0.9279,0.0005495384,13.9185,0
0.9288,8.560311E-05,13.932,0,0.9288,0.0004615854,13.932,0
0.9297,-4.095522E-05,13.9455,0,0.9297,0.0002937362,13.9455,0
0.9306,-9.970245E-05,13.959,0,0.9306,9.097429E-05,13.959,0
0.9315,-0.0001309224,13.9725,0,0.9315,-0.0001775845,13.9725,0
0.9324,-0.0001342794,13.986,0,0.9324,-0.0003041428,13.986,0
0.9333,-6.881819E-05,13.9995,0,0.9333,-0.0003699397,13.9995,0
0.9342,-5.136187E-05,14.013,0,0.9342,-0.0003303273,14.013,0
0.9351,9.164568E-05,14.0265,0,0.9351,-0.0003232776,14.0265,0
0.936,0.0001473716,14.04,0,0.936,-0.0002907149,14.04,0
0.9369,3.189136E-05,14.0535,0,0.9369,-0.0002034333,14.0535,0
0.9378,-7.721065E-05,14.067,0,0.9378,-1.376364E-05,14.067,0
0.9387,-1.477073E-05,14.0805,0,0.9387,1.443504E-05,14.0805,0
0.9396001,3.994812E-05,14.094,0,0.9396001,-2.719158E-05,14.094,0
0.9405,-5.941863E-05,14.1075,0,0.9405,0.0002198825,14.1075,0
0.9414001,-5.069047E-05,14.121,0,0.9414001,0.0003524834,14.121,0
0.9423,1.174945E-05,14.1345,0,0.9423,0.0001802701,14.1345,0
0.9432001,-0.0001923552,14.148,0,0.9432001,-2.819867E-05,14.148,0
0.9441,-0.0003461051,14.1615,0,0.9441,-0.0002719158,14.1615,0
0.9450001,-0.0002151827,14.175,0,0.9450001,-0.000340734,14.175,0
0.9459,-0.0001507286,14.1885,0,0.9459,-0.0002796368,14.1885,0
0.9468,-5.337606E-05,14.202,0,0.9468,-0.0002682231,14.202,0
0.9477,-7.318227E-05,14.2155,0,0.9477,-0.0001812772,14.2155,0
0.9486,-0.0001064164,14.229,0,0.9486,-8.358892E-05,14.229,0
0.9495,0.0001574426,14.2425,0,0.9495,2.1149E-05,14.2425,0
0.9504,0.0003205921,14.256,0,0.9504,0.0002101472,14.256,0
0.9513,0.0001379721,14.2695,0,0.9513,0.0002558022,14.2695,0
0.9522,8.023193E-05,14.283,0,0.9522,0.0001930266,14.283,0
0.9531,0.0001574426,14.2965,0,0.9531,0.0002178683,14.2965,0
0.954,9.365987E-05,14.31,0,0.954,0.0002621805,14.31,0
0.9549,7.956054E-05,14.3235,0,0.9549,0.0001527428,14.3235,0
0.9558,0.000109102,14.337,0,0.9558,-5.740444E-05,14.337,0
0.9567,-3.289845E-05,14.3505,0,0.9567,-0.0002366674,14.3505,0
0.9576,-0.0001379721,14.364,0,0.9576,-0.0002178683,14.364,0
0.9585,-0.0001040665,14.3775,0,0.9585,-0.0002621805,14.3775,0
0.9594,-4.095522E-05,14.391,0,0.9594,-0.0002890364,14.391,0
0.9603,-1.275654E-05,14.4045,0,0.9603,-0.0002500954,14.4045,0
0.9612,-9.063859E-06,14.418,0,0.9612,-0.0001044022,14.418,0
0.9621,5.471885E-05,14.4315,0,0.9621,0.0002655375,14.4315,0
0.963,-1.107805E-05,14.445,0,0.963,0.0003837034,14.445,0
0.9639,3.726253E-05,14.4585,0,0.9639,8.258183E-05,14.4585,0
0.9648,-3.524834E-05,14.472,0,0.9648,0.0001359579,14.472,0
0.9657,7.284657E-05,14.4855,0,0.9657,8.82887E-05,14.4855,0
0.9666,0.0001433432,14.499,0,0.9666,-5.102617E-05,14.499,0
0.9675,-0.0001003738,14.5125,0,0.9675,-6.378271E-05,14.5125,0
0.9684,-0.0001430075,14.526,0,0.9684,-0.0001148089,14.526,0
0.9693,-7.553216E-05,14.5395,0,0.9693,-0.0002799725,14.5395,0
0.9702,-0.0001205158,14.553,0,0.9702,-0.0003360342,14.553,0
0.9711,-8.392462E-05,14.5665,0,0.9711,-0.0003595331,14.5665,0
0.972,-8.258183E-05,14.58,0,0.972,-0.0004263371,14.58,0
0.9729,-6.478981E-05,14.5935,0,0.9729,-0.0003951171,14.5935,0
0.9738,0.000112459,14.607,0,0.9738,-0.0002742657,14.607,0
0.9747,5.941863E-05,14.6205,0,0.9747,0.0001524071,14.6205,0
0.9756,-4.733349E-05,14.634,0,0.9756,0.0005837796,14.634,0
0.9765,5.035477E-06,14.6475,0,0.9765,0.000689189,14.6475,0
0.9774,2.383459E-05,14.661,0,0.9774,0.0004535287,14.661,0
0.9783,-0.0001373007,14.6745,0,0.9783,0.0002977645,14.6745,0
0.9792,-5.505455E-05,14.688,0,0.9792,0.0001769131,14.688,0
0.9801,8.96315E-05,14.7015,0,0.9801,-3.323415E-05,14.7015,0
0.981,-8.426032E-05,14.715,0,0.981,-8.82887E-05,14.715,0
0.9819,-5.270466E-05,14.7285,0,0.9819,-0.0001849699,14.7285,0
0.9828,4.36408E-06,14.742,0,0.9828,-0.0001577783,14.742,0
0.9837,-0.0001117876,14.7555,0,0.9837,6.243992E-05,14.7555,0
0.9846,-7.922484E-05,14.769,0,0.9846,7.620356E-05,14.769,0
0.9855,7.754635E-05,14.7825,0,0.9855,-0.0001218585,14.7825,0
0.9864,0.0001607996,14.796,0,0.9864,-0.0002544594,14.796,0
0.9873,0.0001809415,14.8095,0,0.9873,-0.0002615091,14.8095,0
0.9882,0.0001299153,14.823,0,0.9882,-0.0001453574,14.823,0
0.9891,4.699779E-05,14.8365,0,0.9891,1.409934E-05,14.8365,0
0.99,3.591974E-05,14.85,0,0.99,0.0002746014,14.85,0
0.9909,-2.18204E-05,14.8635,0,0.9909,0.0003252918,14.8635,0
0.9918,-0.0001950408,14.877,0,0.9918,0.0001795987,14.877,0
0.9927,-1.242084E-05,14.8905,0,0.9927,-2.014191E-05,14.8905,0
0.9936,0.0002662089,14.904,0,0.9936,-0.0002417029,14.904,0
0.9945,0.000148043,14.9175,0,0.9945,-0.0001171588,14.9175,0
0.9954,6.042573E-06,14.931,0,0.9954,-5.069047E-05,14.931,0
0.9963,-1.342794E-06,14.9445,0,0.9963,-0.0001218585,14.9445,0
0.9972,-4.733349E-05,14.958,0,0.9972,-0.0001171588,14.958,0
0.9981,-0.0001507286,14.9715,0,0.9981,-0.0002467384,14.9715,0
0.999,3.692683E-06,14.985,0,0.999,-0.0003743038,14.985,0
0.9999,2.1149E-05,14.9985,0,0.9999,-0.00039411,14.9985,0
1.0008,8.358892E-05,15.012,0,1.0008,-0.0004260014,15.012,0
1.0017,6.713969E-07,15.0255,0,1.0017,-0.0004176089,15.0255,0
1.0026,3.021286E-05,15.039,0,1.0026,-0.0002957504,15.039,0
1.0035,4.162661E-05,15.0525,0,1.0035,-6.042573E-05,15.0525,0
1.0044,-5.270466E-05,15.066,0,1.0044,-8.560311E-05,15.066,0
1.0053,-0.0001272297,15.0795,0,1.0053,5.471885E-05,15.0795,0
1.0062,-7.553216E-05,15.093,0,1.0062,0.0002769512,15.093,0
1.0071,-2.484169E-05,15.1065,0,1.0071,0.0006871748,15.1065,0
1.008,-0.0001003738,15.12,0,1.008,0.001009445,15.12,0
1.0089,-9.835965E-05,15.1335,0,1.0089,0.0007408865,15.1335,0
1.0098,-7.888914E-05,15.147,0,1.0098,0.0004706493,15.147,0
1.0107,-9.164568E-05,15.1605,0,1.0107,0.0002339818,15.1605,0
1.0116,-0.0001225299,15.174,0,1.0116,-3.390555E-05,15.174,0
1.0125,-1.779202E-05,15.1875,0,1.0125,-4.33051E-05,15.1875,0
1.0134,-4.867628E-05,15.201,0,1.0134,-0.0001211871,15.201,0
1.0143,5.001907E-05,15.2145,0,1.0143,-0.0002259251,15.2145,0
1.0152,4.934768E-05,15.228,0,1.0152,-0.0001423362,15.228,0
1.0161,-0.0001809415,15.2415,0,1.0161,-0.0001201801,15.2415,0
1.017,-5.035477E-05,15.255,0,1.017,-0.0001876554,15.255,0
1.0179,6.61326E-05,15.2685,0,1.0179,-0.0002064546,15.2685,0
1.0188,-0.0001524071,15.282,0,1.0188,-0.0001577783,15.282,0
1.0197,-9.701686E-05,15.2955,0,1.0197,-0.0001967193,15.2955,0
1.0206,8.291753E-05,15.309,0,1.0206,-0.0002373388,15.309,0
1.0215,-5.673304E-05,15.3225,0,1.0215,-7.418937E-05,15.3225,0
1.0224,6.915389E-05,15.336,0,1.0224,4.53193E-05,15.336,0
1.0233,0.000161471,15.3495,0,1.0233,-9.063859E-06,15.3495,0
1.0242,-6.277562E-05,15.363,0,1.0242,-5.706874E-06,15.363,0
1.0251,-0.0001312581,15.3765,0,1.0251,8.392462E-06,15.3765,0
1.026,-6.143282E-05,15.39,0,1.026,-4.800488E-05,15.39,0
1.0269,2.752728E-05,15.4035,0,1.0269,-0.0001564355,15.4035,0
1.0278,5.371176E-06,15.417,0,1.0278,-0.0002594949,15.417,0
1.0287,7.586786E-05,15.4305,0,1.0287,-0.0001779202,15.4305,0
1.0296,0.0001795987,15.444,0,1.0296,-9.164568E-05,15.444,0
1.0305,6.54612E-05,15.4575,0,1.0305,-0.0001144732,15.4575,0
1.0314,4.129091E-05,15.471,0,1.0314,-0.0001201801,15.471,0
1.0323,-3.927672E-05,15.4845,0,1.0323,1.477073E-05,15.4845,0
1.0332,-4.061952E-05,15.498,0,1.0332,-0.0001265583,15.498,0
1.0341,7.687495E-05,15.5115,0,1.0341,-0.0003367056,15.5115,0
1.035,6.814679E-05,15.525,0,1.035,-0.0001775845,15.525,0
1.0359,-3.692683E-06,15.5385,0,1.0359,-1.376364E-05,15.5385,0
1.0368,0.0001111162,15.552,0,1.0368,0.0001252155,15.552,0
1.0377,1.678492E-05,15.5655,0,1.0377,0.000288365,15.5655,0
1.0386,1.577783E-05,15.579,0,1.0386,0.0002440528,15.579,0
1.0395,1.376364E-05,15.5925,0,1.0395,0.0001188373,15.5925,0
1.0404,-1.376364E-05,15.606,0,1.0404,-4.129091E-05,15.606,0
1.0413,-3.927672E-05,15.6195,0,1.0413,-0.0002880293,15.6195,0
1.0422,-6.109713E-05,15.633,0,1.0422,-5.270466E-05,15.633,0
1.0431,-0.0001027237,15.6465,0,1.0431,0.0002218967,15.6465,0
1.044,-8.157473E-05,15.66,0,1.044,0.0003424124,15.66,0
1.0449,-0.0001383078,15.6735,0,1.0449,0.0002198825,15.6735,0
1.0458,-0.0001876554,15.687,0,1.0458,0.0003283131,15.687,0
1.0467,-5.404745E-05,15.7005,0,1.0467,0.0003877317,15.7005,0
1.0476,1.846342E-05,15.714,0,1.0476,0.000190341,15.714,0
1.0485,-3.323415E-05,15.7275,0,1.0485,0.0001138018,15.7275,0
1.0494,0.0001802701,15.741,0,1.0494,-6.713969E-07,15.741,0
1.0503,0.0003266346,15.7545,0,1.0503,-0.0001326009,15.7545,0
1.0512,0.0002383459,15.768,0,1.0512,-0.0001228656,15.768,0
1.0521,0.0001430075,15.7815,0,1.0521,-7.553216E-05,15.7815,0
1.053,0.0001604639,15.795,0,1.053,-6.61326E-05,15.795,0
1.0539,6.009003E-05,15.8085,0,1.0539,-6.378271E-05,15.8085,0
1.0548,6.143282E-05,15.822,0,1.0548,-0.0001416648,15.822,0
1.0557,2.450599E-05,15.8355,0,1.0557,-9.869535E-05,15.8355,0
1.0566,-0.0001728847,15.849,0,1.0566,-8.996719E-05,15.849,0
1.0575,-0.0001252155,15.8625,0,1.0575,-0.0001258869,15.8625,0
1.0584,-7.586786E-05,15.876,0,1.0584,-0.0002312963,15.876,0
1.0593,-0.000161471,15.8895,0,1.0593,-0.0002171969,15.8895,0
1.0602,-9.332418E-05,15.903,0,1.0602,-0.000189334,15.903,0
1.0611,9.063859E-06,15.9165,0,1.0611,-0.0002353246,15.9165,0
1.062,-9.735256E-05,15.93,0,1.062,-0.0001010452,15.93,0
1.0629,-0.0001315938,15.9435,0,1.0629,2.954147E-05,15.9435,0
1.0638,-8.996719E-05,15.957,0,1.0638,5.673304E-05,15.957,0
1.0647,-8.090334E-05,15.9705,0,1.0647,0.0001399863,15.9705,0
1.0656,-0.0001618067,15.984,0,1.0656,0.0001675135,15.984,0
1.0665,-0.0001127947,15.9975,0,1.0665,7.150377E-05,15.9975,0
1.0674,-3.524834E-05,16.011,0,1.0674,2.383459E-05,16.011,0
1.0683,0.0001262226,16.0245,0,1.0683,-8.291753E-05,16.0245,0
1.0692,0.000256138,16.038,0,1.0692,-0.0001315938,16.038,0
1.0701,0.0001138018,16.0515,0,1.0701,-0.0002269322,16.0515,0
1.071,2.047761E-05,16.065,0,1.071,-0.0002897078,16.065,0
1.0719,0.000105745,16.0785,0,1.0719,-0.0002292821,16.0785,0
1.0728,3.726253E-05,16.092,0,1.0728,0.0001822843,16.092,0
1.0737,1.544213E-05,16.1055,0,1.0737,0.0003004501,16.1055,0
1.0746,8.392462E-06,16.119,0,1.0746,0.0001174945,16.119,0
1.0755,-4.53193E-05,16.1325,0,1.0755,0.000119173,16.1325,0
1.0764,4.229801E-05,16.146,0,1.0764,-1.242084E-05,16.146,0
1.0773,1.846342E-05,16.1595,0,1.0773,-0.0002027619,16.1595,0
1.0782,-5.673304E-05,16.173,0,1.0782,-0.0001352865,16.173,0
1.0791,-2.014191E-06,16.1865,0,1.0791,-0.0001064164,16.1865,0
1.08,8.023193E-05,16.2,0,1.08,-8.023193E-05,16.2,0
1.0809,0.0001164874,16.2135,0,1.0809,0.0001406577,16.2135,0
1.0818,9.365987E-05,16.227,0,1.0818,0.0001339437,16.227,0
1.0827,-6.61326E-05,16.2405,0,1.0827,-2.853437E-05,16.2405,0
1.0836,-0.0002178683,16.254,0,1.0836,-0.0002171969,16.254,0
1.0845,-0.0001621424,16.2675,0,1.0845,-0.0003994812,16.2675,0
1.0854,-0.000207126,16.281,0,1.0854,-0.000443122,16.281,0
1.0863,-0.0003316701,16.2945,0,1.0863,-0.0003897459,16.2945,0
1.0872,-0.0002336461,16.308,0,1.0872,-0.0003199207,16.308,0
1.0881,-0.0001265583,16.3215,0,1.0881,2.349889E-06,16.3215,0
1.089,-0.0001487144,16.335,0,1.089,0.0003880674,16.335,0
1.0899,6.814679E-05,16.3485,0,1.0899,0.0005045548,16.3485,0
1.0908,0.0001393149,16.362,0,1.0908,0.0005690089,16.362,0
1.0917,6.378271E-06,16.3755,0,1.0917,0.0006549477,16.3755,0
1.0926,-0.0001540856,16.389,0,1.0926,0.0005092546,16.389,0
1.0935,-0.0001000381,16.4025,0,1.0935,0.0002326391,16.4025,0
1.0944,-1.040665E-05,16.416,0,1.0944,8.627451E-05,16.416,0
1.0953,7.284657E-05,16.4295,0,1.0953,-3.927672E-05,16.4295,0
1.0962,5.673304E-05,16.443,0,1.0962,-0.0002151827,16.443,0
1.0971,-0.000119173,16.4565,0,1.0971,-0.0003531548,16.4565,0
1.098,-0.0001571069,16.47,0,1.098,-0.0003873961,16.47,0
1.0989,-9.701686E-05,16.4835,0,1.0989,-0.0004424506,16.4835,0
1.0998,-0.0001242084,16.497,0,1.0998,-0.000274937,16.497,0
1.1007,-6.54612E-05,16.5105,0,1.1007,-0.0001245441,16.5105,0
1.1016,0.0002212253,16.524,0,1.1016,1.107805E-05,16.524,0
1.1025,0.0002138399,16.5375,0,1.1025,0.0002709087,16.5375,0
1.1034,0.0001527428,16.551,0,1.1034,0.0001621424,16.551,0
1.1043,0.0002044404,16.5645,0,1.1043,2.18204E-05,16.5645,0
1.1052,0.0001433432,16.578,0,1.1052,2.517739E-05,16.578,0
1.1061,-3.021286E-06,16.5915,0,1.1061,4.666209E-05,16.5915,0
1.107,5.706874E-06,16.605,0,1.107,-2.081331E-05,16.605,0
1.1079,-9.399558E-06,16.6185,0,1.1079,-9.567407E-05,16.6185,0
1.1088,-2.014191E-06,16.632,0,1.1088,-0.0001775845,16.632,0
1.1097,-9.164568E-05,16.6455,0,1.1097,-9.668116E-05,16.6455,0
1.1106,-8.459602E-05,16.659,0,1.1106,-5.438316E-05,16.659,0
1.1115,-1.980621E-05,16.6725,0,1.1115,-3.189136E-05,16.6725,0
1.1124,4.733349E-05,16.686,0,1.1124,4.028382E-05,16.686,0
1.1133,2.18204E-05,16.6995,0,1.1133,0.0002051118,16.6995,0
1.1142,7.721065E-06,16.713,0,1.1142,0.000105745,16.713,0
1.1151,6.848249E-05,16.7265,0,1.1151,-3.591974E-05,16.7265,0
1.116,6.713969E-07,16.74,0,1.116,0.0001077592,16.74,0
1.1169,-7.418937E-05,16.7535,0,1.1169,-7.049668E-06,16.7535,0
1.1178,-0.0001252155,16.767,0,1.1178,-9.903105E-05,16.767,0
1.1187,-9.399557E-05,16.7805,0,1.1187,-9.903105E-05,16.7805,0
1.1196,-6.915389E-05,16.794,0,1.1196,-0.0001654994,16.794,0
1.1205,-8.123904E-05,16.8075,0,1.1205,-0.0001889983,16.8075,0
1.1214,-5.673304E-05,16.821,0,1.1214,-0.0002682231,16.821,0
1.1223,9.030289E-05,16.8345,0,1.1223,-0.0003638972,16.8345,0
1.1232,5.236896E-05,16.848,0,1.1232,-0.0003803464,16.848,0
1.1241,1.812772E-05,16.8615,0,1.1241,-0.0003209277,16.8615,0
1.125,5.606165E-05,16.875,0,1.125,-0.0002903792,16.875,0
1.1259,0.0001443503,16.8885,0,1.1259,-0.0002239109,16.8885,0
1.1268,-1.779202E-05,16.902,0,1.1268,-4.46479E-05,16.902,0
1.1277,-4.599069E-05,16.9155,0,1.1277,0.0001117876,16.9155,0
1.1286,1.242084E-05,16.929,0,1.1286,0.0001839628,16.929,0
1.1295,-7.553216E-05,16.9425,0,1.1295,0.0004817273,16.9425,0
1.1304,-3.524834E-05,16.956,0,1.1304,0.0006381628,16.956,0
1.1313,9.802396E-05,16.9695,0,1.1313,0.0003474479,16.9695,0
1.1322,-7.754635E-05,16.983,0,1.1322,0.0002225681,16.983,0
1.1331,-0.0001131304,16.9965,0,1.1331,0.0002803082,16.9965,0
1.134,-3.793393E-05,17.01,0,1.134,0.0002259251,17.01,0
1.1349,-3.927672E-05,17.0235,0,1.1349,0.0002225681,17.0235,0
1.1358,2.987716E-05,17.037,0,1.1358,0.0001795987,17.037,0
1.1367,9.365987E-05,17.0505,0,1.1367,0.0001349508,17.0505,0
1.1376,1.712062E-05,17.064,0,1.1376,0.0001594568,17.064,0
1.1385,4.061952E-05,17.0775,0,1.1385,8.224613E-05,17.0775,0
1.1394,0.0001010452,17.091,0,1.1394,-0.0001047379,17.091,0
1.1403,-7.586786E-05,17.1045,0,1.1403,-5.841154E-05,17.1045,0
1.1412,-7.553216E-05,17.118,0,1.1412,-5.673304E-05,17.118,0
1.1421,3.994812E-05,17.1315,0,1.1421,-0.0001520714,17.1315,0
1.143,-3.659113E-05,17.145,0,1.143,-0.0001413291,17.145,0
1.1439,-0.0001312581,17.1585,0,1.1439,-0.0001735561,17.1585,0
1.1448,-8.358892E-05,17.172,0,1.1448,-0.0002289464,17.172,0
1.1457,4.46479E-05,17.1855,0,1.1457,-0.0001507286,17.1855,0
1.1466,-9.265278E-05,17.199,0,1.1466,-0.0001816129,17.199,0
1.1475,-0.0001010452,17.2125,0,1.1475,-0.0002024262,17.2125,0
1.1484,1.980621E-05,17.226,0,1.1484,-0.000185977,17.226,0
1.1493,3.692683E-05,17.2395,0,1.1493,-0.00027393,17.2395,0
1.1502,3.390555E-05,17.253,0,1.1502,-0.0002265965,17.253,0
1.1511,-9.399557E-05,17.2665,0,1.1511,-0.0002702373,17.2665,0
1.152,1.242084E-05,17.28,0,1.152,-0.0003353628,17.28,0
1.1529,0.0001856413,17.2935,0,1.1529,-0.0002611734,17.2935,0
1.1538,1.007095E-06,17.307,0,1.1538,4.46479E-05,17.307,0
1.1547,5.941863E-05,17.3205,0,1.1547,0.0002927291,17.3205,0
1.1556,0.0002789654,17.334,0,1.1556,0.000105745,17.334,0
1.1565,0.0003111925,17.3475,0,1.1565,0.0001940337,17.3475,0
1.1574,0.0004696422,17.361,0,1.1574,0.0001366293,17.361,0
1.1583,0.0002306248,17.3745,0,1.1583,-3.692683E-05,17.3745,0
1.1592,1.443504E-05,17.388,0,1.1592,-3.591974E-05,17.388,0
1.1601,8.560311E-05,17.4015,0,1.1601,-3.121996E-05,17.4015,0
1.161,0.0001138018,17.415,0,1.161,-6.478981E-05,17.415,0
1.1619,0.0001443503,17.4285,0,1.1619,-0.000102388,17.4285,0
1.1628,0.0001554284,17.442,0,1.1628,-0.0003504692,17.442,0
1.1637,6.61326E-05,17.4555,0,1.1637,-0.0004061952,17.4555,0
1.1646,-0.0001037308,17.469,0,1.1646,-0.0004441291,17.469,0
1.1655,-0.0001809415,17.4825,0,1.1655,-0.000482063,17.4825,0
1.1664,-0.0002464027,17.496,0,1.1664,-0.0002084688,17.496,0
1.1673,-0.0002484169,17.5095,0,1.1673,0.0004394293,17.5095,0
1.1682,-0.0002084688,17.523,0,1.1682,0.000731487,17.523,0
1.1691,-0.0001047379,17.5365,0,1.1691,0.0005152972,17.5365,0
1.17,-0.0001879911,17.55,0,1.17,0.0004347295,17.55,0
1.1709,-0.0002057832,17.5635,0,1.1709,0.0003259632,17.5635,0
1.1718,-3.256275E-05,17.577,0,1.1718,0.0001930266,17.577,0
1.1727,-9.869535E-05,17.5905,0,1.1727,0.0001346151,17.5905,0
1.1736,-0.0002537881,17.604,0,1.1736,8.023193E-05,17.604,0
1.1745,-0.0001983978,17.6175,0,1.1745,-2.349889E-05,17.6175,0
1.1754,-0.000175906,17.631,0,1.1754,-0.0001661708,17.631,0
1.1763,-0.0001218585,17.6445,0,1.1763,-0.0001654994,17.6445,0
1.1772,1.712062E-05,17.658,0,1.1772,-2.618448E-05,17.658,0
1.1781,0.0001138018,17.6715,0,1.1781,-1.846342E-05,17.6715,0
1.179,2.551309E-05,17.685,0,1.179,-0.0001467002,17.685,0
1.1799,4.599069E-05,17.6985,0,1.1799,-0.0001940337,17.6985,0
1.1808,-3.356985E-07,17.712,0,1.1808,-0.0001010452,17.712,0
1.1817,5.941863E-05,17.7255,0,1.1817,-0.0001722133,17.7255,0
1.1826,0.0001232013,17.739,0,1.1826,-0.000190341,17.739,0
1.1835,5.337606E-05,17.7525,0,1.1835,-4.599069E-05,17.7525,0
1.1844,-4.095522E-05,17.766,0,1.1844,6.478981E-05,17.766,0
1.1853,4.53193E-05,17.7795,0,1.1853,-2.18204E-05,17.7795,0
1.1862,6.411841E-05,17.793,0,1.1862,-0.0001084306,17.793,0
1.1871,-0.0001258869,17.8065,0,1.1871,-0.0001816129,17.8065,0
1.188,-0.0001033951,17.82,0,1.188,-0.0001497215,17.82,0
1.1889,-3.726253E-05,17.8335,0,1.1889,-3.189136E-05,17.8335,0
1.1898,2.24918E-05,17.847,0,1.1898,4.766919E-05,17.847,0
1.1907,-1.275654E-05,17.8605,0,1.1907,0.000203769,17.8605,0
1.1916,1.107805E-05,17.874,0,1.1916,5.236896E-05,17.874,0
1.1925,3.860533E-05,17.8875,0,1.1925,-0.0001134661,17.8875,0
1.1934,-3.256275E-05,17.901,0,1.1934,-0.0001054093,17.901,0
1.1943,-6.277562E-05,17.9145,0,1.1943,8.728161E-06,17.9145,0
1.1952,7.620356E-05,17.928,0,1.1952,-2.517739E-05,17.928,0
1.1961,9.097429E-05,17.9415,0,1.1961,-5.102617E-05,17.9415,0
1.197,-5.874724E-05,17.955,0,1.197,6.277562E-05,17.955,0
1.1979,-8.72816E-05,17.9685,0,1.1979,3.189136E-05,17.9685,0
1.1988,-2.450599E-05,17.982,0,1.1988,-0.0001279011,17.982,0
1.1997,-0.0001413291,17.9955,0,1.1997,-0.0001587854,17.9955,0
1.2006,-0.0001228656,18.009,0,1.2006,-8.795301E-05,18.009,0
1.2015,-3.826963E-05,18.0225,0,1.2015,-9.130999E-05,18.0225,0
1.2024,-2.652018E-05,18.036,0,1.2024,4.129091E-05,18.036,0
1.2033,-1.242084E-05,18.0495,0,1.2033,-6.478981E-05,18.0495,0
1.2042,5.169757E-05,18.063,0,1.2042,-0.0001641566,18.063,0
1.2051,5.539025E-05,18.0765,0,1.2051,-0.0001685206,18.0765,0
1.206,5.941863E-05,18.09,0,1.206,-8.493171E-05,18.09,0
1.2069,0.0001285725,18.1035,0,1.2069,-9.130999E-05,18.1035,0
1.2078,9.365987E-05,18.117,0,1.2078,9.466698E-05,18.117,0
1.2087,7.486076E-05,18.1305,0,1.2087,6.344701E-05,18.1305,0
1.2096,0.0001430075,18.144,0,1.2096,-0.0001822843,18.144,0
1.2105,-1.712062E-05,18.1575,0,1.2105,-0.0002145113,18.1575,0
1.2114,-3.256275E-05,18.171,0,1.2114,-0.0001104448,18.171,0
1.2123,0.0001285725,18.1845,0,1.2123,0.0001983978,18.1845,0
1.2132,-9.433127E-05,18.198,0,1.2132,0.0005095903,18.198,0
1.2141,-0.000175906,18.2115,0,1.2141,0.000542153,18.2115,0
1.215,-0.0001007095,18.225,0,1.215,0.000509926,18.225,0
1.2159,-0.000109102,18.2385,0,1.2159,0.0003669185,18.2385,0
1.2168,-3.994812E-05,18.252,0,1.2168,0.0001621424,18.252,0
1.2177,-8.493171E-05,18.2655,0,1.2177,8.761731E-05,18.2655,0
1.2186,-4.061952E-05,18.279,0,1.2186,9.735256E-06,18.279,0
1.2195,4.061952E-05,18.2925,0,1.2195,-1.174945E-05,18.2925,0
1.2204,9.298848E-05,18.306,0,1.2204,-5.203327E-05,18.306,0
1.2213,8.258183E-05,18.3195,0,1.2213,-2.21561E-05,18.3195,0
1.2222,6.948959E-05,18.333,0,1.2222,-4.39765E-05,18.333,0
1.2231,0.0002319677,18.3465,0,1.2231,-0.0001399863,18.3465,0
1.224,0.0001873197,18.36,0,1.224,-7.620356E-05,18.36,0
1.2249,-4.699779E-06,18.3735,0,1.2249,-9.701686E-05,18.3735,0
1.2258,-9.097429E-05,18.387,0,1.2258,-0.000345098,18.387,0
1.2267,2.316319E-05,18.4005,0,1.2267,-0.0002648661,18.4005,0
1.2276,-4.129091E-05,18.414,0,1.2276,-7.888914E-05,18.414,0
1.2285,-0.0001228656,18.4275,0,1.2285,-0.0001211871,18.4275,0
1.2294,-7.284657E-05,18.441,0,1.2294,-0.0001272297,18.441,0
1.2303,9.063859E-05,18.4545,0,1.2303,-0.0001252155,18.4545,0
1.2312,-7.016098E-05,18.468,0,1.2312,-9.768826E-05,18.468,0
1.2321,-0.000130251,18.4815,0,1.2321,-0.0001134661,18.4815,0
1.233,4.263371E-05,18.495,0,1.233,-0.0001148089,18.495,0
1.2339,-3.021286E-06,18.5085,0,1.2339,3.457694E-05,18.5085,0
1.2348,-0.0001849699,18.522,0,1.2348,4.934768E-05,18.522,0
1.2357,-0.0002111543,18.5355,0,1.2357,-0.0002014191,18.5355,0
1.2366,-0.0001121233,18.549,0,1.2366,-0.0003467765,18.549,0
1.2375,-0.0001084306,18.5625,0,1.2375,-0.0002534524,18.5625,0
1.2384,-7.922484E-05,18.576,0,1.2384,-0.0002088045,18.576,0
1.2393,0.0002420386,18.5895,0,1.2393,2.652018E-05,18.5895,0
1.2402,0.00024271,18.603,0,1.2402,0.000457557,18.603,0
1.2411,0.0001910124,18.6165,0,1.2411,0.0005743801,18.6165,0
1.242,0.000281651,18.63,0,1.242,0.0002400244,18.63,0
1.2429,0.0001319295,18.6435,0,1.2429,0.0001248798,18.6435,0
1.2438,4.766919E-05,18.657,0,1.2438,6.311131E-05,18.657,0
1.2447,-1.342794E-06,18.6705,0,1.2447,4.028382E-05,18.6705,0
1.2456,-0.000126894,18.684,0,1.2456,1.678492E-05,18.684,0
1.2465,-0.0001044022,18.6975,0,1.2465,-0.000144686,18.6975,0
1.2474,-3.021286E-06,18.711,0,1.2474,-0.0002474098,18.711,0
1.2483,-5.639734E-05,18.7245,0,1.2483,-0.0002044404,18.7245,0
1.2492,3.860533E-05,18.738,0,1.2492,-0.0002077974,18.738,0
1.2501,5.169757E-05,18.7515,0,1.2501,-0.0004004883,18.7515,0
1.251,-0.0001104448,18.765,0,1.251,-0.0003739681,18.765,0
1.2519,-0.0001252155,18.7785,0,1.2519,-0.0001705348,18.7785,0
1.2528,-7.418937E-05,18.792,0,1.2528,-7.989624E-05,18.792,0
1.2537,2.987716E-05,18.8055,0,1.2537,1.409934E-05,18.8055,0
1.2546,-4.699779E-06,18.819,0,1.2546,0.0002715801,18.819,0
1.2555,-5.807584E-05,18.8325,0,1.2555,0.0004723278,18.8325,0
1.2564,-8.89601E-05,18.846,0,1.2564,0.0004216373,18.846,0
1.2573,-0.0001822843,18.8595,0,1.2573,0.0001285725,18.8595,0
1.2582,-9.768826E-05,18.873,0,1.2582,0.0001809415,18.873,0
1.2591,-7.150377E-05,18.8865,0,1.2591,7.922484E-05,18.8865,0
1.26,3.356985E-07,18.9,0,1.26,-7.721065E-06,18.9,0
1.2609,0.0001487144,18.9135,0,1.2609,-0.0001000381,18.9135,0
1.2618,0.0001017166,18.927,0,1.2618,-0.0001413291,18.927,0
1.2627,6.61326E-05,18.9405,0,1.2627,-0.0002608377,18.9405,0
1.2636,4.766919E-05,18.954,0,1.2636,-0.000239353,18.954,0
1.2645,-6.076142E-05,18.9675,0,1.2645,-8.224613E-05,18.9675,0
1.2654,-3.356985E-07,18.981,0,1.2654,4.39765E-05,18.981,0
1.2663,-2.21561E-05,18.9945,0,1.2663,9.735256E-05,18.9945,0
1.2672,3.189136E-05,19.008,0,1.2672,5.505455E-05,19.008,0
1.2681,2.685588E-06,19.0215,0,1.2681,8.090334E-05,19.0215,0
1.269,6.78111E-05,19.035,0,1.269,5.606165E-05,19.035,0
1.2699,0.0001285725,19.0485,0,1.2699,-1.846342E-05,19.0485,0
1.2708,0.0001265583,19.062,0,1.2708,-0.0001104448,19.062,0
1.2717,-4.196231E-05,19.0755,0,1.2717,5.572595E-05,19.0755,0
1.2726,-0.0001681849,19.089,0,1.2726,3.189136E-05,19.089,0
1.2735,-5.941863E-05,19.1025,0,1.2735,-3.189136E-05,19.1025,0
1.2744,-7.251087E-05,19.116,0,1.2744,-0.0001661708,19.116,0
1.2753,-0.0002440528,19.1295,0,1.2753,-0.0001654994,19.1295,0
1.2762,-0.0001638209,19.143,0,1.2762,-0.0001426719,19.143,0
1.2771,-5.069047E-05,19.1565,0,1.2771,-0.0002450599,19.1565,0
1.278,-0.0001540856,19.17,0,1.278,-0.0002081331,19.17,0
1.2789,-6.74754E-05,19.1835,0,1.2789,-0.0001352865,19.1835,0
1.2798,3.356985E-07,19.197,0,1.2798,-8.056764E-05,19.197,0
1.2807,9.835965E-05,19.2105,0,1.2807,5.539025E-05,19.2105,0
1.2816,9.231708E-05,19.224,0,1.2816,8.426032E-05,19.224,0
1.2825,1.342794E-05,19.2375,0,1.2825,-2.081331E-05,19.2375,0
1.2834,-9.634547E-05,19.251,0,1.2834,1.510643E-05,19.251,0
1.2843,2.383459E-05,19.2645,0,1.2843,8.728161E-06,19.2645,0
1.2852,4.129091E-05,19.278,0,1.2852,3.726253E-05,19.278,0
1.2861,0.0001218585,19.2915,0,1.2861,6.713969E-07,19.2915,0
1.287,0.0001084306,19.305,0,1.287,-9.903105E-05,19.305,0
1.2879,8.023193E-05,19.3185,0,1.2879,-0.0001201801,19.3185,0
1.2888,-7.956054E-05,19.332,0,1.2888,-6.57969E-05,19.332,0
1.2897,-6.344701E-05,19.3455,0,1.2897,-5.136187E-05,19.3455,0
1.2906,0.000105745,19.359,0,1.2906,-9.970245E-05,19.359,0
1.2915,3.793393E-05,19.3725,0,1.2915,-3.121996E-05,19.3725,0
1.2924,-9.970245E-05,19.386,0,1.2924,2.349889E-06,19.386,0
1.2933,-3.524834E-05,19.3995,0,1.2933,-0.0001594568,19.3995,0
1.2942,-6.378271E-06,19.413,0,1.2942,-2.987716E-05,19.413,0
1.2951,-4.53193E-05,19.4265,0,1.2951,7.486076E-05,19.4265,0
1.296,-4.53193E-05,19.44,0,1.296,6.277562E-05,19.44,0
1.2969,-4.733349E-05,19.4535,0,1.2969,0.0002400244,19.4535,0
1.2978,-3.222705E-05,19.467,0,1.2978,0.0004411078,19.467,0
1.2987,-7.217517E-05,19.4805,0,1.2987,0.0003937743,19.4805,0
1.2996,2.047761E-05,19.494,0,1.2996,0.0001638209,19.494,0
1.3005,3.189136E-05,19.5075,0,1.3005,0.0001064164,19.5075,0
1.3014,-4.46479E-05,19.521,0,1.3014,9.735256E-06,19.521,0
1.3023,-0.0001077592,19.5345,0,1.3023,-4.43122E-05,19.5345,0
1.3032,7.821774E-05,19.548,0,1.3032,-3.323415E-05,19.548,0
1.3041,0.0001544213,19.5615,0,1.3041,-0.000186984,19.5615,0
1.305,5.035477E-06,19.575,0,1.305,-0.0001967193,19.575,0
1.3059,-2.383459E-05,19.5885,0,1.3059,-0.0001299153,19.5885,0
1.3068,3.390555E-05,19.602,0,1.3068,-0.0002057832,19.602,0
1.3077,4.934768E-05,19.6155,0,1.3077,-0.0001326009,19.6155,0
1.3086,-4.699779E-06,19.629,0,1.3086,8.090334E-05,19.629,0
1.3095,1.007095E-05,19.6425,0,1.3095,0.0002185397,19.6425,0
1.3104,-5.706874E-06,19.656,0,1.3104,0.0001567712,19.656,0
1.3113,1.947051E-05,19.6695,0,1.3113,4.53193E-05,19.6695,0
1.3122,6.915389E-05,19.683,0,1.3122,0.0001554284,19.683,0
1.3131,-5.102617E-05,19.6965,0,1.3131,0.0001963836,19.6965,0
1.314,-4.095522E-05,19.71,0,1.314,1.913481E-05,19.71,0
1.3149,-2.652018E-05,19.7235,0,1.3149,-0.0001322652,19.7235,0
1.3158,-0.0002544594,19.737,0,1.3158,-0.0002145113,19.737,0
1.3167,-0.0002447242,19.7505,0,1.3167,-0.0001829557,19.7505,0
1.3176,-8.392462E-05,19.764,0,1.3176,-0.0002373388,19.764,0
1.3185,-0.0001923552,19.7775,0,1.3185,-0.0002205539,19.7775,0
1.3194,6.881819E-05,19.791,0,1.3194,-0.0001084306,19.791,0
1.3203,0.0003954528,19.8045,0,1.3203,-9.903105E-05,19.8045,0
1.3212,0.0003071641,19.818,0,1.3212,-0.000185977,19.818,0
1.3221,3.894102E-05,19.8315,0,1.3221,-0.0001070878,19.8315,0
1.323,4.766919E-05,19.845,0,1.323,8.493171E-05,19.845,0
1.3239,0.0001997406,19.8585,0,1.3239,9.835965E-05,19.8585,0
1.3248,0.0002500954,19.872,0,1.3248,5.203327E-05,19.872,0
1.3257,8.82887E-05,19.8855,0,1.3257,-6.176852E-05,19.8855,0
1.3266,-0.0001010452,19.899,0,1.3266,-5.270466E-05,19.899,0
1.3275,-0.0001413291,19.9125,0,1.3275,-9.265278E-05,19.9125,0
1.3284,-0.0001299153,19.926,0,1.3284,-0.0002420386,19.926,0
1.3293,-0.0001678492,19.9395,0,1.3293,-9.164568E-05,19.9395,0
1.3302,-0.00024271,19.953,0,1.3302,5.371176E-05,19.953,0
1.3311,-0.000197055,19.9665,0,1.3311,5.841154E-05,19.9665,0
1.332,-0.0001433432,19.98,0,1.332,0.0001544213,19.98,0
1.3329,3.591974E-05,19.9935,0,1.3329,7.418937E-05,19.9935,0
1.3338,0.0002796368,20.007,0,1.3338,-3.726253E-05,20.007,0
1.3347,0.0001272297,20.0205,0,1.3347,-5.941863E-05,20.0205,0
1.3356,-5.505455E-05,20.034,0,1.3356,-1.107805E-05,20.034,0
1.3365,1.107805E-05,20.0475,0,1.3365,3.692683E-05,20.0475,0
1.3374,0.0001574426,20.061,0,1.3374,4.666209E-05,20.061,0
1.3383,0.0001326009,20.0745,0,1.3383,-0.0001889983,20.0745,0
1.3392,-6.176852E-05,20.088,0,1.3392,-0.000288365,20.088,0
1.3401,-2.18204E-05,20.1015,0,1.3401,-0.0003555047,20.1015,0
1.341,2.786297E-05,20.115,0,1.341,-0.0005498741,20.115,0
1.3419,-9.063859E-06,20.1285,0,1.3419,-0.0003558404,20.1285,0
1.3428,-6.948959E-05,20.142,0,1.3428,0.0001916838,20.142,0
1.3437,7.721065E-06,20.1555,0,1.3437,0.000633463,20.1555,0
1.3446,0.0002091402,20.169,0,1.3446,0.0006086213,20.169,0
1.3455,7.284657E-05,20.1825,0,1.3455,0.0004239872,20.1825,0
1.3464,-0.0001742275,20.196,0,1.3464,0.0001688563,20.196,0
1.3473,-5.035477E-05,20.2095,0,1.3473,7.049668E-06,20.2095,0
1.3482,-1.174945E-05,20.223,0,1.3482,-7.351797E-05,20.223,0
1.3491,-9.433127E-05,20.2365,0,1.3491,-1.611353E-05,20.2365,0
1.35,3.457694E-05,20.25,0,1.35,-1.242084E-05,20.25,0
1.3509,1.846342E-05,20.2635,0,1.3509,-7.586786E-05,20.2635,0
1.3518,1.309224E-05,20.277,0,1.3518,-5.606165E-05,20.277,0
1.3527,3.390555E-05,20.2905,0,1.3527,8.023193E-05,20.2905,0
1.3536,-3.390555E-05,20.304,0,1.3536,7.016098E-05,20.304,0
1.3545,-2.987716E-05,20.3175,0,1.3545,-5.539025E-05,20.3175,0
1.3554,6.61326E-05,20.331,0,1.3554,-0.0001064164,20.331,0
1.3563,-6.881819E-05,20.3445,0,1.3563,-9.097429E-05,20.3445,0
1.3572,-5.270466E-05,20.358,0,1.3572,-0.0002084688,20.358,0
1.3581,2.1149E-05,20.3715,0,1.3581,-0.0002615091,20.3715,0
1.359,-5.572595E-05,20.385,0,1.359,-0.0001537499,20.385,0
1.3599,-0.0001453574,20.3985,0,1.3599,-0.0001490501,20.3985,0
1.3608,-1.242084E-05,20.412,0,1.3608,-6.143282E-05,20.412,0
1.3617,8.560311E-05,20.4255,0,1.3617,6.143282E-05,20.4255,0
1.3626,-0.0001013809,20.439,0,1.3626,1.577783E-05,20.439,0
1.3635,-8.761731E-05,20.4525,0,1.3635,6.713969E-07,20.4525,0
1.3644,-1.812772E-05,20.466,0,1.3644,3.323415E-05,20.466,0
1.3653,-7.016098E-05,20.4795,0,1.3653,-2.752728E-05,20.4795,0
1.3662,-0.0001117876,20.493,0,1.3662,1.779202E-05,20.493,0
1.3671,-0.0001245441,20.5065,0,1.3671,-2.987716E-05,20.5065,0
1.368,-0.0001171588,20.52,0,1.368,-6.210422E-05,20.52,0
1.3689,7.385367E-05,20.5335,0,1.3689,-8.090334E-05,20.5335,0
1.3698,9.231708E-05,20.547,0,1.3698,-7.553216E-05,20.547,0
1.3707,-1.980621E-05,20.5605,0,1.3707,-0.0002212253,20.5605,0
1.3716,5.539025E-05,20.574,0,1.3716,-0.0001070878,20.574,0
1.3725,4.53193E-05,20.5875,0,1.3725,0.0001849699,20.5875,0
1.3734,-1.309224E-05,20.601,0,1.3734,0.0001349508,20.601,0
1.3743,-3.189136E-05,20.6145,0,1.3743,0.0001044022,20.6145,0
1.3752,-1.644922E-05,20.628,0,1.3752,0.0001473716,20.628,0
1.3761,-4.800488E-05,20.6415,0,1.3761,0.000189334,20.6415,0
1.377,-6.109713E-05,20.655,0,1.377,0.0001050736,20.655,0
1.3779,-4.766919E-05,20.6685,0,1.3779,-1.745632E-05,20.6685,0
1.3788,1.846342E-05,20.682,0,1.3788,-0.0001366293,20.682,0
1.3797,4.599069E-05,20.6955,0,1.3797,-5.404745E-05,20.6955,0
1.3806,9.097429E-05,20.709,0,1.3806,-9.399558E-06,20.709,0
1.3815,4.229801E-05,20.7225,0,1.3815,-0.0001534142,20.7225,0
1.3824,-4.565499E-05,20.736,0,1.3824,-0.0002856794,20.736,0
1.3833,-0.0002259251,20.7495,0,1.3833,-0.0001789273,20.7495,0
1.3842,-0.0001641566,20.763,0,1.3842,-8.92958E-05,20.763,0
1.3851,2.349889E-06,20.7765,0,1.3851,-0.0001252155,20.7765,0
1.386,-7.821774E-05,20.79,0,1.386,2.719158E-05,20.79,0
1.3869,2.24918E-05,20.8035,0,1.3869,0.0001393149,20.8035,0
1.3878,0.0002594949,20.817,0,1.3878,0.000193698,20.817,0
1.3887,0.0002776226,20.8305,0,1.3887,8.023193E-05,20.8305,0
1.3896,0.0001211871,20.844,0,1.3896,-3.558404E-05,20.844,0
1.3905,2.383459E-05,20.8575,0,1.3905,2.349889E-06,20.8575,0
1.3914,-0.0001221943,20.871,0,1.3914,-9.970245E-05,20.871,0
1.3923,-5.807584E-05,20.8845,0,1.3923,-1.007095E-06,20.8845,0
1.3932,-1.275654E-05,20.898,0,1.3932,0.000239353,20.898,0
1.3941,3.356985E-06,20.9115,0,1.3941,0.0001483787,20.9115,0
1.395,-1.443504E-05,20.925,0,1.395,-6.378271E-06,20.925,0
1.3959,7.016098E-05,20.9385,0,1.3959,-7.486076E-05,20.9385,0
1.3968,-5.304036E-05,20.952,0,1.3968,-4.196231E-05,20.952,0
1.3977,3.323415E-05,20.9655,0,1.3977,-8.056764E-05,20.9655,0
1.3986,0.0003262989,20.979,0,1.3986,-0.0001346151,20.979,0
1.3995,9.533837E-05,20.9925,0,1.3995,-4.36408E-05,20.9925,0
1.4004,-0.0002242466,21.006,0,1.4004,-1.913481E-05,21.006,0
1.4013,-0.0002067903,21.0195,0,1.4013,-6.009003E-05,21.0195,0
1.4022,-0.0001248798,21.033,0,1.4022,-6.814679E-05,21.033,0
1.4031,-0.0001225299,21.0465,0,1.4031,-4.29694E-05,21.0465,0
1.404,6.277562E-05,21.06,0,1.404,-6.176852E-05,21.06,0
1.4049,0.0002655375,21.0735,0,1.4049,1.443504E-05,21.0735,0
1.4058,0.0003071641,21.087,0,1.4058,-3.424125E-05,21.087,0
1.4067,0.0001332723,21.1005,0,1.4067,-5.001907E-05,21.1005,0
1.4076,9.466698E-05,21.114,0,1.4076,-3.860533E-05,21.114,0
1.4085,-4.33051E-05,21.1275,0,1.4085,-1.107805E-05,21.1275,0
1.4094,-0.0001366293,21.141,0,1.4094,-0.0001121233,21.141,0
1.4103,-0.0001765774,21.1545,0,1.4103,2.517739E-05,21.1545,0
1.4112,-0.0001574426,21.168,0,1.4112,7.956054E-05,21.168,0
1.4121,-9.567407E-05,21.1815,0,1.4121,5.035477E-06,21.1815,0
1.413,-7.989624E-05,21.195,0,1.413,7.821774E-05,21.195,0
1.4139,-2.652018E-05,21.2085,0,1.4139,2.383459E-05,21.2085,0
1.4148,1.007095E-05,21.222,0,1.4148,-0.0001111162,21.222,0
1.4157,-6.6804E-05,21.2355,0,1.4157,-8.86244E-05,21.2355,0
1.4166,-0.0001379721,21.249,0,1.4166,-5.136187E-05,21.249,0
1.4175,-0.0001517357,21.2625,0,1.4175,-8.392462E-06,21.2625,0
1.4184,-0.0001218585,21.276,0,1.4184,-3.021286E-06,21.276,0
1.4193,-1.644922E-05,21.2895,0,1.4193,-6.54612E-05,21.2895,0
1.4202,5.337606E-05,21.303,0,1.4202,7.049668E-06,21.303,0
1.4211,0.0002158541,21.3165,0,1.4211,-6.948959E-05,21.3165,0
1.422,0.0002668803,21.33,0,1.422,-0.0001359579,21.33,0
1.4229,8.89601E-05,21.3435,0,1.4229,-0.0001050736,21.3435,0
1.4238,-4.129091E-05,21.357,0,1.4238,-1.107805E-05,21.357,0
1.4247,4.095522E-05,21.3705,0,1.4247,0.0001352865,21.3705,0
1.4256,6.54612E-05,21.384,0,1.4256,0.0001285725,21.384,0
1.4265,-0.0001097734,21.3975,0,1.4265,0.0001178302,21.3975,0
1.4274,-0.0001221943,21.411,0,1.4274,8.82887E-05,21.411,0
1.4283,4.129091E-05,21.4245,0,1.4283,5.740444E-05,21.4245,0
1.4292,1.846342E-05,21.438,0,1.4292,4.599069E-05,21.438,0
1.4301,-0.0001332723,21.4515,0,1.4301,5.169757E-05,21.4515,0
1.431,-5.941863E-05,21.465,0,1.431,-2.21561E-05,21.465,0
1.4319,-4.129091E-05,21.4785,0,1.4319,-0.0001121233,21.4785,0
1.4328,1.947051E-05,21.492,0,1.4328,-0.0002860151,21.492,0
1.4337,2.853437E-05,21.5055,0,1.4337,-0.0002806439,21.5055,0
1.4346,-0.000175906,21.519,0,1.4346,-0.0002111543,21.519,0
1.4355,-0.0001426719,21.5325,0,1.4355,-0.0003078355,21.5325,0
1.4364,-1.980621E-05,21.546,0,1.4364,-0.0003135424,21.546,0
1.4373,-0.0001413291,21.5595,0,1.4373,-0.0001027237,21.5595,0
1.4382,-0.0001389792,21.573,0,1.4382,0.0001070878,21.573,0
1.4391,6.344701E-05,21.5865,0,1.4391,1.007095E-06,21.5865,0
1.44,-3.927672E-05,21.6,0,1.44,-5.471885E-05,21.6,0
1.4409,-5.404745E-05,21.6135,0,1.4409,7.418937E-05,21.6135,0
1.4418,4.666209E-05,21.627,0,1.4418,0.0002574807,21.627,0
1.4427,0.000193698,21.6405,0,1.4427,0.0003370413,21.6405,0
1.4436,4.49836E-05,21.654,0,1.4436,0.0003336843,21.654,0
1.4445,3.860533E-05,21.6675,0,1.4445,0.0002554666,21.6675,0
1.4454,2.920577E-05,21.681,0,1.4454,0.0001218585,21.681,0
1.4463,2.24918E-05,21.6945,0,1.4463,2.316319E-05,21.6945,0
1.4472,-5.807584E-05,21.708,0,1.4472,0.0001007095,21.708,0
1.4481,-0.0001349508,21.7215,0,1.4481,8.69459E-05,21.7215,0
1.449,-5.774014E-05,21.735,0,1.449,2.18204E-05,21.735,0
1.4499,-7.049668E-06,21.7485,0,1.4499,1.678492E-06,21.7485,0
1.4508,-3.424125E-05,21.762,0,1.4508,5.706874E-05,21.762,0
1.4517,1.174945E-05,21.7755,0,1.4517,3.994812E-05,21.7755,0
1.4526,9.231708E-05,21.789,0,1.4526,-3.927672E-05,21.789,0
1.4535,1.544213E-05,21.8025,0,1.4535,4.800488E-05,21.8025,0
1.4544,5.203327E-05,21.816,0,1.4544,-6.74754E-05,21.816,0
1.4553,0.0001413291,21.8295,0,1.4553,-0.0002695659,21.8295,0
1.4562,0.0001346151,21.843,0,1.4562,-0.0002447242,21.843,0
1.4571,-5.706874E-05,21.8565,0,1.4571,-0.0001748989,21.8565,0
1.458,-2.047761E-05,21.87,0,1.458,-0.0001816129,21.87,0
1.4589,1.577783E-05,21.8835,0,1.4589,-0.0002662089,21.8835,0
1.4598,9.567407E-05,21.897,0,1.4598,-0.0001977264,21.897,0
1.4607,5.035477E-06,21.9105,0,1.4607,-5.203327E-05,21.9105,0
1.4616,-1.745632E-05,21.924,0,1.4616,5.035477E-06,21.924,0
1.4625,4.733349E-05,21.9375,0,1.4625,0.0001114519,21.9375,0
1.4634,4.263371E-05,21.951,0,1.4634,0.0001658351,21.951,0
1.4643,-0.0001060807,21.9645,0,1.4643,0.0001279011,21.9645,0
1.4652,-9.768826E-05,21.978,0,1.4652,-1.980621E-05,21.978,0
1.4661,-7.385367E-06,21.9915,0,1.4661,-9.130999E-05,21.9915,0
1.467,-5.069047E-05,22.005,0,1.467,3.591974E-05,22.005,0
1.4679,-0.0001560998,22.0185,0,1.4679,3.524834E-05,22.0185,0
1.4688,-2.349889E-06,22.032,0,1.4688,-2.517739E-05,22.032,0
1.4697,0.000115816,22.0455,0,1.4697,6.881819E-05,22.0455,0
1.4706,-2.081331E-05,22.059,0,1.4706,0.0001272297,22.059,0
1.4715,1.174945E-05,22.0725,0,1.4715,1.678492E-05,22.0725,0
1.4724,-2.349889E-06,22.086,0,1.4724,-3.692683E-06,22.086,0
1.4733,-2.719158E-05,22.0995,0,1.4733,-0.0001030594,22.0995,0
1.4742,-6.176852E-05,22.113,0,1.4742,-0.0001198444,22.113,0
1.4751,-5.337606E-05,22.1265,0,1.4751,-0.0001470359,22.1265,0
1.476,-8.090334E-05,22.14,0,1.476,-0.0001497215,22.14,0
1.4769,-4.733349E-05,22.1535,0,1.4769,-0.00018262,22.1535,0
1.4778,-5.270466E-05,22.167,0,1.4778,-7.016098E-05,22.167,0
1.4787,-6.243992E-05,22.1805,0,1.4787,-4.36408E-06,22.1805,0
1.4796,0.0001007095,22.194,0,1.4796,-9.265278E-05,22.194,0
1.4805,1.678492E-06,22.2075,0,1.4805,-4.699779E-06,22.2075,0
1.4814,-0.0001299153,22.221,0,1.4814,-3.826963E-05,22.221,0
1.4823,6.076142E-05,22.2345,0,1.4823,-0.0001752346,22.2345,0
1.4832,0.0002934005,22.248,0,1.4832,-0.0001319295,22.248,0
1.4841,0.0001728847,22.2615,0,1.4841,-5.673304E-05,22.2615,0
1.485,0,22.275,0,1.485,-0.0001339437,22.275,0
1.4859,-3.356985E-07,22.2885,0,1.4859,-0.0001144732,22.2885,0
1.4868,4.129091E-05,22.302,0,1.4868,-5.371176E-06,22.302,0
1.4877,3.457694E-05,22.3155,0,1.4877,0.0001379721,22.3155,0
1.4886,1.174945E-05,22.329,0,1.4886,8.325322E-05,22.329,0
1.4895,5.572595E-05,22.3425,0,1.4895,6.378271E-06,22.3425,0
1.4904,8.92958E-05,22.356,0,1.4904,6.948959E-05,22.356,0
1.4913,0.0001305867,22.3695,0,1.4913,0.0001225299,22.3695,0
1.4922,0.000158114,22.383,0,1.4922,6.881819E-05,22.383,0
1.4931,4.36408E-05,22.3965,0,1.4931,1.510643E-05,22.3965,0
1.494,-0.000154757,22.41,0,1.494,9.298848E-05,22.41,0
1.4949,-7.553216E-05,22.4235,0,1.4949,0.0001514,22.4235,0
1.4958,4.39765E-05,22.437,0,1.4958,5.404745E-05,22.437,0
1.4967,8.728161E-06,22.4505,0,1.4967,-2.887007E-05,22.4505,0
1.4976,-4.49836E-05,22.464,0,1.4976,-1.040665E-05,22.464,0
1.4985,2.584878E-05,22.4775,0,1.4985,-1.242084E-05,22.4775,0
1.4994,9.466698E-05,22.491,0,1.4994,-8.392462E-06,22.491,0
1.5003,0.0001151446,22.5045,0,1.5003,-9.198138E-05,22.5045,0
1.5012,5.706874E-06,22.518,0,1.5012,-7.217517E-05,22.518,0
1.5021,-0.0001564355,22.5315,0,1.5021,-4.666209E-05,22.5315,0
1.503,-0.0001453574,22.545,0,1.503,-8.795301E-05,22.545,0
1.5039,-1.409934E-05,22.5585,0,1.5039,-5.136187E-05,22.5585,0
1.5048,-0.0001258869,22.572,0,1.5048,1.242084E-05,22.572,0
1.5057,-0.0001131304,22.5855,0,1.5057,-2.987716E-05,22.5855,0
1.5066,3.524834E-05,22.599,0,1.5066,-0.0001279011,22.599,0
1.5075,-0.0001332723,22.6125,0,1.5075,-8.761731E-05,22.6125,0
1.5084,-0.0001144732,22.626,0,1.5084,-7.888914E-05,22.626,0
1.5093,-1.107805E-05,22.6395,0,1.5093,-0.000105745,22.6395,0
1.5102,-9.735256E-05,22.653,0,1.5102,-8.224613E-05,22.653,0
1.5111,-0.0002507668,22.6665,0,1.5111,-4.733349E-05,22.6665,0
1.512,-0.0002151827,22.68,0,1.512,-4.666209E-05,22.68,0
1.5129,-0.0001262226,22.6935,0,1.5129,-5.337606E-05,22.6935,0
1.5138,-0.0001037308,22.707,0,1.5138,-8.526741E-05,22.707,0
1.5147,-1.510643E-05,22.7205,0,1.5147,-3.524834E-05,22.7205,0
1.5156,0.0001769131,22.734,0,1.5156,1.242084E-05,22.734,0
1.5165,0.0001245441,22.7475,0,1.5165,-0.0001346151,22.7475,0
1.5174,8.761731E-05,22.761,0,1.5174,-0.0001258869,22.761,0
1.5183,4.162661E-05,22.7745,0,1.5183,0.0001232013,22.7745,0
1.5192,1.443504E-05,22.788,0,1.5192,0.0002104829,22.788,0
1.5201,4.36408E-06,22.8015,0,1.5201,7.385367E-06,22.8015,0
1.521,-0.0001000381,22.815,0,1.521,2.316319E-05,22.815,0
1.5219,-0.0001332723,22.8285,0,1.5219,7.855344E-05,22.8285,0
1.5228,-2.786297E-05,22.842,0,1.5228,5.572595E-05,22.842,0
1.5237,3.424125E-05,22.8555,0,1.5237,0.000102388,22.8555,0
1.5246,-7.754635E-05,22.869,0,1.5246,-0.0001366293,22.869,0
1.5255,-2.719158E-05,22.8825,0,1.5255,-8.056764E-05,22.8825,0
1.5264,0.000190341,22.896,0,1.5264,-8.056763E-06,22.896,0
1.5273,0.0003165637,22.9095,0,1.5273,1.846342E-05,22.9095,0
1.5282,9.835965E-05,22.923,0,1.5282,2.28275E-05,22.923,0
1.5291,-0.0001849699,22.9365,0,1.5291,4.263371E-05,22.9365,0
1.53,-0.0001238727,22.95,0,1.53,0.0001500572,22.95,0
1.5309,-2.417029E-05,22.9635,0,1.5309,1.678492E-06,22.9635,0
1.5318,-0.0001097734,22.977,0,1.5318,-5.941863E-05,22.977,0
1.5327,-4.901198E-05,22.9905,0,1.5327,-1.376364E-05,22.9905,0
1.5336,1.577783E-05,23.004,0,1.5336,-5.706874E-05,23.004,0
1.5345,-7.418937E-05,23.0175,0,1.5345,-5.505455E-05,23.0175,0
1.5354,2.014191E-06,23.031,0,1.5354,-0.0002034333,23.031,0
1.5363,6.277562E-05,23.0445,0,1.5363,-0.0002474098,23.0445,0
1.5372,-4.733349E-05,23.058,0,1.5372,2.1149E-05,23.058,0
1.5381,-0.0001151446,23.0715,0,1.5381,3.390555E-05,23.0715,0
1.539,-9.164568E-05,23.085,0,1.539,7.486076E-05,23.085,0
1.5399,-8.224613E-05,23.0985,0,1.5399,0.0003397269,23.0985,0
1.5408,-3.692683E-05,23.112,0,1.5408,0.0002594949,23.112,0
1.5417,-8.392462E-06,23.1255,0,1.5417,0.0001027237,23.1255,0
1.5426,-5.404745E-05,23.139,0,1.5426,4.733349E-05,23.139,0
1.5435,-3.256275E-05,23.1525,0,1.5435,5.035477E-06,23.1525,0
1.5444,0.0001618067,23.166,0,1.5444,7.016098E-05,23.166,0
1.5453,7.486076E-05,23.1795,0,1.5453,0.0001346151,23.1795,0
1.5462,3.793393E-05,23.193,0,1.5462,-1.510643E-05,23.193,0
1.5471,0.0001738918,23.2065,0,1.5471,-4.095522E-05,23.2065,0
1.548,6.78111E-05,23.22,0,1.548,2.24918E-05,23.22,0
1.5489,-6.076142E-05,23.2335,0,1.5489,-3.692683E-06,23.2335,0
1.5498,-3.054856E-05,23.247,0,1.5498,-0.0002470741,23.247,0
1.5507,-9.063859E-06,23.2605,0,1.5507,-0.0003068284,23.2605,0
1.5516,-0.0001530785,23.274,0,1.5516,-7.956054E-05,23.274,0
1.5525,-0.0001060807,23.2875,0,1.5525,0.0001426719,23.2875,0
1.5534,-6.74754E-05,23.301,0,1.5534,9.768826E-05,23.301,0
1.5543,-9.298848E-05,23.3145,0,1.5543,-0.0001138018,23.3145,0
1.5552,-6.478981E-05,23.328,0,1.5552,-5.035477E-05,23.328,0
1.5561,0.0001430075,23.3415,0,1.5561,-3.054856E-05,23.3415,0
1.557,0.0001728847,23.355,0,1.557,-5.606165E-05,23.355,0
1.5579,5.069047E-05,23.3685,0,1.5579,-5.136187E-05,23.3685,0
1.5588,-0.0001097734,23.382,0,1.5588,-5.639734E-05,23.382,0
1.5597,-7.217517E-05,23.3955,0,1.5597,-0.0002272679,23.3955,0
1.5606,8.728161E-06,23.409,0,1.5606,-0.0002759442,23.409,0
1.5615,-3.121996E-05,23.4225,0,1.5615,-5.606165E-05,23.4225,0
1.5624,-3.189136E-05,23.436,0,1.5624,-1.779202E-05,23.436,0
1.5633,0.0002138399,23.4495,0,1.5633,-0.0001399863,23.4495,0
1.5642,0.0001701991,23.463,0,1.5642,-9.835965E-05,23.463,0
1.5651,3.457694E-05,23.4765,0,1.5651,-4.39765E-05,23.4765,0
1.566,-9.466698E-05,23.49,0,1.566,-8.69459E-05,23.49,0
1.5669,-3.826963E-05,23.5035,0,1.5669,-0.0001248798,23.5035,0
1.5678,9.164568E-05,23.517,0,1.5678,-0.000218204,23.517,0
1.5687,-3.524834E-05,23.5305,0,1.5687,-0.0001839628,23.5305,0
1.5696,-1.208515E-05,23.544,0,1.5696,-7.553216E-05,23.544,0
1.5705,-4.061952E-05,23.5575,0,1.5705,1.678492E-06,23.5575,0
1.5714,3.054856E-05,23.571,0,1.5714,0.0001453574,23.571,0
1.5723,-4.36408E-05,23.5845,0,1.5723,0.0002568093,23.5845,0
1.5732,-2.920577E-05,23.598,0,1.5732,0.0001050736,23.598,0
1.5741,0.0001060807,23.6115,0,1.5741,-3.356985E-05,23.6115,0
1.575,-1.309224E-05,23.625,0,1.575,7.687495E-05,23.625,0
1.5759,-4.867628E-05,23.6385,0,1.5759,6.814679E-05,23.6385,0
1.5768,6.411841E-05,23.652,0,1.5768,-1.107805E-05,23.652,0
1.5777,-0.000126894,23.6655,0,1.5777,2.1149E-05,23.6655,0
1.5786,-0.000148043,23.679,0,1.5786,7.620356E-05,23.679,0
1.5795,3.390555E-05,23.6925,0,1.5795,6.713969E-06,23.6925,0
1.5804,3.793393E-05,23.706,0,1.5804,-2.987716E-05,23.706,0
1.5813,-3.121996E-05,23.7195,0,1.5813,-0.0001601282,23.7195,0
1.5822,-3.021286E-06,23.733,0,1.5822,-6.948959E-05,23.733,0
1.5831,-5.639734E-05,23.7465,0,1.5831,-4.36408E-06,23.7465,0
1.584,-1.242084E-05,23.76,0,1.584,-8.224613E-05,23.76,0
1.5849,4.39765E-05,23.7735,0,1.5849,-4.968337E-05,23.7735,0
1.5858,-1.242084E-05,23.787,0,1.5858,7.821774E-05,23.787,0
1.5867,-1.242084E-05,23.8005,0,1.5867,6.009003E-05,23.8005,0
1.5876,8.291753E-05,23.814,0,1.5876,-4.129091E-05,23.814,0
1.5885,1.141375E-05,23.8275,0,1.5885,4.229801E-05,23.8275,0
1.5894,2.081331E-05,23.841,0,1.5894,2.517739E-05,23.841,0
1.5903,0.0001732204,23.8545,0,1.5903,-5.706874E-05,23.8545,0
1.5912,0.0001675135,23.868,0,1.5912,-3.793393E-05,23.868,0
1.5921,1.712062E-05,23.8815,0,1.5921,6.378271E-06,23.8815,0
1.593,-2.18204E-05,23.895,0,1.593,-1.544213E-05,23.895,0
1.5939,1.443504E-05,23.9085,0,1.5939,-5.404745E-05,23.9085,0
1.5948,3.793393E-05,23.922,0,1.5948,-0.000112459,23.922,0
1.5957,-4.028382E-06,23.9355,0,1.5957,-8.996719E-05,23.9355,0
1.5966,-2.450599E-05,23.949,0,1.5966,-8.493171E-05,23.949,0
1.5975,9.097429E-05,23.9625,0,1.5975,-0.0001205158,23.9625,0
1.5984,3.860533E-05,23.976,0,1.5984,-9.332418E-05,23.976,0
1.5993,-5.471885E-05,23.9895,0,1.5993,0,23.9895,0
1.6002,9.399558E-06,24.003,0,1.6002,-2.1149E-05,24.003,0
1.6011,6.411841E-05,24.0165,0,1.6011,-9.970245E-05,24.0165,0
1.602,-5.505455E-05,24.03,0,1.602,-6.042573E-05,24.03,0
1.6029,-9.433127E-05,24.0435,0,1.6029,-3.692683E-06,24.0435,0
1.6038,-0.0001366293,24.057,0,1.6038,-0.0002111543,24.057,0
1.6047,-0.0001094377,24.0705,0,1.6047,-5.001907E-05,24.0705,0
1.6056,-8.023193E-05,24.084,0,1.6056,0.0002558022,24.084,0
1.6065,-6.814679E-05,24.0975,0,1.6065,0.0002306248,24.0975,0
1.6074,6.378271E-06,24.111,0,1.6074,0.0002927291,24.111,0
1.6083,0.0001003738,24.1245,0,1.6083,0.0003031357,24.1245,0
1.6092,9.768826E-05,24.138,0,1.6092,0.0002823224,24.138,0
1.6101,-6.478981E-05,24.1515,0,1.6101,0.0001520714,24.1515,0
1.611,-5.673304E-05,24.165,0,1.611,8.123904E-05,24.165,0
1.6119,-2.517739E-05,24.1785,0,1.6119,-6.51255E-05,24.1785,0
1.6128,-0.000185977,24.192,0,1.6128,-9.298848E-05,24.192,0
1.6137,-6.61326E-05,24.2055,0,1.6137,-5.337606E-05,24.2055,0
1.6146,0.0001675135,24.219,0,1.6146,-0.0001050736,24.219,0
1.6155,2.383459E-05,24.2325,0,1.6155,-3.793393E-05,24.2325,0
1.6164,7.083238E-05,24.246,0,1.6164,-9.298848E-05,24.246,0
1.6173,0.0001842985,24.2595,0,1.6173,-0.0001393149,24.2595,0
1.6182,-3.524834E-05,24.273,0,1.6182,-0.0001050736,24.273,0
1.6191,-0.0001077592,24.2865,0,1.6191,-3.289845E-05,24.2865,0
1.62,-3.927672E-05,24.3,0,1.62,-6.243992E-05,24.3,0
1.6209,3.356985E-07,24.3135,0,1.6209,-0.0001534142,24.3135,0
1.6218,-3.256275E-05,24.327,0,1.6218,-0.0002312963,24.327,0
1.6227,-2.450599E-05,24.3405,0,1.6227,-0.0001889983,24.3405,0
1.6236,2.21561E-05,24.354,0,1.6236,-0.0001507286,24.354,0
1.6245,-4.867628E-05,24.3675,0,1.6245,-8.593881E-05,24.3675,0
1.6254,-3.054856E-05,24.381,0,1.6254,9.701686E-05,24.381,0
1.6263,-0.0002091402,24.3945,0,1.6263,0.0003215991,24.3945,0
1.6272,-0.0003289845,24.408,0,1.6272,0.0001621424,24.408,0
1.6281,-0.0002719158,24.4215,0,1.6281,-1.510643E-05,24.4215,0
1.629,-0.0002752728,24.435,0,1.629,4.46479E-05,24.435,0
1.6299,-0.0002366674,24.4485,0,1.6299,-3.591974E-05,24.4485,0
1.6308,2.853437E-05,24.462,0,1.6308,-0.0001571069,24.462,0
1.6317,0.0005703517,24.4755,0,1.6317,-0.0001675135,24.4755,0
1.6326,0.0005616235,24.489,0,1.6326,-9.735256E-05,24.489,0
1.6335,0.000281651,24.5025,0,1.6335,-6.74754E-05,24.5025,0
1.6344,0.0002447242,24.516,0,1.6344,-5.740444E-05,24.516,0
1.6353,0.0002547952,24.5295,0,1.6353,-4.699779E-05,24.5295,0
1.6362,5.740444E-05,24.543,0,1.6362,0.0001326009,24.543,0
1.6371,-3.692683E-06,24.5565,0,1.6371,0.0001406577,24.5565,0
1.638,2.584878E-05,24.57,0,1.638,-4.565499E-05,24.57,0
1.6389,5.874724E-05,24.5835,0,1.6389,-5.673304E-05,24.5835,0
1.6398,-2.316319E-05,24.597,0,1.6398,4.196231E-05,24.597,0
1.6407,-3.692683E-05,24.6105,0,1.6407,6.948959E-05,24.6105,0
1.6416,-8.258183E-05,24.624,0,1.6416,-3.994812E-05,24.624,0
1.6425,-0.0002269322,24.6375,0,1.6425,-2.081331E-05,24.6375,0
1.6434,-0.0002151827,24.651,0,1.6434,2.517739E-05,24.651,0
1.6443,7.721065E-06,24.6645,0,1.6443,-5.706874E-06,24.6645,0
1.6452,-4.49836E-05,24.678,0,1.6452,7.486076E-05,24.678,0
1.6461,-0.000252781,24.6915,0,1.6461,-1.007095E-06,24.6915,0
1.647,-0.0002396887,24.705,0,1.647,-0.0001698634,24.705,0
1.6479,-0.0001349508,24.7185,0,1.6479,-0.0001003738,24.7185,0
1.6488,-2.584878E-05,24.732,0,1.6488,-0.0001148089,24.732,0
1.6497,3.726253E-05,24.7455,0,1.6497,-2.987716E-05,24.7455,0
1.6506,-4.061952E-05,24.759,0,1.6506,-3.625543E-05,24.759,0
1.6515,-2.014191E-06,24.7725,0,1.6515,-0.0001077592,24.7725,0
1.6524,5.874724E-05,24.786,0,1.6524,-0.0001144732,24.786,0
1.6533,-0.0001161517,24.7995,0,1.6533,-4.028382E-05,24.7995,0
1.6542,-0.0001037308,24.813,0,1.6542,-8.291753E-05,24.813,0
1.6551,6.009003E-05,24.8265,0,1.6551,-0.000161471,24.8265,0
1.656,-8.023193E-05,24.84,0,1.656,3.390555E-05,24.84,0
1.6569,-0.0002299535,24.8535,0,1.6569,4.599069E-05,24.8535,0
1.6578,-9.365987E-05,24.867,0,1.6578,-0.0001255512,24.867,0
1.6587,7.016098E-05,24.8805,0,1.6587,-6.814679E-05,24.8805,0
1.6596,-0.0001154803,24.894,0,1.6596,-0.0001208515,24.894,0
1.6605,-5.337606E-05,24.9075,0,1.6605,-0.0001795987,24.9075,0
1.6614,8.493171E-05,24.921,0,1.6614,-3.256275E-05,24.921,0
1.6623,7.183947E-05,24.9345,0,1.6623,-8.728161E-06,24.9345,0
1.6632,9.063859E-06,24.948,0,1.6632,5.337606E-05,24.948,0
1.6641,-2.349889E-06,24.9615,0,1.6641,0.0001114519,24.9615,0
1.665,4.33051E-05,24.975,0,1.665,3.994812E-05,24.975,0
1.6659,6.64683E-05,24.9885,0,1.6659,5.774014E-05,24.9885,0
1.6668,1.174945E-05,25.002,0,1.6668,0.0002625162,25.002,0
1.6677,0.0001359579,25.0155,0,1.6677,0.0001920195,25.0155,0
1.6686,9.735256E-05,25.029,0,1.6686,2.316319E-05,25.029,0
1.6695,-1.376364E-05,25.0425,0,1.6695,0.0001299153,25.0425,0
1.6704,3.189136E-05,25.056,0,1.6704,6.814679E-05,25.056,0
1.6713,4.599069E-05,25.0695,0,1.6713,-5.874724E-05,25.0695,0
1.6722,2.652018E-05,25.083,0,1.6722,-3.894102E-05,25.083,0
1.6731,-2.18204E-05,25.0965,0,1.6731,1.376364E-05,25.0965,0
1.674,-3.625543E-05,25.11,0,1.674,-3.021286E-06,25.11,0
1.6749,-1.913481E-05,25.1235,0,1.6749,-2.1149E-05,25.1235,0
1.6758,3.659113E-05,25.137,0,1.6758,-6.042573E-05,25.137,0
1.6767,-3.088426E-05,25.1505,0,1.6767,2.1149E-05,25.1505,0
1.6776,-0.0001668421,25.164,0,1.6776,2.1149E-05,25.164,0
1.6785,-6.210422E-05,25.1775,0,1.6785,-0.0001490501,25.1775,0
1.6794,6.881819E-05,25.191,0,1.6794,-0.0002232395,25.191,0
1.6803,-3.524834E-05,25.2045,0,1.6803,-0.0001037308,25.2045,0
1.6812,-2.551309E-05,25.218,0,1.6812,-0.0001003738,25.218,0
1.6821,4.33051E-05,25.2315,0,1.6821,-0.0001352865,25.2315,0
1.683,-2.987716E-05,25.245,0,1.683,0.0002057832,25.245,0
1.6839,2.786297E-05,25.2585,0,1.6839,0.000291722,25.2585,0
1.6848,6.277562E-05,25.272,0,1.6848,4.43122E-05,25.272,0
1.6857,3.524834E-05,25.2855,0,1.6857,7.251087E-05,25.2855,0
1.6866,-3.591974E-05,25.299,0,1.6866,6.210422E-05,25.299,0
1.6875,5.673304E-05,25.3125,0,1.6875,3.524834E-05,25.3125,0
1.6884,3.994812E-05,25.326,0,1.6884,-3.591974E-05,25.326,0
1.6893,7.821774E-05,25.3395,0,1.6893,-8.291753E-05,25.3395,0
1.6902,1.174945E-05,25.353,0,1.6902,-6.57969E-05,25.353,0
1.6911,-0.0001366293,25.3665,0,1.6911,-5.136187E-05,25.3665,0
1.692,-3.457694E-05,25.38,0,1.692,-7.016098E-05,25.38,0
1.6929,0.0001121233,25.3935,0,1.6929,-4.934768E-05,25.3935,0
1.6938,-3.256275E-05,25.407,0,1.6938,1.309224E-05,25.407,0
1.6947,-8.69459E-05,25.4205,0,1.6947,-9.399557E-05,25.4205,0
1.6956,8.426032E-05,25.434,0,1.6956,-0.0001715419,25.434,0
1.6965,3.726253E-05,25.4475,0,1.6965,-0.0001195087,25.4475,0
1.6974,-2.316319E-05,25.461,0,1.6974,-0.0001923552,25.461,0
1.6983,9.030289E-05,25.4745,0,1.6983,-0.0002534524,25.4745,0
1.6992,0.0001641566,25.488,0,1.6992,-7.888914E-05,25.488,0
1.7001,6.076142E-05,25.5015,0,1.7001,0.0001077592,25.5015,0
1.701,9.835965E-05,25.515,0,1.701,0.000257145,25.515,0
1.7019,6.411841E-05,25.5285,0,1.7019,0.0001900053,25.5285,0
1.7028,4.36408E-05,25.542,0,1.7028,2.383459E-05,25.542,0
1.7037,-7.251087E-05,25.5555,0,1.7037,0.000102388,25.5555,0
1.7046,-0.0002111543,25.569,0,1.7046,4.33051E-05,25.569,0
1.7055,-0.0001319295,25.5825,0,1.7055,-2.047761E-05,25.5825,0
1.7064,-6.51255E-05,25.596,0,1.7064,-6.71397E-05,25.596,0
1.7073,-6.143282E-05,25.6095,0,1.7073,6.713969E-07,25.6095,0
1.7082,-0.0001295796,25.623,0,1.7082,-2.014191E-05,25.623,0
1.7091,-7.754635E-05,25.6365,0,1.7091,-5.337606E-05,25.6365,0
1.71,-0.0001295796,25.65,0,1.71,4.196231E-05,25.65,0
1.7109,-0.0001044022,25.6635,0,1.7109,-8.056763E-06,25.6635,0
1.7118,-7.620356E-05,25.677,0,1.7118,-0.0001795987,25.677,0
1.7127,-0.0001386435,25.6905,0,1.7127,-0.0002239109,25.6905,0
1.7136,-5.706874E-06,25.704,0,1.7136,-0.0001806058,25.704,0
1.7145,0.0003004501,25.7175,0,1.7145,-0.0001007095,25.7175,0
1.7154,0.0002574807,25.731,0,1.7154,7.486076E-05,25.731,0
1.7163,0.0002158541,25.7445,0,1.7163,9.231708E-05,25.7445,0
1.7172,0.0001232013,25.758,0,1.7172,3.054856E-05,25.758,0
1.7181,1.980621E-05,25.7715,0,1.7181,-4.129091E-05,25.7715,0
1.719,4.263371E-05,25.785,0,1.719,-8.493171E-05,25.785,0
1.7199,8.392462E-06,25.7985,0,1.7199,-1.846342E-05,25.7985,0
1.7208,-0.0001621424,25.812,0,1.7208,8.392462E-05,25.812,0
1.7217,-5.572595E-05,25.8255,0,1.7217,3.424125E-05,25.8255,0
1.7226,0.0001201801,25.839,0,1.7226,-3.994812E-05,25.839,0
1.7235,-0.0001295796,25.8525,0,1.7235,7.721065E-06,25.8525,0
1.7244,-0.0001802701,25.866,0,1.7244,-1.913481E-05,25.866,0
1.7253,-7.989624E-05,25.8795,0,1.7253,-0.0001218585,25.8795,0
1.7262,-4.46479E-05,25.893,0,1.7262,-8.090334E-05,25.893,0
1.7271,-0.0002380102,25.9065,0,1.7271,2.584878E-05,25.9065,0
1.728,-0.0001225299,25.92,0,1.728,-6.378271E-06,25.92,0
1.7289,0.000119173,25.9335,0,1.7289,-3.826963E-05,25.9335,0
1.7298,0.0002534524,25.947,0,1.7298,-8.627451E-05,25.947,0
1.7307,0.0002289464,25.9605,0,1.7307,-0.0001644923,25.9605,0
1.7316,1.040665E-05,25.974,0,1.7316,-0.0002531167,25.974,0
1.7325,-9.298848E-05,25.9875,0,1.7325,-0.0004014954,25.9875,0
1.7334,7.083238E-05,26.001,0,1.7334,-0.0005371176,26.001,0
1.7343,4.867628E-05,26.0145,0,1.7343,-0.0003185779,26.0145,0
1.7352,-4.196231E-05,26.028,0,1.7352,0.0001346151,26.028,0
1.7361,-9.735256E-06,26.0415,0,1.7361,0.0003514763,26.0415,0
1.737,-0.0001520714,26.055,0,1.737,0.0004145876,26.055,0
1.7379,-5.136187E-05,26.0685,0,1.7379,0.0003739681,26.0685,0
1.7388,4.800488E-05,26.082,0,1.7388,0.0003262989,26.082,0
1.7397,-6.378271E-05,26.0955,0,1.7397,0.0002453956,26.0955,0
1.7406,-4.699779E-06,26.109,0,1.7406,0.000144686,26.109,0
1.7415,-7.418937E-05,26.1225,0,1.7415,-6.076142E-05,26.1225,0
1.7424,-6.6804E-05,26.136,0,1.7424,-0.000239353,26.136,0
1.7433,5.539025E-05,26.1495,0,1.7433,-0.0003168994,26.1495,0
1.7442,-1.376364E-05,26.163,0,1.7442,-0.0002064546,26.163,0
1.7451,-3.256275E-05,26.1765,0,1.7451,-6.71397E-05,26.1765,0
1.746,-3.021286E-05,26.19,0,1.746,0.0001379721,26.19,0
1.7469,1.678492E-05,26.2035,0,1.7469,0.0002218967,26.2035,0
1.7478,-4.129091E-05,26.217,0,1.7478,0.0002430457,26.217,0
1.7487,-3.021286E-06,26.2305,0,1.7487,0.0002111543,26.2305,0
1.7496,2.887007E-05,26.244,0,1.7496,0.0001248798,26.244,0
1.7505,-9.063859E-05,26.2575,0,1.7505,0.0002141756,26.2575,0
1.7514,-8.090334E-05,26.271,0,1.7514,0.0001426719,26.271,0
1.7523,6.478981E-05,26.2845,0,1.7523,-1.644922E-05,26.2845,0
1.7532,8.224613E-05,26.298,0,1.7532,6.6804E-05,26.298,0
1.7541,-0.0001104448,26.3115,0,1.7541,-0.0001534142,26.3115,0
1.755,-0.0001601282,26.325,0,1.755,-0.000288365,26.325,0
1.7559,-0.0001097734,26.3385,0,1.7559,-0.0001695277,26.3385,0
1.7568,9.735256E-06,26.352,0,1.7568,-0.0002168612,26.352,0
1.7577,1.712062E-05,26.3655,0,1.7577,-0.0001399863,26.3655,0
1.7586,-0.0001423362,26.379,0,1.7586,-0.0001114519,26.379,0
1.7595,-1.242084E-05,26.3925,0,1.7595,-0.0001366293,26.3925,0
1.7604,0.0002195468,26.406,0,1.7604,-2.18204E-05,26.406,0
1.7613,6.915389E-05,26.4195,0,1.7613,7.150377E-05,26.4195,0
1.7622,3.726253E-05,26.433,0,1.7622,2.349889E-06,26.433,0
1.7631,0.0001399863,26.4465,0,1.7631,-7.653925E-05,26.4465,0
1.764,-5.572595E-05,26.46,0,1.764,4.39765E-05,26.46,0
1.7649,1.040665E-05,26.4735,0,1.7649,8.392462E-05,26.4735,0
1.7658,0.0001406577,26.487,0,1.7658,-3.961242E-05,26.487,0
1.7667,0.0001228656,26.5005,0,1.7667,-5.035477E-05,26.5005,0
1.7676,-0.0001010452,26.514,0,1.7676,-0.0001164874,26.514,0
1.7685,-6.478981E-05,26.5275,0,1.7685,-0.0001332723,26.5275,0
1.7694,2.1149E-05,26.541,0,1.7694,-0.0001037308,26.541,0
1.7703,4.39765E-05,26.5545,0,1.7703,-0.0001077592,26.5545,0
1.7712,3.189136E-05,26.568,0,1.7712,-0.0001201801,26.568,0
1.7721,-0.0001258869,26.5815,0,1.7721,-0.0001198444,26.5815,0
1.773,-6.78111E-05,26.595,0,1.773,-1.007095E-05,26.595,0
1.7739,1.644922E-05,26.6085,0,1.7739,9.802396E-05,26.6085,0
1.7748,-5.639734E-05,26.622,0,1.7748,0.0001930266,26.622,0
1.7757,-5.673304E-05,26.6355,0,1.7757,0.0001285725,26.6355,0
1.7766,5.706874E-06,26.649,0,1.7766,-7.083238E-05,26.649,0
1.7775,-8.426032E-05,26.6625,0,1.7775,-8.426032E-05,26.6625,0
1.7784,-4.834058E-05,26.676,0,1.7784,-7.217517E-05,26.676,0
1.7793,-5.572595E-05,26.6895,0,1.7793,-0.0001453574,26.6895,0
1.7802,-6.243992E-05,26.703,0,1.7802,-0.0001171588,26.703,0
1.7811,-0.000119173,26.7165,0,1.7811,9.365987E-05,26.7165,0
1.782,-8.157473E-05,26.73,0,1.782,0.0002370031,26.73,0
1.7829,6.378271E-06,26.7435,0,1.7829,0.0001141375,26.7435,0
1.7838,7.687495E-05,26.757,0,1.7838,-0.000112459,26.757,0
1.7847,8.761731E-05,26.7705,0,1.7847,-0.000126894,26.7705,0
1.7856,4.934768E-05,26.784,0,1.7856,-0.0001198444,26.784,0
1.7865,1.544213E-05,26.7975,0,1.7865,-0.0001879911,26.7975,0
1.7874,0.0001138018,26.811,0,1.7874,-0.0001913481,26.811,0
1.7883,8.526741E-05,26.8245,0,1.7883,4.061952E-05,26.8245,0
1.7892,0.0001013809,26.838,0,1.7892,0.0001735561,26.838,0
1.7901,0.0001144732,26.8515,0,1.7901,0.0001473716,26.8515,0
1.791,-2.887007E-05,26.865,0,1.791,0.0001775845,26.865,0
1.7919,8.761731E-05,26.8785,0,1.7919,0.0001376364,26.8785,0
1.7928,0.0001279011,26.892,0,1.7928,2.517739E-05,26.892,0
1.7937,-3.021286E-06,26.9055,0,1.7937,-1.007095E-06,26.9055,0
1.7946,-9.567407E-05,26.919,0,1.7946,-6.143282E-05,26.919,0
1.7955,-3.927672E-05,26.9325,0,1.7955,-7.620356E-05,26.9325,0
1.7964,-0.0001279011,26.946,0,1.7964,-5.169757E-05,26.946,0
1.7973,-4.666209E-05,26.9595,0,1.7973,-9.433127E-05,26.9595,0
1.7982,1.678492E-06,26.973,0,1.7982,-5.069047E-05,26.973,0
1.7991,-0.0002406958,26.9865,0,1.7991,-0.0001007095,26.9865,0
1.8,-0.0002742657,27,0,1.8,-0.0001534142,27,0
1.8009,-0.0001406577,27.0135,0,1.8009,-9.533837E-05,27.0135,0
1.8018,-0.0002088045,27.027,0,1.8018,6.109713E-05,27.027,0
1.8027,-0.0001010452,27.0405,0,1.8027,5.941863E-05,27.0405,0
1.8036,0.0001923552,27.054,0,1.8036,-1.712062E-05,27.054,0
1.8045,0.0004025025,27.0675,0,1.8045,4.196231E-05,27.0675,0
1.8054,0.0002890364,27.081,0,1.8054,-7.351797E-05,27.081,0
1.8063,8.459602E-05,27.0945,0,1.8063,-0.0001665064,27.0945,0
1.8072,3.726253E-05,27.108,0,1.8072,-7.721065E-05,27.108,0
1.8081,-0.0001060807,27.1215,0,1.8081,-7.452507E-05,27.1215,0
1.809,-2.987716E-05,27.135,0,1.809,-8.493171E-05,27.135,0
1.8099,4.934768E-05,27.1485,0,1.8099,-0.0001101091,27.1485,0
1.8108,3.021286E-05,27.162,0,1.8108,-0.0001420005,27.162,0
1.8117,8.023193E-05,27.1755,0,1.8117,7.049668E-06,27.1755,0
1.8126,0.0001816129,27.189,0,1.8126,0.0001930266,27.189,0
1.8135,0.0001114519,27.2025,0,1.8135,0.0001863127,27.2025,0
1.8144,9.063859E-06,27.216,0,1.8144,8.69459E-05,27.216,0
1.8153,-7.687495E-05,27.2295,0,1.8153,7.922484E-05,27.2295,0
1.8162,-6.64683E-05,27.243,0,1.8162,7.385367E-06,27.243,0
1.8171,5.874724E-05,27.2565,0,1.8171,-9.298848E-05,27.2565,0
1.818,-4.33051E-05,27.27,0,1.818,-3.793393E-05,27.27,0
1.8189,-0.0002326391,27.2835,0,1.8189,-0.0001044022,27.2835,0
