X[s],"Trigno IM sensor 3: EMG 3 (IM)",X[s],"Trigno IM sensor 3: Mag 3.Z (IM)",X[s],"Trigno IM sensor 4: EMG 4 (IM)",X[s],"Trigno IM sensor 4: Mag 4.Z (IM)"
0.000000,-2.652018E-05,0.000000,124,0.000000,-9.030289E-05,0.000000,-2
0.0009,-1.107805E-05,0.0135,124,0.0009,-7.653925E-05,0.0135,-1
0.0018,2.517739E-05,0.027,124,0.0018,-2.752728E-05,0.027,-2
0.0027,9.735256E-06,0.0405,123,0.0027,-6.277562E-05,0.0405,-2
0.0036,-4.43122E-05,0.054,124,0.0036,-9.835965E-05,0.054,-2
0.0045,-3.860533E-05,0.0675,123,0.0045,-2.18204E-05,0.0675,-2
0.0054,-1.007095E-06,0.081,123,0.0054,2.652018E-05,0.081,-4
0.0063,5.471885E-05,0.0945,125,0.0063,3.356985E-05,0.0945,-3
0.0072,0.0002652018,0.108,123,0.0072,6.378271E-05,0.108,-1
0.0081,0.0002719158,0.1215,122,0.0081,9.869535E-05,0.1215,-3
0.009000001,6.948959E-05,0.135,123,0.009000001,4.53193E-05,0.135,-3
0.0099,-4.867628E-05,0.1485,121,0.0099,7.721065E-06,0.1485,-4
0.0108,-0.000130251,0.162,122,0.0108,-7.049668E-06,0.162,-5
0.0117,-0.0001916838,0.1755,122,0.0117,-1.678492E-05,0.1755,-4
0.0126,-0.0001695277,0.189,122,0.0126,-3.189136E-05,0.189,-3
0.0135,-3.457694E-05,0.2025,123,0.0135,-3.961242E-05,0.2025,-1
0.0144,-1.779202E-05,0.216,123,0.0144,-7.754635E-05,0.216,-3
0.0153,-9.399557E-05,0.2295,122,0.0153,-9.231708E-05,0.2295,-1
0.0162,-0.0001587854,0.243,122,0.0162,-7.318227E-05,0.243,-3
0.0171,-5.001907E-05,0.2565,122,0.0171,-4.129091E-05,0.2565,-3
0.018,2.1149E-05,0.27,123,0.018,-7.721065E-06,0.27,-3
0.0189,3.021286E-05,0.2835,122,0.0189,-5.270466E-05,0.2835,-5
0.0198,-1.913481E-05,0.297,123,0.0198,-3.054856E-05,0.297,-2
0.0207,1.007095E-06,0.3105,124,0.0207,1.577783E-05,0.3105,-3
0.0216,3.591974E-05,0.324,124,0.0216,-2.18204E-05,0.324,-4
0.0225,2.920577E-05,0.3375,123,0.0225,-2.18204E-05,0.3375,-2
0.0234,8.023193E-05,0.351,124,0.0234,2.853437E-05,0.351,0
0.0243,0.0001500572,0.3645,124,0.0243,5.337606E-05,0.3645,-1
0.0252,0.0002141756,0.378,123,0.0252,1.611353E-05,0.378,-4
0.0261,0.000189334,0.3915,123,0.0261,-4.36408E-06,0.3915,-4
0.027,0.0001148089,0.405,123,0.027,-5.035477E-06,0.405,-4
0.0279,-1.779202E-05,0.4185,124,0.0279,-3.256275E-05,0.4185,-3
0.0288,-0.0001027237,0.432,124,0.0288,-0.0001386435,0.432,-2
0.0297,-6.814679E-05,0.4455,122,0.0297,-0.000193698,0.4455,-4
0.0306,-5.069047E-05,0.459,123,0.0306,-0.0001839628,0.459,0
0.0315,2.584878E-05,0.4725,123,0.0315,-0.0001678492,0.4725,0
0.0324,0.0001111162,0.486,123,0.0324,-7.821774E-05,0.486,-1
0.0333,-7.351797E-05,0.4995,124,0.0333,0.0001070878,0.4995,-2
0.0342,-0.0002907149,0.513,122,0.0342,0.000203769,0.513,-1
0.0351,-0.0002662089,0.5265,124,0.0351,0.000105745,0.5265,-2
0.036,-0.000136965,0.54,124,0.036,7.083238E-05,0.54,-1
0.0369,-0.0001433432,0.5535,124,0.0369,3.189136E-05,0.5535,-1
0.0378,-5.673304E-05,0.567,124,0.0378,1.913481E-05,0.567,-2
0.0387,0.0001205158,0.5805,123,0.0387,2.652018E-05,0.5805,-3
0.0396,1.577783E-05,0.594,125,0.0396,-8.056763E-06,0.594,-2
0.0405,-5.169757E-05,0.6075,123,0.0405,-1.611353E-05,0.6075,-2
0.0414,-0.000102388,0.621,124,0.0414,-9.399558E-06,0.621,-1
0.0423,-3.021286E-06,0.6345,122,0.0423,-4.733349E-05,0.6345,-1
0.0432,7.754635E-05,0.648,121,0.0432,-6.344701E-05,0.648,-1
0.0441,7.150377E-05,0.6615,123,0.0441,-1.107805E-05,0.6615,-1
0.045,3.021286E-05,0.675,123,0.045,2.551309E-05,0.675,0
0.0459,2.652018E-05,0.6885,123,0.0459,-2.584878E-05,0.6885,-2
0.0468,3.356985E-06,0.702,123,0.0468,4.36408E-06,0.702,-4
0.0477,-8.795301E-05,0.7155,123,0.0477,1.007095E-06,0.7155,-1
0.0486,-7.351797E-05,0.729,124,0.0486,-3.558404E-05,0.729,-2
0.0495,-2.517739E-05,0.7425,123,0.0495,-7.049668E-06,0.7425,-1
0.0504,-1.208515E-05,0.756,123,0.0504,-1.309224E-05,0.756,-3
0.0513,1.812772E-05,0.7695,123,0.0513,-5.941863E-05,0.7695,-1
0.0522,3.189136E-05,0.783,124,0.0522,-8.123904E-05,0.783,-4
0.0531,5.606165E-05,0.7965,124,0.0531,-0.0001080949,0.7965,-3
0.054,6.378271E-05,0.81,125,0.054,-0.0001329366,0.81,-3
0.0549,3.323415E-05,0.8235,123,0.0549,-0.0001215228,0.8235,-4
0.0558,1.712062E-05,0.837,122,0.0558,-9.500267E-05,0.837,-3
0.0567,4.129091E-05,0.8505,123,0.0567,-1.544213E-05,0.8505,-5
0.0576,8.728161E-06,0.864,120,0.0576,7.586786E-05,0.864,-3
0.0585,1.678492E-06,0.8775,123,0.0585,0.0001178302,0.8775,-2
0.0594,5.807584E-05,0.891,122,0.0594,5.069047E-05,0.891,-4
0.0603,6.57969E-05,0.9045,122,0.0603,3.054856E-05,0.9045,-5
0.0612,7.553216E-05,0.918,122,0.0612,1.779202E-05,0.918,-4
0.0621,7.217517E-05,0.9315,122,0.0621,-3.021286E-05,0.9315,-4
0.063,2.24918E-05,0.945,122,0.063,-1.242084E-05,0.945,-4
0.0639,3.356985E-05,0.9585,123,0.0639,-1.745632E-05,0.9585,-3
0.0648,8.426032E-05,0.972,122,0.0648,-6.445411E-05,0.972,-3
0.0657,-1.644922E-05,0.9855,121,0.0657,-4.49836E-05,0.9855,-5
0.0666,-0.0001111162,0.999,120,0.0666,-1.846342E-05,0.999,-2
0.0675,-0.0001154803,1.0125,121,0.0675,-2.24918E-05,1.0125,-4
0.0684,-6.478981E-05,1.026,121,0.0684,-4.33051E-05,1.026,-5
0.0693,-2.24918E-05,1.0395,120,0.0693,-6.915389E-05,1.0395,-5
0.0702,-3.256275E-05,1.053,120,0.0702,-3.659113E-05,1.053,-3
0.0711,-4.43122E-05,1.0665,120,0.0711,-6.411841E-05,1.0665,-4
0.072,-2.316319E-05,1.08,120,0.072,-0.000119173,1.08,-8
0.0729,6.713969E-07,1.0935,119,0.0729,-0.000102388,1.0935,-7
0.07380001,-1.007095E-06,1.107,121,0.07380001,-3.927672E-05,1.107,-4
0.07470001,-3.155566E-05,1.1205,120,0.07470001,-2.719158E-05,1.1205,-5
0.0756,-4.934768E-05,1.134,120,0.0756,-6.378271E-06,1.134,-4
0.0765,9.735256E-06,1.1475,119,0.0765,7.888914E-05,1.1475,-8
0.0774,5.941863E-05,1.161,119,0.0774,0.000109102,1.161,-5
0.0783,0.0001265583,1.1745,120,0.0783,3.524834E-05,1.1745,-4
0.0792,0.0001097734,1.188,121,0.0792,-4.028382E-06,1.188,-2
0.0801,5.673304E-05,1.2015,121,0.0801,-8.056764E-05,1.2015,-7
0.081,-4.028382E-06,1.215,120,0.081,-0.0001312581,1.215,-5
0.0819,-1.779202E-05,1.2285,119,0.0819,-0.0001148089,1.2285,-3
0.0828,6.713969E-06,1.242,121,0.0828,-8.761731E-05,1.242,-7
0.0837,-8.191043E-05,1.2555,119,0.0837,2.349889E-06,1.2555,-2
0.0846,-0.000190341,1.269,120,0.0846,9.466698E-05,1.269,-4
0.0855,-0.0002581521,1.2825,121,0.0855,0.0001594568,1.2825,-4
0.0864,-7.418937E-05,1.296,120,0.0864,0.0001923552,1.296,-4
0.0873,3.692683E-06,1.3095,120,0.0873,0.0001242084,1.3095,-5
0.0882,-2.584878E-05,1.323,121,0.0882,6.378271E-06,1.323,-8
0.0891,4.028382E-06,1.3365,121,0.0891,-5.169757E-05,1.3365,-6
0.09,-3.524834E-05,1.35,121,0.09,9.063859E-06,1.35,-2
0.0909,-8.761731E-05,1.3635,121,0.0909,2.685588E-05,1.3635,-4
0.0918,-3.927672E-05,1.377,120,0.0918,-1.342794E-06,1.377,-3
0.0927,1.309224E-05,1.3905,120,0.0927,3.155566E-05,1.3905,-6
0.0936,1.879912E-05,1.404,120,0.0936,4.36408E-06,1.404,-4
0.09450001,0.0001205158,1.4175,120,0.09450001,-4.028382E-05,1.4175,-4
0.09540001,0.00024271,1.431,121,0.09540001,-5.975433E-05,1.431,-4
0.09630001,0.0001876554,1.4445,121,0.09630001,-5.337606E-05,1.4445,-4
0.0972,2.887007E-05,1.458,122,0.0972,-3.826963E-05,1.458,-4
0.0981,-0.000112459,1.4715,120,0.0981,-2.719158E-05,1.4715,-5
0.099,-0.0001188373,1.485,122,0.099,-5.136187E-05,1.485,-1
0.0999,-7.150377E-05,1.4985,121,0.0999,-8.358892E-05,1.4985,-4
0.1008,-1.376364E-05,1.512,120,0.1008,-8.96315E-05,1.512,-5
0.1017,1.007095E-05,1.5255,121,0.1017,-9.802396E-05,1.5255,-4
0.1026,8.560311E-05,1.539,120,0.1026,-0.0001299153,1.539,-3
0.1035,0.0001252155,1.5525,120,0.1035,-5.740444E-05,1.5525,-4
0.1044,-6.57969E-05,1.566,120,0.1044,1.007095E-06,1.566,-3
0.1053,-9.600977E-05,1.5795,121,0.1053,-9.063859E-06,1.5795,-10
0.1062,9.332418E-05,1.593,121,0.1062,3.021286E-05,1.593,-7
0.1071,-0.0001534142,1.6065,120,0.1071,5.807584E-05,1.6065,-5
0.108,-0.0002500954,1.62,120,0.108,2.685588E-06,1.62,-3
0.1089,-8.761731E-05,1.6335,119,0.1089,-4.46479E-05,1.6335,-4
0.1098,-8.96315E-05,1.647,120,0.1098,-3.256275E-05,1.647,-3
0.1107,-0.0001977264,1.6605,121,0.1107,-1.678492E-05,1.6605,0
0.1116,-0.0001185016,1.674,120,0.1116,5.035477E-06,1.674,-7
0.1125,-1.107805E-05,1.6875,120,0.1125,-2.349889E-06,1.6875,-4
0.1134,2.081331E-05,1.701,120,0.1134,-4.196231E-05,1.701,-2
0.1143,4.867628E-05,1.7145,120,0.1143,-1.376364E-05,1.7145,-5
0.1152,-1.544213E-05,1.728,122,0.1152,-7.687495E-05,1.728,-2
0.1161,-1.007095E-05,1.7415,119,0.1161,-0.0001151446,1.7415,-2
0.117,-5.706874E-06,1.755,121,0.117,-5.841154E-05,1.755,-5
0.1179,3.356985E-07,1.7685,121,0.1179,-0.0001174945,1.7685,-5
0.1188,2.316319E-05,1.782,121,0.1188,-0.0001584497,1.782,-4
0.1197,8.157473E-05,1.7955,121,0.1197,-0.0001070878,1.7955,-5
0.1206,5.572595E-05,1.809,120,0.1206,-4.028382E-06,1.809,-3
0.1215,2.719158E-05,1.8225,120,0.1215,7.821774E-05,1.8225,-1
0.1224,4.834058E-05,1.836,120,0.1224,0.0001661708,1.836,-4
0.1233,0.000102388,1.8495,119,0.1233,0.0001080949,1.8495,-3
0.1242,0.0001218585,1.863,119,0.1242,-7.586786E-05,1.863,-3
0.1251,3.558404E-05,1.8765,120,0.1251,-0.0001242084,1.8765,-3
0.126,-1.913481E-05,1.89,118,0.126,-0.0001564355,1.89,-4
0.1269,6.74754E-05,1.9035,121,0.1269,-0.0001507286,1.9035,-2
0.1278,5.136187E-05,1.917,120,0.1278,-3.927672E-05,1.917,-3
0.1287,8.392462E-05,1.9305,120,0.1287,7.956054E-05,1.9305,-1
0.1296,9.634547E-05,1.944,120,0.1296,9.164568E-05,1.944,-4
0.1305,5.035477E-06,1.9575,119,0.1305,5.270466E-05,1.9575,-6
0.1314,-4.599069E-05,1.971,120,0.1314,7.922484E-05,1.971,-1
0.1323,-8.291753E-05,1.9845,120,0.1323,8.82887E-05,1.9845,-4
0.1332,-8.493171E-05,1.998,120,0.1332,0.0001000381,1.998,-5
0.1341,-0.0001232013,2.0115,120,0.1341,0.0001101091,2.0115,-3
0.135,-3.793393E-05,2.025,120,0.135,7.083238E-05,2.025,-4
0.1359,-2.618448E-05,2.0385,122,0.1359,8.191043E-05,2.0385,-6
0.1368,-1.544213E-05,2.052,122,0.1368,2.21561E-05,2.052,-1
0.1377,1.376364E-05,2.0655,120,0.1377,3.054856E-05,2.0655,-2
0.1386,-2.316319E-05,2.079,121,0.1386,-6.713969E-06,2.079,-3
0.1395,-2.719158E-05,2.0925,121,0.1395,-6.54612E-05,2.0925,-5
0.1404,0,2.106,119,0.1404,-5.908293E-05,2.106,-6
0.1413,-1.040665E-05,2.1195,121,0.1413,-4.632639E-05,2.1195,-3
0.1422,-4.36408E-06,2.133,120,0.1422,-7.150377E-05,2.133,-6
0.1431,2.349889E-05,2.1465,120,0.1431,-9.533837E-05,2.1465,-5
0.144,1.510643E-05,2.16,121,0.144,-5.774014E-05,2.16,-5
0.1449,2.383459E-05,2.1735,120,0.1449,-6.78111E-05,2.1735,-3
0.1458,2.752728E-05,2.187,120,0.1458,-0.0001346151,2.187,0
0.1467,3.323415E-05,2.2005,121,0.1467,-0.0001507286,2.2005,-3
0.1476,6.74754E-05,2.214,120,0.1476,-0.0001205158,2.214,-4
0.1485,0.0001591211,2.2275,121,0.1485,-7.418937E-05,2.2275,-3
0.1494,0.0001930266,2.241,120,0.1494,-1.309224E-05,2.241,-3
0.1503,8.291753E-05,2.2545,119,0.1503,-2.349889E-06,2.2545,-1
0.1512,-4.53193E-05,2.268,120,0.1512,7.888914E-05,2.268,-1
0.1521,-0.0001376364,2.2815,119,0.1521,7.083238E-05,2.2815,0
0.153,-0.0003568475,2.295,120,0.153,2.786297E-05,2.295,-4
0.1539,-0.0002581521,2.3085,119,0.1539,-4.061952E-05,2.3085,-2
0.1548,-6.076142E-05,2.322,120,0.1548,-3.591974E-05,2.322,-3
0.1557,-4.49836E-05,2.3355,121,0.1557,-6.71397E-05,2.3355,-4
0.1566,-5.673304E-05,2.349,121,0.1566,-0.0001490501,2.349,0
0.1575,-6.378271E-05,2.3625,120,0.1575,-0.0001003738,2.3625,-4
0.1584,-3.088426E-05,2.376,121,0.1584,-1.007095E-06,2.376,0
0.1593,9.164568E-05,2.3895,122,0.1593,-1.678492E-06,2.3895,-6
0.1602,0.000203769,2.403,120,0.1602,2.920577E-05,2.403,-2
0.1611,0.0002786297,2.4165,120,0.1611,0.000112459,2.4165,-4
0.162,9.433127E-05,2.43,120,0.162,0.0001010452,2.43,-4
0.1629,-0.0001322652,2.4435,121,0.1629,3.491264E-05,2.4435,-4
0.1638,-0.0001591211,2.457,119,0.1638,1.007095E-05,2.457,-4
0.1647,-0.0001943694,2.4705,120,0.1647,4.129091E-05,2.4705,-3
0.1656,-0.0001990692,2.484,121,0.1656,4.129091E-05,2.484,-2
0.1665,-5.841154E-05,2.4975,121,0.1665,-2.517739E-05,2.4975,-3
0.1674,3.323415E-05,2.511,121,0.1674,-5.606165E-05,2.511,-2
0.1683,6.814679E-05,2.5245,122,0.1683,-1.812772E-05,2.5245,-2
0.1692,4.46479E-05,2.538,121,0.1692,-1.107805E-05,2.538,-5
0.1701,1.913481E-05,2.5515,123,0.1701,-4.53193E-05,2.5515,-6
0.171,1.678492E-06,2.565,122,0.171,-2.719158E-05,2.565,-3
0.1719,-6.713969E-06,2.5785,121,0.1719,-3.088426E-05,2.5785,-4
0.1728,6.6804E-05,2.592,121,0.1728,-6.6804E-05,2.592,-3
0.1737,0.0001742275,2.6055,122,0.1737,-2.24918E-05,2.6055,-5
0.1746,6.411841E-05,2.619,122,0.1746,-3.524834E-05,2.619,-5
0.1755,-7.888914E-05,2.6325,121,0.1755,-7.351797E-05,2.6325,-6
0.1764,-1.141375E-05,2.646,122,0.1764,-8.224613E-05,2.646,-4
0.1773,-5.471885E-05,2.6595,120,0.1773,-0.0001037308,2.6595,-3
0.1782,-3.726253E-05,2.673,123,0.1782,-6.411841E-05,2.673,-4
0.1791,-1.947051E-05,2.6865,123,0.1791,-6.243992E-05,2.6865,-5
0.18,-8.392462E-05,2.7,124,0.18,-8.69459E-05,2.7,-4
0.1809,-0.0001728847,2.7135,122,0.1809,-0.0001151446,2.7135,-5
0.1818,-6.009003E-05,2.727,122,0.1818,-7.150377E-05,2.727,-5
0.1827,-9.063859E-06,2.7405,123,0.1827,-6.210422E-05,2.7405,-5
0.1836,9.063859E-06,2.754,122,0.1836,-5.673304E-05,2.754,-8
0.1845,-1.779202E-05,2.7675,122,0.1845,1.544213E-05,2.7675,-6
0.1854,-9.063859E-06,2.781,122,0.1854,9.063859E-05,2.781,-7
0.1863,6.411841E-05,2.7945,123,0.1863,9.298848E-05,2.7945,-4
0.1872,3.994812E-05,2.808,122,0.1872,2.786297E-05,2.808,-4
0.1881,2.786297E-05,2.8215,122,0.1881,1.980621E-05,2.8215,-7
0.189,3.356985E-05,2.835,123,0.189,5.471885E-05,2.835,-6
0.1899,8.96315E-05,2.8485,124,0.1899,2.014191E-05,2.8485,-5
0.1908,0.0001332723,2.862,123,0.1908,-0.0001077592,2.862,-7
0.1917,0.000144686,2.8755,123,0.1917,-0.000193698,2.8755,-6
0.1926,0.0001285725,2.889,123,0.1926,-0.0001923552,2.889,-6
0.1935,5.673304E-05,2.9025,124,0.1935,-0.000148043,2.9025,-7
0.1944,5.539025E-05,2.916,124,0.1944,-5.069047E-05,2.916,-4
0.1953,1.174945E-05,2.9295,123,0.1953,0.0001346151,2.9295,-7
0.1962,-2.18204E-05,2.943,124,0.1962,0.0003085069,2.943,-3
0.1971,-8.325322E-05,2.9565,124,0.1971,0.0002064546,2.9565,-7
0.198,-0.0001554284,2.97,124,0.198,7.486076E-05,2.97,-5
0.1989,-0.0001346151,2.9835,124,0.1989,3.625543E-05,2.9835,-7
0.1998,-0.0002081331,2.997,123,0.1998,-5.169757E-05,2.997,-5
0.2007,-0.0001013809,3.0105,124,0.2007,-9.097429E-05,3.0105,-7
0.2016,5.706874E-06,3.024,124,0.2016,-5.304036E-05,3.024,-10
0.2025,1.174945E-05,3.0375,124,0.2025,-3.256275E-05,3.0375,-5
0.2034,-5.706874E-06,3.051,124,0.2034,-3.356985E-07,3.051,-7
0.2043,-1.712062E-05,3.0645,0,0.2043,7.049668E-06,3.0645,0
0.2052,-9.365987E-05,3.078,0,0.2052,3.356985E-05,3.078,0
0.2061,-0.0001607996,3.0915,0,0.2061,6.57969E-05,3.0915,0
0.207,-0.0001346151,3.105,0,0.207,-7.721065E-06,3.105,0
0.2079,-7.351797E-05,3.1185,0,0.2079,-7.553216E-05,3.1185,0
0.2088,-3.860533E-05,3.132,0,0.2088,-4.934768E-05,3.132,0
0.2097,8.157473E-05,3.1455,0,0.2097,-5.371176E-06,3.1455,0
0.2106,0.0001789273,3.159,0,0.2106,-2.853437E-05,3.159,0
0.2115,0.0001433432,3.1725,0,0.2115,3.189136E-05,3.1725,0
0.2124,0.0001782559,3.186,0,0.2124,9.164568E-05,3.186,0
0.2133,0.0003434196,3.1995,0,0.2133,-1.913481E-05,3.1995,0
0.2142,0.0003837034,3.213,0,0.2142,-8.090334E-05,3.213,0
0.2151,0.0001282368,3.2265,0,0.2151,-8.89601E-05,3.2265,0
0.216,-3.323415E-05,3.24,0,0.216,-6.61326E-05,3.24,0
0.2169,-0.0001654994,3.2535,0,0.2169,-4.800488E-05,3.2535,0
0.2178,-0.0003501335,3.267,0,0.2178,-5.606165E-05,3.267,0
0.2187,-0.0002564736,3.2805,0,0.2187,-1.913481E-05,3.2805,0
0.2196,-0.0002098116,3.294,0,0.2196,1.477073E-05,3.294,0
0.2205,-0.0001362936,3.3075,0,0.2205,-1.846342E-05,3.3075,0
0.2214,-6.210422E-05,3.321,0,0.2214,-2.28275E-05,3.321,0
0.2223,-5.874724E-05,3.3345,0,0.2223,6.713969E-07,3.3345,0
0.2232,-4.53193E-05,3.348,0,0.2232,-1.275654E-05,3.348,0
0.2241,1.342794E-06,3.3615,0,0.2241,-4.46479E-05,3.3615,0
0.225,-1.510643E-05,3.375,0,0.225,-1.544213E-05,3.375,0
0.2259,-2.383459E-05,3.3885,0,0.2259,-2.484169E-05,3.3885,0
0.2268,-1.779202E-05,3.402,0,0.2268,-7.016098E-05,3.402,0
0.2277,3.021286E-06,3.4155,0,0.2277,-7.553216E-05,3.4155,0
0.2286,2.316319E-05,3.429,0,0.2286,-4.934768E-05,3.429,0
0.2295,1.712062E-05,3.4425,0,0.2295,-4.666209E-05,3.4425,0
0.2304,9.365987E-05,3.456,0,0.2304,-7.418937E-05,3.456,0
0.2313,0.0001527428,3.4695,0,0.2313,-8.92958E-05,3.4695,0
0.2322,0.0001413291,3.483,0,0.2322,-7.486076E-05,3.483,0
0.2331,-1.544213E-05,3.4965,0,0.2331,-6.478981E-05,3.4965,0
0.234,-0.000115816,3.51,0,0.234,-8.627451E-05,3.51,0
0.2349,-0.0001399863,3.5235,0,0.2349,-5.639734E-05,3.5235,0
0.2358,-0.0001339437,3.537,0,0.2358,1.443504E-05,3.537,0
0.2367,-5.639734E-05,3.5505,0,0.2367,3.088426E-05,3.5505,0
0.2376,-3.390555E-05,3.564,0,0.2376,-2.450599E-05,3.564,0
0.2385,-4.36408E-06,3.5775,0,0.2385,2.819867E-05,3.5775,0
0.2394,4.867628E-05,3.591,0,0.2394,8.426032E-05,3.591,0
0.2403,4.699779E-05,3.6045,0,0.2403,0.000102388,3.6045,0
0.2412,3.927672E-05,3.618,0,0.2412,5.438316E-05,3.618,0
0.2421,3.994812E-05,3.6315,0,0.2421,2.786297E-05,3.6315,0
0.243,1.007095E-05,3.645,0,0.243,-3.356985E-06,3.645,0
0.2439,1.107805E-05,3.6585,0,0.2439,-6.948959E-05,3.6585,0
0.2448,0.0001258869,3.672,0,0.2448,-0.0001456931,3.672,0
0.2457,0.0002437171,3.6855,0,0.2457,-0.0001748989,3.6855,0
0.2466,0.0001953765,3.699,0,0.2466,-0.0001661708,3.699,0
0.2475,0.0001681849,3.7125,0,0.2475,-9.433127E-05,3.7125,0
0.2484,7.150377E-05,3.726,0,0.2484,-3.021286E-06,3.726,0
0.2493,-0.0001621424,3.7395,0,0.2493,0.000164828,3.7395,0
0.2502,-0.0002400244,3.753,0,0.2502,0.0002051118,3.753,0
0.2511,-0.0002662089,3.7665,0,0.2511,6.076142E-05,3.7665,0
0.252,-0.0001185016,3.78,0,0.252,5.673304E-05,3.78,0
0.2529,-7.318227E-05,3.7935,0,0.2529,3.524834E-05,3.7935,0
0.2538,-7.553216E-05,3.807,0,0.2538,-9.735256E-06,3.807,0
0.2547,-5.169757E-05,3.8205,0,0.2547,1.107805E-05,3.8205,0
0.2556,-5.471885E-05,3.834,0,0.2556,3.994812E-05,3.834,0
0.2565,-3.356985E-07,3.8475,0,0.2565,3.726253E-05,3.8475,0
0.2574,5.673304E-05,3.861,0,0.2574,-7.452507E-05,3.861,0
0.2583,6.478981E-05,3.8745,0,0.2583,-0.0002034333,3.8745,0
0.2592,2.1149E-05,3.888,0,0.2592,-0.0001983978,3.888,0
0.2601,-3.021286E-06,3.9015,0,0.2601,-0.0001738918,3.9015,0
0.261,2.517739E-05,3.915,0,0.261,-6.311131E-05,3.915,0
0.2619,3.692683E-05,3.9285,0,0.2619,0.0001121233,3.9285,0
0.2628,-1.007095E-05,3.942,0,0.2628,0.000200412,3.942,0
0.2637,1.040665E-05,3.9555,0,0.2637,0.0001329366,3.9555,0
0.2646,6.881819E-05,3.969,0,0.2646,7.586786E-05,3.969,0
0.2655,2.24918E-05,3.9825,0,0.2655,9.298848E-05,3.9825,0
0.2664,-2.383459E-05,3.996,0,0.2664,3.256275E-05,3.996,0
0.2673,-8.728161E-06,4.0095,0,0.2673,-5.136187E-05,4.0095,0
0.2682,8.459602E-05,4.023,0,0.2682,-6.076142E-05,4.023,0
0.2691,3.457694E-05,4.0365,0,0.2691,-5.236896E-05,4.0365,0
0.27,-3.457694E-05,4.05,0,0.27,-3.289845E-05,4.05,0
0.2709,-0.0001560998,4.0635,0,0.2709,-3.491264E-05,4.0635,0
0.2718,-0.0001916838,4.077,0,0.2718,-3.726253E-05,4.077,0
0.2727,-4.599069E-05,4.0905,0,0.2727,-1.309224E-05,4.0905,0
0.2736,1.242084E-05,4.104,0,0.2736,-2.584878E-05,4.104,0
0.2745,7.150377E-05,4.1175,0,0.2745,-4.33051E-05,4.1175,0
0.2754,3.222705E-05,4.131,0,0.2754,-6.64683E-05,4.131,0
0.2763,-5.136187E-05,4.1445,0,0.2763,-6.210422E-05,4.1445,0
0.2772,-4.061952E-05,4.158,0,0.2772,-7.016098E-05,4.158,0
0.2781,-5.673304E-05,4.1715,0,0.2781,-0.0001097734,4.1715,0
0.279,-7.687495E-05,4.185,0,0.279,-5.572595E-05,4.185,0
0.2799,-4.229801E-05,4.1985,0,0.2799,-4.196231E-05,4.1985,0
0.2808,1.376364E-05,4.212,0,0.2808,-7.452507E-05,4.212,0
0.2817,3.659113E-05,4.2255,0,0.2817,-6.009003E-05,4.2255,0
0.2826,8.258183E-05,4.239,0,0.2826,-2.719158E-05,4.239,0
0.2835,0.0001997406,4.2525,0,0.2835,-1.309224E-05,4.2525,0
0.2844,0.0001889983,4.266,0,0.2844,1.644922E-05,4.266,0
0.2853,0.0001285725,4.2795,0,0.2853,1.174945E-05,4.2795,0
0.2862,0.0001044022,4.293,0,0.2862,-3.759823E-05,4.293,0
0.2871,-0.0001715419,4.3065,0,0.2871,-5.740444E-05,4.3065,0
0.288,-0.0001916838,4.32,0,0.288,-6.277562E-05,4.32,0
0.2889,-0.0001383078,4.3335,0,0.2889,-4.834058E-05,4.3335,0
0.2898,-0.0001077592,4.347,0,0.2898,3.356985E-07,4.347,0
0.2907,8.392462E-06,4.3605,0,0.2907,-3.323415E-05,4.3605,0
0.2916,0.0001060807,4.374,0,0.2916,-6.143282E-05,4.374,0
0.2925,2.920577E-05,4.3875,0,0.2925,-7.721065E-06,4.3875,0
0.2934,-0.0001178302,4.401,0,0.2934,2.24918E-05,4.401,0
0.2943,-0.0001789273,4.4145,0,0.2943,-2.014191E-06,4.4145,0
0.2952,-0.0001534142,4.428,0,0.2952,7.385367E-06,4.428,0
0.2961,-0.0001104448,4.4415,0,0.2961,3.021286E-05,4.4415,0
0.297,7.687495E-05,4.455,0,0.297,2.752728E-05,4.455,0
0.2979,0.0001376364,4.4685,0,0.2979,-3.826963E-05,4.4685,0
0.2988,3.021286E-06,4.482,0,0.2988,-8.493171E-05,4.482,0
0.2997,-2.28275E-05,4.4955,0,0.2997,-7.653925E-05,4.4955,0
0.3006,-2.752728E-05,4.509,0,0.3006,-4.632639E-05,4.509,0
0.3015,-9.063859E-06,4.5225,0,0.3015,-9.399558E-06,4.5225,0
0.3024,5.001907E-05,4.536,0,0.3024,3.323415E-05,4.536,0
0.3033,0.0001366293,4.5495,0,0.3033,9.466698E-05,4.5495,0
0.3042,0.0001070878,4.563,0,0.3042,8.224613E-05,4.563,0
0.3051,-3.659113E-05,4.5765,0,0.3051,5.371176E-06,4.5765,0
0.306,-0.0001668421,4.59,0,0.306,2.24918E-05,4.59,0
0.3069,-0.0001507286,4.6035,0,0.3069,-3.692683E-06,4.6035,0
0.3078,-8.258183E-05,4.617,0,0.3078,-2.047761E-05,4.617,0
0.3087,-1.510643E-05,4.6305,0,0.3087,-2.316319E-05,4.6305,0
0.3096,-5.706874E-06,4.644,0,0.3096,-1.510643E-05,4.644,0
0.3105,5.304036E-05,4.6575,0,0.3105,-2.551309E-05,4.6575,0
0.3114,7.653925E-05,4.671,0,0.3114,-7.049668E-05,4.671,0
0.3123,6.143282E-05,4.6845,0,0.3123,-0.0001161517,4.6845,0
0.3132,3.424125E-05,4.698,0,0.3132,-8.82887E-05,4.698,0
0.3141,4.061952E-05,4.7115,0,0.3141,-5.035477E-05,4.7115,0
0.315,8.392462E-05,4.725,0,0.315,-4.33051E-05,4.725,0
0.3159,0.0001460288,4.7385,0,0.3159,-9.735256E-06,4.7385,0
0.3168,0.0002034333,4.752,0,0.3168,7.721065E-05,4.752,0
0.3177,0.0001000381,4.7655,0,0.3177,8.157473E-05,4.7655,0
0.3186,-2.484169E-05,4.779,0,0.3186,-8.157473E-05,4.779,0
0.3195,-7.821774E-05,4.7925,0,0.3195,-0.0001097734,4.7925,0
0.3204,-0.0001514,4.806,0,0.3204,-7.687495E-05,4.806,0
0.3213,-0.0002829938,4.8195,0,0.3213,-0.000105745,4.8195,0
0.3222,-0.000197055,4.833,0,0.3222,-2.551309E-05,4.833,0
0.3231,-1.510643E-05,4.8465,0,0.3231,8.89601E-05,4.8465,0
0.324,-2.584878E-05,4.86,0,0.324,0.0001070878,4.86,0
0.3249,-1.913481E-05,4.8735,0,0.3249,3.189136E-05,4.8735,0
0.3258,-3.054856E-05,4.887,0,0.3258,6.713969E-06,4.887,0
0.3267,-0.0001238727,4.9005,0,0.3267,9.735256E-06,4.9005,0
0.3276,-2.551309E-05,4.914,0,0.3276,4.095522E-05,4.914,0
0.3285,-1.007095E-06,4.9275,0,0.3285,-1.040665E-05,4.9275,0
0.3294,1.208515E-05,4.941,0,0.3294,-4.53193E-05,4.941,0
0.3303,2.450599E-05,4.9545,0,0.3303,1.577783E-05,4.9545,0
0.3312,1.174945E-05,4.968,0,0.3312,2.819867E-05,4.968,0
0.3321,7.821774E-05,4.9815,0,0.3321,1.007095E-06,4.9815,0
0.333,7.620356E-05,4.995,0,0.333,2.24918E-05,4.995,0
0.3339,4.766919E-05,5.0085,0,0.3339,-2.752728E-05,5.0085,0
0.3348,4.39765E-05,5.022,0,0.3348,-0.0001037308,5.022,0
0.3357,-6.042573E-06,5.0355,0,0.3357,-7.989624E-05,5.0355,0
0.3366,7.049668E-06,5.049,0,0.3366,-1.846342E-05,5.049,0
0.3375,1.577783E-05,5.0625,0,0.3375,-1.342794E-06,5.0625,0
0.3384,5.035477E-06,5.076,0,0.3384,-1.980621E-05,5.076,0
0.3393,1.879912E-05,5.0895,0,0.3393,-1.846342E-05,5.0895,0
0.3402,1.980621E-05,5.103,0,0.3402,-1.007095E-06,5.103,0
0.3411,-2.887007E-05,5.1165,0,0.3411,1.577783E-05,5.1165,0
0.342,-6.378271E-06,5.13,0,0.342,-5.505455E-05,5.13,0
0.3429,7.486076E-05,5.1435,0,0.3429,-0.0002111543,5.1435,0
0.3438,5.807584E-05,5.157,0,0.3438,-0.0001910124,5.157,0
0.3447,-5.975433E-05,5.1705,0,0.3447,-0.0001473716,5.1705,0
0.3456,-7.284657E-05,5.184,0,0.3456,-0.000144686,5.184,0
0.3465,-5.539025E-05,5.1975,0,0.3465,-3.457694E-05,5.1975,0
0.3474,-8.82887E-05,5.211,0,0.3474,0.0001591211,5.211,0
0.3483,6.51255E-05,5.2245,0,0.3483,0.000197055,5.2245,0
0.3492,7.888914E-05,5.238,0,0.3492,7.251087E-05,5.238,0
0.3501,-3.323415E-05,5.2515,0,0.3501,7.754635E-05,5.2515,0
0.351,-0.0001117876,5.265,0,0.351,2.1149E-05,5.265,0
0.3519,-7.620356E-05,5.2785,0,0.3519,2.652018E-05,5.2785,0
0.3528,-5.270466E-05,5.292,0,0.3528,-5.706874E-06,5.292,0
0.3537,-3.927672E-05,5.3055,0,0.3537,-3.323415E-05,5.3055,0
0.3546,-4.33051E-05,5.319,0,0.3546,-3.558404E-05,5.319,0
0.3555,8.728161E-06,5.3325,0,0.3555,-3.793393E-05,5.3325,0
0.3564,6.009003E-05,5.346,0,0.3564,-2.954147E-05,5.346,0
0.3573,4.49836E-05,5.3595,0,0.3573,3.088426E-05,5.3595,0
0.3582,8.157473E-05,5.373,0,0.3582,3.155566E-05,5.373,0
0.3591,6.143282E-05,5.3865,0,0.3591,-7.150377E-05,5.3865,0
0.36,-6.009003E-05,5.4,0,0.36,-9.030289E-05,5.4,0
0.3609,3.390555E-05,5.4135,0,0.3609,-8.056764E-05,5.4135,0
0.3618,7.553216E-05,5.427,0,0.3618,-7.888914E-05,5.427,0
0.3627,-6.6804E-05,5.4405,0,0.3627,-3.256275E-05,5.4405,0
0.3636,-5.606165E-05,5.454,0,0.3636,1.712062E-05,5.454,0
0.3645,3.726253E-05,5.4675,0,0.3645,4.565499E-05,5.4675,0
0.3654,6.411841E-05,5.481,0,0.3654,4.666209E-05,5.481,0
0.3663,0.0001571069,5.4945,0,0.3663,-3.323415E-05,5.4945,0
0.3672,0.0002319677,5.508,0,0.3672,-3.054856E-05,5.508,0
0.3681,5.035477E-05,5.5215,0,0.3681,-5.572595E-05,5.5215,0
0.369,-0.0001430075,5.535,0,0.369,-6.6804E-05,5.535,0
0.3699,-0.0001779202,5.5485,0,0.3699,-6.61326E-05,5.5485,0
0.3708,-0.0002229038,5.562,0,0.3708,-6.076142E-05,5.562,0
0.3717,-0.0002682231,5.5755,0,0.3717,-5.069047E-05,5.5755,0
0.3726,-0.0001077592,5.589,0,0.3726,-6.881819E-05,5.589,0
0.3735,-7.620356E-05,5.6025,0,0.3735,-3.121996E-05,5.6025,0
0.3744,-0.0001426719,5.616,0,0.3744,-4.46479E-05,5.616,0
0.3753,-7.888914E-05,5.6295,0,0.3753,-0.0001033951,5.6295,0
0.3762,8.560311E-05,5.643,0,0.3762,-6.210422E-05,5.643,0
0.3771,7.016098E-05,5.6565,0,0.3771,1.980621E-05,5.6565,0
0.378,9.365987E-05,5.67,0,0.378,6.61326E-05,5.67,0
0.3789,7.855344E-05,5.6835,0,0.3789,6.61326E-05,5.6835,0
0.3798,-4.263371E-05,5.697,0,0.3798,3.860533E-05,5.697,0
0.3807,-0.0001064164,5.7105,0,0.3807,5.673304E-05,5.7105,0
0.3816,5.035477E-06,5.724,0,0.3816,6.881819E-05,5.724,0
0.3825,0.0001070878,5.7375,0,0.3825,1.678492E-06,5.7375,0
0.3834,6.378271E-05,5.751,0,0.3834,-2.450599E-05,5.751,0
0.3843,3.323415E-05,5.7645,0,0.3843,2.450599E-05,5.7645,0
0.3852,5.874724E-05,5.778,0,0.3852,2.316319E-05,5.778,0
0.3861,3.692683E-05,5.7915,0,0.3861,-3.927672E-05,5.7915,0
0.387,-2.450599E-05,5.805,0,0.387,-4.53193E-05,5.805,0
0.3879,1.342794E-05,5.8185,0,0.3879,-7.016098E-05,5.8185,0
0.3888,4.229801E-05,5.832,0,0.3888,-0.0001168231,5.832,0
0.3897,1.141375E-05,5.8455,0,0.3897,-6.74754E-05,5.8455,0
0.3906,4.800488E-05,5.859,0,0.3906,1.342794E-06,5.859,0
0.3915,0.0001453574,5.8725,0,0.3915,-1.577783E-05,5.8725,0
0.3924,9.768826E-05,5.886,0,0.3924,1.577783E-05,5.886,0
0.3933,2.786297E-05,5.8995,0,0.3933,-2.987716E-05,5.8995,0
0.3942,8.358892E-05,5.913,0,0.3942,-0.0001047379,5.913,0
0.3951,0.0001802701,5.9265,0,0.3951,-0.0002057832,5.9265,0
0.396,9.634547E-05,5.94,0,0.396,-0.000218204,5.94,0
0.3969,-0.0001003738,5.9535,0,0.3969,-0.0001594568,5.9535,0
0.3978,-0.0002138399,5.967,0,0.3978,-9.063859E-06,5.967,0
0.3987,-0.000330663,5.9805,0,0.3987,0.0001661708,5.9805,0
0.3996,-0.000323949,5.994,0,0.3996,0.0003054856,5.994,0
0.4005,-0.0002111543,6.0075,0,0.4005,0.0003064927,6.0075,0
0.4014,-0.0001265583,6.021,0,0.4014,0.0001500572,6.021,0
0.4023,-5.841154E-05,6.0345,0,0.4023,3.021286E-05,6.0345,0
0.4032,-2.551309E-05,6.048,0,0.4032,1.644922E-05,6.048,0
0.4041,-4.53193E-05,6.0615,0,0.4041,3.457694E-05,6.0615,0
0.405,-2.618448E-05,6.075,0,0.405,-3.356985E-06,6.075,0
0.4059,-1.242084E-05,6.0885,0,0.4059,-3.625543E-05,6.0885,0
0.4068,3.726253E-05,6.102,0,0.4068,-4.867628E-05,6.102,0
0.4077,4.699779E-05,6.1155,0,0.4077,-3.659113E-05,6.1155,0
0.4086,2.18204E-05,6.129,0,0.4086,-6.378271E-05,6.129,0
0.4095,7.083238E-05,6.1425,0,0.4095,-5.807584E-05,6.1425,0
0.4104,8.291753E-05,6.156,0,0.4104,-5.941863E-05,6.156,0
0.4113,5.471885E-05,6.1695,0,0.4113,-6.57969E-05,6.1695,0
0.4122,3.961242E-05,6.183,0,0.4122,-6.311131E-05,6.183,0
0.4131,-5.236896E-05,6.1965,0,0.4131,-9.768826E-05,6.1965,0
0.414,-0.000133608,6.21,0,0.414,-5.539025E-05,6.21,0
0.4149,-4.46479E-05,6.2235,0,0.4149,-3.524834E-05,6.2235,0
0.4158,4.028382E-05,6.237,0,0.4158,-9.533837E-05,6.237,0
0.4167,8.560311E-05,6.2505,0,0.4167,-4.229801E-05,6.2505,0
0.4176,5.471885E-05,6.264,0,0.4176,-2.28275E-05,6.264,0
0.4185,0.0001178302,6.2775,0,0.4185,-3.289845E-05,6.2775,0
0.4194,0.0001201801,6.291,0,0.4194,-7.888914E-05,6.291,0
0.4203,0.0002185397,6.3045,0,0.4203,-0.0001339437,6.3045,0
0.4212,0.0003246204,6.318,0,0.4212,-8.82887E-05,6.318,0
0.4221,0.000203769,6.3315,0,0.4221,-0.0001514,6.3315,0
0.423,1.174945E-05,6.345,0,0.423,-0.0003669185,6.345,0
0.4239,-0.000148043,6.3585,0,0.4239,-0.0003793393,6.3585,0
0.4248,-0.0002907149,6.372,0,0.4248,-0.0002192111,6.372,0
0.4257,-0.0003917601,6.3855,0,0.4257,-5.941863E-05,6.3855,0
0.4266,-0.0001889983,6.399,0,0.4266,8.056763E-06,6.399,0
0.4275,-0.0001742275,6.4125,0,0.4275,0.0002447242,6.4125,0
0.4284,-5.438316E-05,6.426,0,0.4284,0.0005951934,6.426,0
0.4293,-1.141375E-05,6.4395,0,0.4293,0.0004387579,6.4395,0
0.4302,-2.18204E-05,6.453,0,0.4302,0.0002020905,6.453,0
0.4311,-2.18204E-05,6.4665,0,0.4311,0.0001285725,6.4665,0
0.432,-5.169757E-05,6.48,0,0.432,4.49836E-05,6.48,0
0.4329,-4.565499E-05,6.4935,0,0.4329,1.577783E-05,6.4935,0
0.4338,1.141375E-05,6.507,0,0.4338,6.378271E-06,6.507,0
0.4347,3.961242E-05,6.5205,0,0.4347,9.735256E-06,6.5205,0
0.4356,4.666209E-05,6.534,0,0.4356,7.385367E-06,6.534,0
0.4365,6.009003E-05,6.5475,0,0.4365,-2.786297E-05,6.5475,0
0.4374,4.800488E-05,6.561,0,0.4374,-3.390555E-05,6.561,0
0.4383,-9.735256E-06,6.5745,0,0.4383,-1.242084E-05,6.5745,0
0.4392,-3.356985E-07,6.588,0,0.4392,-3.692683E-05,6.588,0
0.4401,4.39765E-05,6.6015,0,0.4401,-7.956054E-05,6.6015,0
0.441,7.284657E-05,6.615,0,0.441,-5.136187E-05,6.615,0
0.4419,0.0001272297,6.6285,0,0.4419,-3.591974E-05,6.6285,0
0.4428,0.0001587854,6.642,0,0.4428,-7.016098E-05,6.642,0
0.4437,0.0001221943,6.6555,0,0.4437,-6.61326E-05,6.6555,0
0.4446,8.392462E-05,6.669,0,0.4446,-5.169757E-05,6.669,0
0.4455,-1.409934E-05,6.6825,0,0.4455,-4.39765E-05,6.6825,0
0.4464,9.332418E-05,6.696,0,0.4464,-5.941863E-05,6.696,0
0.4473,0.000144686,6.7095,0,0.4473,-7.821774E-05,6.7095,0
0.4482,-3.189136E-05,6.723,0,0.4482,-6.042573E-05,6.723,0
0.4491,-0.0001174945,6.7365,0,0.4491,-4.733349E-05,6.7365,0
0.45,-0.0001769131,6.75,0,0.45,-7.217517E-05,6.75,0
0.4509,-0.0001225299,6.7635,0,0.4509,-8.157473E-05,6.7635,0
0.4518,-0.0001225299,6.777,0,0.4518,-2.28275E-05,6.777,0
0.4527,-2.719158E-05,6.7905,0,0.4527,-3.457694E-05,6.7905,0
0.4536,5.169757E-05,6.804,0,0.4536,-8.426032E-05,6.804,0
0.4545,2.417029E-05,6.8175,0,0.4545,-4.028382E-05,6.8175,0
0.4554,-1.779202E-05,6.831,0,0.4554,-2.584878E-05,6.831,0
0.4563,-7.183947E-05,6.8445,0,0.4563,-8.627451E-05,6.8445,0
0.4572,-0.0001473716,6.858,0,0.4572,-7.016098E-05,6.858,0
0.4581,-0.000158114,6.8715,0,0.4581,-4.968337E-05,6.8715,0
0.459,-0.0001054093,6.885,0,0.459,-4.53193E-05,6.885,0
0.4599,-3.088426E-05,6.8985,0,0.4599,-2.1149E-05,6.8985,0
0.4608,0.0001366293,6.912,0,0.4608,1.947051E-05,6.912,0
0.4617,0.0001339437,6.9255,0,0.4617,9.265278E-05,6.9255,0
0.4626,7.016098E-05,6.939,0,0.4626,9.097429E-05,6.939,0
0.4635,2.450599E-05,6.9525,0,0.4635,9.063859E-06,6.9525,0
0.4644,-0.0001383078,6.966,0,0.4644,-1.074235E-05,6.966,0
0.4653,-0.0001366293,6.9795,0,0.4653,1.007095E-06,6.9795,0
0.4662,-5.001907E-05,6.993,0,0.4662,-1.510643E-05,6.993,0
0.4671,-2.014191E-06,7.0065,0,0.4671,-4.46479E-05,7.0065,0
0.468,5.035477E-06,7.02,0,0.468,-3.021286E-06,7.02,0
0.4689,6.243992E-05,7.0335,0,0.4689,3.289845E-05,7.0335,0
0.4698,8.69459E-05,7.047,0,0.4698,-2.014191E-06,7.047,0
0.4707,-1.007095E-05,7.0605,0,0.4707,-3.021286E-05,7.0605,0
0.4716,-6.881819E-05,7.074,0,0.4716,-5.203327E-05,7.074,0
0.4725,-1.141375E-05,7.0875,0,0.4725,-7.049668E-05,7.0875,0
0.4734,-3.961242E-05,7.101,0,0.4734,-5.270466E-05,7.101,0
0.4743,-0.0001000381,7.1145,0,0.4743,-5.001907E-05,7.1145,0
0.4752,-4.33051E-05,7.128,0,0.4752,-3.591974E-05,7.128,0
0.4761,-1.913481E-05,7.1415,0,0.4761,-1.846342E-05,7.1415,0
0.477,-3.356985E-07,7.155,0,0.477,-1.040665E-05,7.155,0
0.4779,2.853437E-05,7.1685,0,0.4779,-6.009003E-05,7.1685,0
0.4788,2.719158E-05,7.182,0,0.4788,-4.46479E-05,7.182,0
0.4797,4.36408E-05,7.1955,0,0.4797,-0.0001003738,7.1955,0
0.4806,5.035477E-05,7.209,0,0.4806,-0.0001201801,7.209,0
0.4815,3.088426E-05,7.2225,0,0.4815,-2.316319E-05,7.2225,0
0.4824,3.726253E-05,7.236,0,0.4824,0.0001198444,7.236,0
0.4833,5.975433E-05,7.2495,0,0.4833,7.418937E-05,7.2495,0
0.4842,2.21561E-05,7.263,0,0.4842,-4.129091E-05,7.263,0
0.4851,-1.174945E-05,7.2765,0,0.4851,-4.028382E-06,7.2765,0
0.486,-8.023193E-05,7.29,0,0.486,3.692683E-06,7.29,0
0.4869,-0.0001748989,7.3035,0,0.4869,-3.860533E-05,7.3035,0
0.4878,-0.0002077974,7.317,0,0.4878,-2.920577E-05,7.317,0
0.4887,-1.678492E-05,7.3305,0,0.4887,8.426032E-05,7.3305,0
0.4896,0.0001164874,7.344,0,0.4896,0.0001309224,7.344,0
0.4905,0.0001148089,7.3575,0,0.4905,0.0001144732,7.3575,0
0.4914,9.097429E-05,7.371,0,0.4914,2.920577E-05,7.371,0
0.4923,4.39765E-05,7.3845,0,0.4923,3.356985E-07,7.3845,0
0.4932,-3.692683E-06,7.398,0,0.4932,-2.18204E-05,7.398,0
0.4941,5.035477E-06,7.4115,0,0.4941,-2.786297E-05,7.4115,0
0.495,-2.047761E-05,7.425,0,0.495,2.1149E-05,7.425,0
0.4959,-3.390555E-05,7.4385,0,0.4959,5.471885E-05,7.4385,0
0.4968,-1.174945E-05,7.452,0,0.4968,4.36408E-06,7.452,0
0.4977,-1.040665E-05,7.4655,0,0.4977,-7.049668E-06,7.4655,0
0.4986,-1.141375E-05,7.479,0,0.4986,2.517739E-05,7.479,0
0.4995,-4.36408E-06,7.4925,0,0.4995,1.678492E-06,7.4925,0
0.5004,1.712062E-05,7.506,0,0.5004,-2.584878E-05,7.506,0
0.5013,9.399558E-06,7.5195,0,0.5013,-5.169757E-05,7.5195,0
0.5022,1.242084E-05,7.533,0,0.5022,-3.222705E-05,7.533,0
0.5031,-1.275654E-05,7.5465,0,0.5031,-5.471885E-05,7.5465,0
0.504,-1.678492E-06,7.56,0,0.504,-6.176852E-05,7.56,0
0.5049,-2.349889E-06,7.5735,0,0.5049,-5.706874E-05,7.5735,0
0.5058,-1.309224E-05,7.587,0,0.5058,-2.1149E-05,7.587,0
0.5067,0,7.6005,0,0.5067,-5.807584E-05,7.6005,0
0.5076,-4.36408E-06,7.614,0,0.5076,-0.000105745,7.614,0
0.5085,-3.121996E-05,7.6275,0,0.5085,-8.96315E-05,7.6275,0
0.5094,1.980621E-05,7.641,0,0.5094,-8.761731E-05,7.641,0
0.5103,8.258183E-05,7.6545,0,0.5103,-0.0001315938,7.6545,0
0.5112,1.779202E-05,7.668,0,0.5112,-0.0001245441,7.668,0
0.5121,8.728161E-06,7.6815,0,0.5121,-2.014191E-06,7.6815,0
0.513,1.846342E-05,7.695,0,0.513,4.196231E-05,7.695,0
0.5139,-0.0001117876,7.7085,0,0.5139,3.189136E-05,7.7085,0
0.5148,-0.0001507286,7.722,0,0.5148,2.920577E-05,7.722,0
0.5157,5.069047E-05,7.7355,0,0.5157,4.43122E-05,7.7355,0
0.5166,0.0002464027,7.749,0,0.5166,2.383459E-05,7.749,0
0.5175,0.0001510643,7.7625,0,0.5175,-1.275654E-05,7.7625,0
0.5184,1.443504E-05,7.776,0,0.5184,-2.920577E-05,7.776,0
0.5193,-0.0001151446,7.7895,0,0.5193,2.014191E-06,7.7895,0
0.5202,-0.0001453574,7.803,0,0.5202,5.035477E-06,7.803,0
0.5211,-0.0001077592,7.8165,0,0.5211,-2.383459E-05,7.8165,0
0.522,-5.471885E-05,7.83,0,0.522,-2.685588E-05,7.83,0
0.5229,-5.673304E-05,7.8435,0,0.5229,-1.510643E-05,7.8435,0
0.5238,-6.076142E-05,7.857,0,0.5238,-4.061952E-05,7.857,0
0.5247,-4.33051E-05,7.8705,0,0.5247,-3.591974E-05,7.8705,0
0.5256,-5.606165E-05,7.884,0,0.5256,-1.275654E-05,7.884,0
0.5265,-5.404745E-05,7.8975,0,0.5265,-2.987716E-05,7.8975,0
0.5274,-3.390555E-05,7.911,0,0.5274,-3.961242E-05,7.911,0
0.5283,-1.040665E-05,7.9245,0,0.5283,-6.78111E-05,7.9245,0
0.5292,1.779202E-05,7.938,0,0.5292,-2.517739E-05,7.938,0
0.5301,4.901198E-05,7.9515,0,0.5301,-1.913481E-05,7.9515,0
0.531,4.934768E-05,7.965,0,0.531,-3.189136E-05,7.965,0
0.5319,6.54612E-05,7.9785,0,0.5319,-5.371176E-05,7.9785,0
0.5328,3.860533E-05,7.992,0,0.5328,-4.33051E-05,7.992,0
0.5337,0.0002554666,8.0055,0,0.5337,-6.176852E-05,8.0055,0
0.5346,0.0005220111,8.019,0,0.5346,-0.0001017166,8.019,0
0.5355,0.0004723278,8.0325,0,0.5355,-0.0001131304,8.0325,0
0.5364,0.0002477455,8.046,0,0.5364,-0.0001728847,8.046,0
0.5373,5.136187E-05,8.0595,0,0.5373,-0.000214847,8.0595,0
0.5382,-0.0002920577,8.073,0,0.5382,-8.526741E-05,8.073,0
0.5391,-0.0005817655,8.0865,0,0.5391,4.028382E-06,8.0865,0
0.54,-0.0005367819,8.1,0,0.54,9.097429E-05,8.1,0
0.5409,-0.0003638972,8.1135,0,0.5409,0.00024271,8.1135,0
0.5418,-0.0003477836,8.127,0,0.5418,0.0001520714,8.127,0
0.5427,-0.000316228,8.1405,0,0.5427,7.116808E-05,8.1405,0
0.5436,-7.653925E-05,8.154,0,0.5436,9.869535E-05,8.154,0
0.5445,-1.376364E-05,8.1675,0,0.5445,7.888914E-05,8.1675,0
0.5454,-4.39765E-05,8.181,0,0.5454,3.390555E-05,8.181,0
0.5463,-3.860533E-05,8.1945,0,0.5463,2.24918E-05,8.1945,0
0.5472,-1.510643E-05,8.208,0,0.5472,-2.349889E-06,8.208,0
0.5481,1.242084E-05,8.2215,0,0.5481,-4.733349E-05,8.2215,0
0.549,1.577783E-05,8.235,0,0.549,-1.510643E-05,8.235,0
0.5499,3.390555E-05,8.2485,0,0.5499,1.040665E-05,8.2485,0
0.5508,-2.047761E-05,8.262,0,0.5508,-4.095522E-05,8.262,0
0.5517,-2.819867E-05,8.2755,0,0.5517,-4.129091E-05,8.2755,0
0.5526,2.450599E-05,8.289,0,0.5526,-1.846342E-05,8.289,0
0.5535,3.692683E-05,8.3025,0,0.5535,-1.208515E-05,8.3025,0
0.5544,0.0001362936,8.316,0,0.5544,-3.323415E-05,8.316,0
0.5553,9.835965E-05,8.3295,0,0.5553,-6.411841E-05,8.3295,0
0.5562,8.761731E-05,8.343,0,0.5562,-3.894102E-05,8.343,0
0.5571,9.063859E-05,8.3565,0,0.5571,-4.33051E-05,8.3565,0
0.558,5.941863E-05,8.37,0,0.558,-8.224613E-05,8.37,0
0.5589,6.915389E-05,8.3835,0,0.5589,-9.231708E-05,8.3835,0
0.5598,1.174945E-05,8.397,0,0.5598,-6.378271E-05,8.397,0
0.5607,-4.46479E-05,8.4105,0,0.5607,-0.0001258869,8.4105,0
0.5616,-7.821774E-05,8.424,0,0.5616,-0.0001638209,8.424,0
0.5625,-8.358892E-05,8.4375,0,0.5625,-7.016098E-05,8.4375,0
0.5634,5.807584E-05,8.451,0,0.5634,-2.047761E-05,8.451,0
0.5643,9.903105E-05,8.4645,0,0.5643,-3.826963E-05,8.4645,0
0.5652,0.0001406577,8.478,0,0.5652,2.517739E-05,8.478,0
0.5661,0.0001148089,8.4915,0,0.5661,0.0001232013,8.4915,0
0.567,5.136187E-05,8.505,0,0.567,0.0001070878,8.505,0
0.5679,-9.063859E-06,8.5185,0,0.5679,7.721065E-06,8.5185,0
0.5688,3.390555E-05,8.532,0,0.5688,-2.349889E-05,8.532,0
0.5697,6.378271E-06,8.5455,0,0.5697,-5.371176E-06,8.5455,0
0.5706,-2.21561E-05,8.559,0,0.5706,4.196231E-05,8.559,0
0.5715,8.392462E-06,8.5725,0,0.5715,5.539025E-05,8.5725,0
0.5724,-5.706874E-06,8.586,0,0.5724,3.356985E-06,8.586,0
0.5733,0,8.5995,0,0.5733,1.409934E-05,8.5995,0
0.5742,1.040665E-05,8.613,0,0.5742,2.047761E-05,8.613,0
0.5751,2.014191E-06,8.6265,0,0.5751,-1.007095E-05,8.6265,0
0.576,-6.378271E-06,8.64,0,0.576,2.349889E-06,8.64,0
0.5769,1.309224E-05,8.6535,0,0.5769,3.356985E-07,8.6535,0
0.5778,8.392462E-06,8.667,0,0.5778,-3.692683E-05,8.667,0
0.5787,1.376364E-05,8.6805,0,0.5787,-5.136187E-05,8.6805,0
0.5796,-3.021286E-06,8.694,0,0.5796,-1.174945E-05,8.694,0
0.5805,-4.36408E-06,8.7075,0,0.5805,-1.779202E-05,8.7075,0
0.5814,9.735256E-06,8.721,0,0.5814,-1.376364E-05,8.721,0
0.5823,1.443504E-05,8.7345,0,0.5823,-5.438316E-05,8.7345,0
0.5832,-1.477073E-05,8.748,0,0.5832,-3.558404E-05,8.748,0
0.5841,-7.586786E-05,8.7615,0,0.5841,-9.735256E-06,8.7615,0
0.585,-5.673304E-05,8.775,0,0.585,-4.36408E-05,8.775,0
0.5859,-2.719158E-05,8.7885,0,0.5859,-5.337606E-05,8.7885,0
0.5868,-6.344701E-05,8.802,0,0.5868,-1.242084E-05,8.802,0
0.5877,-4.766919E-05,8.8155,0,0.5877,-1.510643E-05,8.8155,0
0.5886,-2.987716E-05,8.829,0,0.5886,-5.404745E-05,8.829,0
0.5895,-3.860533E-05,8.8425,0,0.5895,1.107805E-05,8.8425,0
0.5904,3.021286E-06,8.856,0,0.5904,4.733349E-05,8.856,0
0.5913,0.0001080949,8.8695,0,0.5913,2.316319E-05,8.8695,0
0.5922,0.0002051118,8.883,0,0.5922,-7.821774E-05,8.883,0
0.5931,0.0001554284,8.8965,0,0.5931,-0.0002232395,8.8965,0
0.594,0.0001607996,8.91,0,0.594,-0.0003313344,8.91,0
0.5949,0.0003863889,8.9235,0,0.5949,-0.0002819867,8.9235,0
0.5958,0.0004823987,8.937,0,0.5958,-0.00018262,8.937,0
0.5967,0.0001232013,8.9505,0,0.5967,9.735256E-06,8.9505,0
0.5976,-0.0002094759,8.964,0,0.5976,0.0001742275,8.964,0
0.5985,-0.0003682612,8.9775,0,0.5985,0.0001527428,8.9775,0
0.5994,-0.0005371176,8.991,0,0.5994,0.0001050736,8.991,0
0.6003,-0.0007395438,9.0045,0,0.6003,0.0002077974,9.0045,0
0.6012,-0.0004202945,9.018,0,0.6012,0.0001651637,9.018,0
0.6021,-6.6804E-05,9.0315,0,0.6021,5.606165E-05,9.0315,0
0.603,-7.486076E-05,9.045,0,0.603,6.814679E-05,9.045,0
0.6039,-9.030289E-05,9.0585,0,0.6039,4.733349E-05,9.0585,0
0.6048,-4.33051E-05,9.072001,0,0.6048,1.980621E-05,9.072001,0
0.6057,-1.376364E-05,9.0855,0,0.6057,5.639734E-05,9.0855,0
0.6066,2.28275E-05,9.099,0,0.6066,1.309224E-05,9.099,0
0.6075,0.000207126,9.1125,0,0.6075,-0.0002366674,9.1125,0
0.6084,0.0003266346,9.126,0,0.6084,-0.0003877317,9.126,0
0.6093,0.0001947051,9.1395,0,0.6093,-0.0004213016,9.1395,0
0.6102,7.083238E-05,9.153,0,0.6102,-0.0003403983,9.153,0
0.6111,-5.069047E-05,9.1665,0,0.6111,-0.0001433432,9.1665,0
0.612,-0.0002232395,9.18,0,0.612,0.0001138018,9.18,0
0.6129,-0.0004535287,9.1935,0,0.6129,0.0003303273,9.1935,0
0.6138,-0.000197055,9.207,0,0.6138,0.0004199588,9.207,0
0.6147,0.0001148089,9.2205,0,0.6147,0.0003172351,9.2205,0
0.6156,7.821774E-05,9.234,0,0.6156,0.0001883268,9.234,0
0.6165,-2.18204E-05,9.2475,0,0.6165,0.0001205158,9.2475,0
0.6174,5.438316E-05,9.261,0,0.6174,7.553216E-05,9.261,0
0.6183,7.620356E-05,9.2745,0,0.6183,-8.392462E-06,9.2745,0
0.6192,4.934768E-05,9.288,0,0.6192,-3.659113E-05,9.288,0
0.6201,6.881819E-05,9.3015,0,0.6201,-1.846342E-05,9.3015,0
0.621,8.123904E-05,9.315,0,0.621,-7.486076E-05,9.315,0
0.6219,1.477073E-05,9.3285,0,0.6219,-0.0001540856,9.3285,0
0.6228,2.719158E-05,9.342,0,0.6228,-0.0002027619,9.342,0
0.6237,0.0002430457,9.3555,0,0.6237,-0.0002124971,9.3555,0
0.6246,0.0004468147,9.369,0,0.6246,-0.0002286107,9.369,0
0.6255,0.0004682994,9.3825,0,0.6255,-0.0002373388,9.3825,0
0.6264,0.0003434196,9.396,0,0.6264,-0.0001587854,9.396,0
0.6273,0.0002511025,9.4095,0,0.6273,0.0001020523,9.4095,0
0.6282,-0.0001829557,9.423,0,0.6282,0.0001963836,9.423,0
0.6291,-0.000664683,9.4365,0,0.6291,0.0002477455,9.4365,0
0.63,-0.0006213779,9.45,0,0.63,0.000203769,9.45,0
0.6309,-0.0002890364,9.4635,0,0.6309,6.411841E-05,9.4635,0
0.6318,-0.0001822843,9.477,0,0.6318,-2.584878E-05,9.477,0
0.6327,-0.0001698634,9.4905,0,0.6327,-6.344701E-05,9.4905,0
0.6336,-5.941863E-05,9.504,0,0.6336,-3.491264E-05,9.504,0
0.6345,-7.049668E-06,9.5175,0,0.6345,-1.712062E-05,9.5175,0
0.6354,5.606165E-05,9.531,0,0.6354,3.356985E-07,9.531,0
0.6363,0.0002420386,9.5445,0,0.6363,-2.719158E-05,9.5445,0
0.6372,0.0003138781,9.558,0,0.6372,-3.625543E-05,9.558,0
0.6381,0.000119173,9.5715,0,0.6381,-6.51255E-05,9.5715,0
0.639,5.471885E-05,9.585,0,0.639,-9.802396E-05,9.585,0
0.6399,0.000112459,9.5985,0,0.6399,-0.0002235752,9.5985,0
0.6408,-6.277562E-05,9.612,0,0.6408,-0.000457557,9.612,0
0.6417,-0.0002940719,9.6255,0,0.6417,-0.000646891,9.6255,0
0.6426,-0.0001376364,9.639,0,0.6426,-0.0006119784,9.639,0
0.6435,-0.000323949,9.6525,0,0.6435,-0.0004206302,9.6525,0
0.6444,-0.0002678874,9.666,0,0.6444,-0.0001275654,9.666,0
0.6453,-3.121996E-05,9.6795,0,0.6453,0.0002225681,9.6795,0
0.6462,4.934768E-05,9.693,0,0.6462,0.0005260395,9.693,0
0.6471,3.524834E-05,9.7065,0,0.6471,0.000816083,9.7065,0
0.648,5.874724E-05,9.72,0,0.648,0.000692546,9.72,0
0.6489,-8.392462E-06,9.7335,0,0.6489,0.0003246204,9.7335,0
0.6498,1.040665E-05,9.747,0,0.6498,0.0001560998,9.747,0
0.6507,8.661021E-05,9.7605,0,0.6507,9.903105E-05,9.7605,0
0.6516,3.692683E-05,9.774,0,0.6516,3.659113E-05,9.774,0
0.6525,5.807584E-05,9.7875,0,0.6525,-3.793393E-05,9.7875,0
0.6534,5.337606E-05,9.801,0,0.6534,-8.69459E-05,9.801,0
0.6543,2.517739E-05,9.8145,0,0.6543,-6.61326E-05,9.8145,0
0.6552,2.752728E-05,9.828,0,0.6552,-7.754635E-05,9.828,0
0.6561,9.265278E-05,9.8415,0,0.6561,-8.358892E-05,9.8415,0
0.657,0.0001111162,9.855,0,0.657,-4.028382E-05,9.855,0
0.6579,0.0001010452,9.8685,0,0.6579,-2.18204E-05,9.8685,0
0.6588,9.768826E-05,9.882,0,0.6588,-5.270466E-05,9.882,0
0.6597,6.948959E-05,9.8955,0,0.6597,-7.486076E-05,9.8955,0
0.6606,-1.678492E-06,9.909,0,0.6606,-8.191043E-05,9.909,0
0.6615,-2.450599E-05,9.9225,0,0.6615,-6.71397E-05,9.9225,0
0.6624,-1.141375E-05,9.936,0,0.6624,-6.54612E-05,9.936,0
0.6633,2.652018E-05,9.9495,0,0.6633,-0.000102388,9.9495,0
0.6642,-2.417029E-05,9.963,0,0.6642,-8.661021E-05,9.963,0
0.6651,-7.687495E-05,9.976501,0,0.6651,-5.673304E-05,9.976501,0
0.666,1.342794E-06,9.99,0,0.666,-8.92958E-05,9.99,0
0.6669,7.049668E-05,10.0035,0,0.6669,-8.258183E-05,10.0035,0
0.6678,0.000109102,10.017,0,0.6678,-3.558404E-05,10.017,0
0.6687,0.0001312581,10.0305,0,0.6687,-6.378271E-05,10.0305,0
0.6696,0.0001456931,10.044,0,0.6696,-8.69459E-05,10.044,0
0.6705,-0.0001399863,10.0575,0,0.6705,-1.141375E-05,10.0575,0
0.6714,-0.0003333486,10.071,0,0.6714,-4.565499E-05,10.071,0
0.6723,-0.0001540856,10.0845,0,0.6723,-6.009003E-05,10.0845,0
0.6732,-4.666209E-05,10.098,0,0.6732,4.36408E-06,10.098,0
0.6741,-6.6804E-05,10.1115,0,0.6741,2.685588E-06,10.1115,0
0.675,3.356985E-06,10.125,0,0.675,-1.007095E-05,10.125,0
0.6759,7.586786E-05,10.1385,0,0.6759,-0.0001138018,10.1385,0
0.6768,4.733349E-05,10.152,0,0.6768,-0.0002222324,10.152,0
0.6777,-1.947051E-05,10.1655,0,0.6777,-0.0002433814,10.1655,0
0.6786,9.030289E-05,10.179,0,0.6786,-0.0002279393,10.179,0
0.6795,0.000291722,10.1925,0,0.6795,-0.0001863127,10.1925,0
0.6804,0.0002292821,10.206,0,0.6804,-8.493171E-05,10.206,0
0.6813,4.733349E-05,10.2195,0,0.6813,0.000105745,10.2195,0
0.6822,-0.0002124971,10.233,0,0.6822,0.0002964218,10.233,0
0.6831,-0.0002934005,10.2465,0,0.6831,0.0002897078,10.2465,0
0.684,-0.000278294,10.26,0,0.684,0.0002302892,10.26,0
0.6849,-0.0002675517,10.2735,0,0.6849,0.0001215228,10.2735,0
0.6858,-0.0002084688,10.287,0,0.6858,1.342794E-06,10.287,0
0.6867,-9.500267E-05,10.3005,0,0.6867,-2.450599E-05,10.3005,0
0.6876,-4.867628E-05,10.314,0,0.6876,-1.846342E-05,10.314,0
0.6885,-3.289845E-05,10.3275,0,0.6885,-6.210422E-05,10.3275,0
0.6894,1.007095E-06,10.341,0,0.6894,-0.000115816,10.341,0
0.6903,1.678492E-05,10.3545,0,0.6903,-0.0001198444,10.3545,0
0.6912,1.644922E-05,10.368,0,0.6912,-3.121996E-05,10.368,0
0.6921,2.450599E-05,10.3815,0,0.6921,6.64683E-05,10.3815,0
0.693,6.042573E-06,10.395,0,0.693,7.721065E-05,10.395,0
0.6939,1.846342E-05,10.4085,0,0.6939,7.452507E-05,10.4085,0
0.6948,1.510643E-05,10.422,0,0.6948,0.0001366293,10.422,0
0.6957,3.457694E-05,10.4355,0,0.6957,5.539025E-05,10.4355,0
0.6966,6.277562E-05,10.449,0,0.6966,0,10.449,0
0.6975,2.047761E-05,10.4625,0,0.6975,1.275654E-05,10.4625,0
0.6984,2.450599E-05,10.476,0,0.6984,-1.712062E-05,10.476,0
0.6993,5.203327E-05,10.4895,0,0.6993,-5.606165E-05,10.4895,0
0.7002,-4.867628E-05,10.503,0,0.7002,-7.553216E-05,10.503,0
0.7011,7.083238E-05,10.5165,0,0.7011,-5.203327E-05,10.5165,0
0.702,0.0002339818,10.53,0,0.702,-7.150377E-05,10.53,0
0.7029,0.0001420005,10.5435,0,0.7029,-8.795301E-05,10.5435,0
0.7038,9.063859E-05,10.557,0,0.7038,-0.0001080949,10.557,0
0.7047,9.399557E-05,10.5705,0,0.7047,-8.627451E-05,10.5705,0
0.7056,-0.0001007095,10.584,0,0.7056,-3.659113E-05,10.584,0
0.7065,-0.0002964218,10.5975,0,0.7065,-3.323415E-05,10.5975,0
0.7074,-0.0001379721,10.611,0,0.7074,-8.392462E-06,10.611,0
0.7083,-1.913481E-05,10.6245,0,0.7083,2.786297E-05,10.6245,0
0.7092,-1.107805E-05,10.638,0,0.7092,1.275654E-05,10.638,0
0.7101,-1.141375E-05,10.6515,0,0.7101,-4.095522E-05,10.6515,0
0.711,-2.719158E-05,10.665,0,0.711,-6.713969E-07,10.665,0
0.7119,-1.812772E-05,10.6785,0,0.7119,1.376364E-05,10.6785,0
0.7128,-6.713969E-07,10.692,0,0.7128,-2.349889E-05,10.692,0
0.7137,3.390555E-05,10.7055,0,0.7137,-4.061952E-05,10.7055,0
0.7146,2.719158E-05,10.719,0,0.7146,-1.913481E-05,10.719,0
0.7155,3.994812E-05,10.7325,0,0.7155,-2.584878E-05,10.7325,0
0.7164,3.457694E-05,10.746,0,0.7164,-3.591974E-05,10.746,0
0.7173,3.591974E-05,10.7595,0,0.7173,-6.076142E-05,10.7595,0
0.7182,5.035477E-06,10.773,0,0.7182,-3.323415E-05,10.773,0
0.7191,-2.819867E-05,10.7865,0,0.7191,-1.678492E-05,10.7865,0
0.72,-3.390555E-05,10.8,0,0.72,-4.46479E-05,10.8,0
0.7209,-2.752728E-05,10.8135,0,0.7209,-4.867628E-05,10.8135,0
0.7218,-2.584878E-05,10.827,0,0.7218,-1.678492E-05,10.827,0
0.7227,-2.349889E-06,10.8405,0,0.7227,-2.652018E-05,10.8405,0
0.7236,1.174945E-05,10.854,0,0.7236,-6.478981E-05,10.854,0
0.7245,5.706874E-06,10.8675,0,0.7245,-1.812772E-05,10.8675,0
0.7254,4.196231E-05,10.881,0,0.7254,2.786297E-05,10.881,0
0.7263,-1.342794E-06,10.8945,0,0.7263,-2.21561E-05,10.8945,0
0.7272,-2.014191E-05,10.908,0,0.7272,-2.987716E-05,10.908,0
0.7281,1.040665E-05,10.9215,0,0.7281,3.054856E-05,10.9215,0
0.729,-8.392462E-06,10.935,0,0.729,-7.721065E-06,10.935,0
0.7299,-1.712062E-05,10.9485,0,0.7299,-1.107805E-05,10.9485,0
0.7308,-1.913481E-05,10.962,0,0.7308,-1.544213E-05,10.962,0
0.7317,-4.867628E-05,10.9755,0,0.7317,6.378271E-06,10.9755,0
0.7326,-4.46479E-05,10.989,0,0.7326,2.618448E-05,10.989,0
0.7335,-3.927672E-05,11.0025,0,0.7335,-1.409934E-05,11.0025,0
0.7344,-3.222705E-05,11.016,0,0.7344,-5.606165E-05,11.016,0
0.7353,-2.14847E-05,11.0295,0,0.7353,-2.719158E-05,11.0295,0
0.7362,9.063859E-06,11.043,0,0.7362,-2.18204E-05,11.043,0
0.7371,5.404745E-05,11.0565,0,0.7371,-4.39765E-05,11.0565,0
0.738,4.061952E-05,11.07,0,0.738,-2.887007E-05,11.07,0
0.7389,4.263371E-05,11.0835,0,0.7389,-2.316319E-05,11.0835,0
0.7398,6.210422E-05,11.097,0,0.7398,-1.409934E-05,11.097,0
0.7407,9.063859E-06,11.1105,0,0.7407,-4.33051E-05,11.1105,0
0.7416,-4.699779E-05,11.124,0,0.7416,-2.987716E-05,11.124,0
0.7425,-7.721065E-06,11.1375,0,0.7425,-4.699779E-06,11.1375,0
0.7434,-7.049668E-06,11.151,0,0.7434,5.069047E-05,11.151,0
0.7443,6.713969E-07,11.1645,0,0.7443,1.980621E-05,11.1645,0
0.7452,7.049668E-06,11.178,0,0.7452,1.913481E-05,11.178,0
0.7461,-6.210422E-05,11.1915,0,0.7461,-1.477073E-05,11.1915,0
0.747,-4.061952E-05,11.205,0,0.747,-3.256275E-05,11.205,0
0.7479,-4.39765E-05,11.2185,0,0.7479,-1.644922E-05,11.2185,0
0.7488,-5.673304E-05,11.232,0,0.7488,5.270466E-05,11.232,0
0.7497,-6.54612E-05,11.2455,0,0.7497,8.358892E-05,11.2455,0
0.7506,-6.277562E-05,11.259,0,0.7506,5.975433E-05,11.259,0
0.7515,-6.277562E-05,11.2725,0,0.7515,5.203327E-05,11.2725,0
0.7524,-4.599069E-05,11.286,0,0.7524,1.980621E-05,11.286,0
0.7533,-1.510643E-05,11.2995,0,0.7533,-6.344701E-05,11.2995,0
0.7542,-7.385367E-06,11.313,0,0.7542,-9.903105E-05,11.313,0
0.7551,-1.712062E-05,11.3265,0,0.7551,-0.0001252155,11.3265,0
0.756,1.309224E-05,11.34,0,0.756,-0.0001332723,11.34,0
0.7569,1.510643E-05,11.3535,0,0.7569,-6.64683E-05,11.3535,0
0.7578,-3.692683E-06,11.367,0,0.7578,-7.620356E-05,11.367,0
0.7587,-3.793393E-05,11.3805,0,0.7587,-0.0001077592,11.3805,0
0.7596,-6.74754E-05,11.394,0,0.7596,-7.418937E-05,11.394,0
0.7605,-3.054856E-05,11.4075,0,0.7605,-5.673304E-05,11.4075,0
0.7614,-2.349889E-06,11.421,0,0.7614,-9.164568E-05,11.421,0
0.7623,1.477073E-05,11.4345,0,0.7623,-5.203327E-05,11.4345,0
0.7632,1.477073E-05,11.448,0,0.7632,-3.424125E-05,11.448,0
0.7641,4.53193E-05,11.4615,0,0.7641,4.699779E-06,11.4615,0
0.765,7.821774E-05,11.475,0,0.765,8.023193E-05,11.475,0
0.7659,7.486076E-05,11.4885,0,0.7659,5.606165E-05,11.4885,0
0.7668,8.291753E-05,11.502,0,0.7668,4.565499E-05,11.502,0
0.7677,0.0001178302,11.5155,0,0.7677,1.443504E-05,11.5155,0
0.7686,9.903105E-05,11.529,0,0.7686,-1.745632E-05,11.529,0
0.7695,3.927672E-05,11.5425,0,0.7695,-5.169757E-05,11.5425,0
0.7704,1.007095E-06,11.556,0,0.7704,-4.53193E-05,11.556,0
0.7713,7.049668E-06,11.5695,0,0.7713,-4.46479E-05,11.5695,0
0.7722,-2.28275E-05,11.583,0,0.7722,-3.054856E-05,11.583,0
0.7731,-4.46479E-05,11.5965,0,0.7731,1.443504E-05,11.5965,0
0.774,-4.49836E-05,11.61,0,0.774,-5.371176E-06,11.61,0
0.7749,-2.853437E-05,11.6235,0,0.7749,-5.706874E-06,11.6235,0
0.7758,-5.069047E-05,11.637,0,0.7758,2.24918E-05,11.637,0
0.7767,-6.076142E-05,11.6505,0,0.7767,1.174945E-05,11.6505,0
0.7776,-6.848249E-05,11.664,0,0.7776,-1.409934E-05,11.664,0
0.7785,-0.0001141375,11.6775,0,0.7785,1.141375E-05,11.6775,0
0.7794,-8.560311E-05,11.691,0,0.7794,1.779202E-05,11.691,0
0.7803,-8.426032E-05,11.7045,0,0.7803,3.356985E-07,11.7045,0
0.7812,-0.0001144732,11.718,0,0.7812,3.356985E-07,11.718,0
0.7821,-0.0001027237,11.7315,0,0.7821,1.107805E-05,11.7315,0
0.783,-5.438316E-05,11.745,0,0.783,5.706874E-06,11.745,0
0.7839,1.409934E-05,11.7585,0,0.7839,2.450599E-05,11.7585,0
0.7848,4.599069E-05,11.772,0,0.7848,9.063859E-06,11.772,0
0.7857,7.989624E-05,11.7855,0,0.7857,-3.356985E-07,11.7855,0
0.7866,0.0001514,11.799,0,0.7866,-1.913481E-05,11.799,0
0.7875,0.0001524071,11.8125,0,0.7875,-4.39765E-05,11.8125,0
0.7884,9.198138E-05,11.826,0,0.7884,-4.39765E-05,11.826,0
0.7893,2.1149E-05,11.8395,0,0.7893,-2.786297E-05,11.8395,0
0.7902,1.443504E-05,11.853,0,0.7902,-7.049668E-05,11.853,0
0.7911,4.33051E-05,11.8665,0,0.7911,-4.632639E-05,11.8665,0
0.792,1.443504E-05,11.88,0,0.792,-3.021286E-06,11.88,0
0.7929,-1.409934E-05,11.8935,0,0.7929,-1.040665E-05,11.8935,0
0.7938,-1.208515E-05,11.907,0,0.7938,-2.18204E-05,11.907,0
0.7947,-1.510643E-05,11.9205,0,0.7947,-2.853437E-05,11.9205,0
0.7956,-1.510643E-05,11.934,0,0.7956,-5.706874E-06,11.934,0
0.7965,-3.826963E-05,11.9475,0,0.7965,-1.409934E-05,11.9475,0
0.7974,-5.069047E-05,11.961,0,0.7974,-3.524834E-05,11.961,0
0.7983,-4.43122E-05,11.9745,0,0.7983,-5.270466E-05,11.9745,0
0.7992,-3.793393E-05,11.988,0,0.7992,-1.846342E-05,11.988,0
0.8001,-7.049668E-06,12.0015,0,0.8001,1.309224E-05,12.0015,0
0.801,-6.378271E-06,12.015,0,0.801,-1.913481E-05,12.015,0
0.8019,-1.712062E-05,12.0285,0,0.8019,-3.457694E-05,12.0285,0
0.8028,-3.054856E-05,12.042,0,0.8028,1.141375E-05,12.042,0
0.8037,-3.155566E-05,12.0555,0,0.8037,-6.042573E-06,12.0555,0
0.8046,-1.510643E-05,12.069,0,0.8046,-2.752728E-05,12.069,0
0.8055,-3.256275E-05,12.0825,0,0.8055,-1.678492E-06,12.0825,0
0.8064,-6.74754E-05,12.096,0,0.8064,-7.385367E-06,12.096,0
0.8073,-7.016098E-05,12.1095,0,0.8073,-2.047761E-05,12.1095,0
0.8082,-4.263371E-05,12.123,0,0.8082,-5.539025E-05,12.123,0
0.8091,-3.054856E-05,12.1365,0,0.8091,-3.558404E-05,12.1365,0
0.81,-3.793393E-05,12.15,0,0.81,-5.572595E-05,12.15,0
0.8109,-4.129091E-05,12.1635,0,0.8109,-4.733349E-05,12.1635,0
0.8118,-1.510643E-05,12.177,0,0.8118,-2.618448E-05,12.177,0
0.8127,1.040665E-05,12.1905,0,0.8127,-1.242084E-05,12.1905,0
0.8136,2.920577E-05,12.204,0,0.8136,1.174945E-05,12.204,0
0.8145,5.337606E-05,12.2175,0,0.8145,-2.584878E-05,12.2175,0
0.8154,3.927672E-05,12.231,0,0.8154,-5.136187E-05,12.231,0
0.8163,6.378271E-06,12.2445,0,0.8163,-6.042573E-06,12.2445,0
0.8172,8.728161E-06,12.258,0,0.8172,-9.063859E-06,12.258,0
0.8181,3.189136E-05,12.2715,0,0.8181,-4.632639E-05,12.2715,0
0.819,1.107805E-05,12.285,0,0.819,-1.477073E-05,12.285,0
0.8199,-2.383459E-05,12.2985,0,0.8199,-7.049668E-06,12.2985,0
0.8208,-3.189136E-05,12.312,0,0.8208,-2.853437E-05,12.312,0
0.8217,-1.846342E-05,12.3255,0,0.8217,-5.069047E-05,12.3255,0
0.8226,-3.289845E-05,12.339,0,0.8226,-1.678492E-05,12.339,0
0.8235,-1.107805E-05,12.3525,0,0.8235,-9.399558E-06,12.3525,0
0.8244,3.189136E-05,12.366,0,0.8244,-8.056763E-06,12.366,0
0.8253,9.063859E-06,12.3795,0,0.8253,-3.860533E-05,12.3795,0
0.8262,-3.692683E-06,12.393,0,0.8262,-2.383459E-05,12.393,0
0.8271,-2.551309E-05,12.4065,0,0.8271,1.376364E-05,12.4065,0
0.828,-1.242084E-05,12.42,0,0.828,-3.256275E-05,12.42,0
0.8289,-6.378271E-06,12.4335,0,0.8289,-4.229801E-05,12.4335,0
0.8298,-5.001907E-05,12.447,0,0.8298,-1.376364E-05,12.447,0
0.8307,-6.948959E-05,12.4605,0,0.8307,-4.061952E-05,12.4605,0
0.8316,-6.57969E-05,12.474,0,0.8316,-4.766919E-05,12.474,0
0.8325,-6.378271E-05,12.4875,0,0.8325,3.625543E-05,12.4875,0
0.8334,-2.24918E-05,12.501,0,0.8334,2.450599E-05,12.501,0
0.8343,-9.735256E-06,12.5145,0,0.8343,-3.659113E-05,12.5145,0
0.8352,1.376364E-05,12.528,0,0.8352,-3.121996E-05,12.528,0
0.8361,2.1149E-05,12.5415,0,0.8361,-5.136187E-05,12.5415,0
0.837,5.539025E-05,12.555,0,0.837,-7.318227E-05,12.555,0
0.8379,8.69459E-05,12.5685,0,0.8379,-3.054856E-05,12.5685,0
0.8388,6.411841E-05,12.582,0,0.8388,1.611353E-05,12.582,0
0.8397,3.692683E-06,12.5955,0,0.8397,1.275654E-05,12.5955,0
0.8406,4.36408E-06,12.609,0,0.8406,1.879912E-05,12.609,0
0.8415,3.121996E-05,12.6225,0,0.8415,4.36408E-06,12.6225,0
0.8424,4.565499E-05,12.636,0,0.8424,-1.980621E-05,12.636,0
0.8433,2.652018E-05,12.6495,0,0.8433,1.510643E-05,12.6495,0
0.8442,2.954147E-05,12.663,0,0.8442,1.275654E-05,12.663,0
0.8451,2.920577E-05,12.6765,0,0.8451,-3.121996E-05,12.6765,0
0.846,7.385367E-06,12.69,0,0.846,-1.242084E-05,12.69,0
0.8469,-1.040665E-05,12.7035,0,0.8469,5.035477E-06,12.7035,0
0.8478,-5.404745E-05,12.717,0,0.8478,-3.659113E-05,12.717,0
0.8487,-3.726253E-05,12.7305,0,0.8487,-4.028382E-05,12.7305,0
0.8496,-2.752728E-05,12.744,0,0.8496,-1.644922E-05,12.744,0
0.8505,3.692683E-06,12.7575,0,0.8505,-3.390555E-05,12.7575,0
0.8514,1.443504E-05,12.771,0,0.8514,-2.618448E-05,12.771,0
0.8523,-9.735256E-06,12.7845,0,0.8523,-3.591974E-05,12.7845,0
0.8532,-1.007095E-06,12.798,0,0.8532,-2.719158E-05,12.798,0
0.8541,-1.376364E-05,12.8115,0,0.8541,-2.652018E-05,12.8115,0
0.855,-1.376364E-05,12.825,0,0.855,-3.793393E-05,12.825,0
0.8559,-2.014191E-06,12.8385,0,0.8559,-2.920577E-05,12.8385,0
0.8568,-1.980621E-05,12.852,0,0.8568,3.088426E-05,12.852,0
0.8577,-3.558404E-05,12.8655,0,0.8577,1.846342E-05,12.8655,0
0.8586,7.049668E-06,12.879,0,0.8586,-2.484169E-05,12.879,0
0.8595001,-4.36408E-06,12.8925,0,0.8595001,1.846342E-05,12.8925,0
0.8604,-5.975433E-05,12.906,0,0.8604,-2.685588E-06,12.906,0
0.8613,-2.047761E-05,12.9195,0,0.8613,-3.860533E-05,12.9195,0
0.8622,-1.577783E-05,12.933,0,0.8622,-1.779202E-05,12.933,0
0.8631,-1.342794E-05,12.9465,0,0.8631,-1.007095E-05,12.9465,0
0.864,1.947051E-05,12.96,0,0.864,-4.33051E-05,12.96,0
0.8649,1.611353E-05,12.9735,0,0.8649,-4.43122E-05,12.9735,0
0.8658,2.21561E-05,12.987,0,0.8658,-3.457694E-05,12.987,0
0.8667,5.941863E-05,13.0005,0,0.8667,-5.035477E-06,13.0005,0
0.8676,-2.28275E-05,13.014,0,0.8676,9.735256E-06,13.014,0
0.8685,-7.956054E-05,13.0275,0,0.8685,-8.392462E-06,13.0275,0
0.8694,-7.989624E-05,13.041,0,0.8694,-4.599069E-05,13.041,0
0.8703,-9.835965E-05,13.0545,0,0.8703,-3.155566E-05,13.0545,0
0.8712,-7.284657E-05,13.068,0,0.8712,-6.042573E-06,13.068,0
0.8721,-3.054856E-05,13.0815,0,0.8721,-2.551309E-05,13.0815,0
0.873,-1.107805E-05,13.095,0,0.873,8.728161E-06,13.095,0
0.8739,3.726253E-05,13.1085,0,0.8739,7.049668E-06,13.1085,0
0.8748,2.517739E-05,13.122,0,0.8748,-4.934768E-05,13.122,0
0.8757,2.18204E-05,13.1355,0,0.8757,-6.311131E-05,13.1355,0
0.8766,-9.063859E-06,13.149,0,0.8766,-4.061952E-05,13.149,0
0.8775,-2.685588E-06,13.1625,0,0.8775,-5.807584E-05,13.1625,0
0.8784,-9.063859E-06,13.176,0,0.8784,-5.874724E-05,13.176,0
0.8793,-2.652018E-05,13.1895,0,0.8793,-5.404745E-05,13.1895,0
0.8802,1.174945E-05,13.203,0,0.8802,2.484169E-05,13.203,0
0.8811,7.620356E-05,13.2165,0,0.8811,0.0001084306,13.2165,0
0.882,7.486076E-05,13.23,0,0.882,-1.242084E-05,13.23,0
0.8829,5.304036E-05,13.2435,0,0.8829,-6.210422E-05,13.2435,0
0.8838,-1.141375E-05,13.257,0,0.8838,1.577783E-05,13.257,0
0.8847,-6.713969E-06,13.2705,0,0.8847,-3.356985E-06,13.2705,0
0.8856,5.169757E-05,13.284,0,0.8856,-4.33051E-05,13.284,0
0.8865,8.728161E-06,13.2975,0,0.8865,-2.18204E-05,13.2975,0
0.8874,-1.376364E-05,13.311,0,0.8874,3.692683E-06,13.311,0
0.8883,-8.392462E-06,13.3245,0,0.8883,-1.644922E-05,13.3245,0
0.8892,-5.539025E-05,13.338,0,0.8892,-1.107805E-05,13.338,0
0.8901,-0.0001027237,13.3515,0,0.8901,2.887007E-05,13.3515,0
0.891,-6.6804E-05,13.365,0,0.891,2.551309E-05,13.365,0
0.8919,-5.438316E-05,13.3785,0,0.8919,4.36408E-06,13.3785,0
0.8928,-4.800488E-05,13.392,0,0.8928,-3.994812E-05,13.392,0
0.8937,-3.289845E-05,13.4055,0,0.8937,-4.599069E-05,13.4055,0
0.8946,-4.632639E-05,13.419,0,0.8946,-1.644922E-05,13.419,0
0.8955,-2.819867E-05,13.4325,0,0.8955,-3.155566E-05,13.4325,0
0.8964,2.349889E-06,13.446,0,0.8964,-2.18204E-05,13.446,0
0.8973,-2.047761E-05,13.4595,0,0.8973,-9.399558E-06,13.4595,0
0.8982,-2.014191E-06,13.473,0,0.8982,-3.961242E-05,13.473,0
0.8991,2.349889E-05,13.4865,0,0.8991,-5.337606E-05,13.4865,0
0.9,-5.706874E-06,13.5,0,0.9,-2.28275E-05,13.5,0
0.9009,2.316319E-05,13.5135,0,0.9009,-2.1149E-05,13.5135,0
0.9018,6.948959E-05,13.527,0,0.9018,-6.74754E-05,13.527,0
0.9027,3.726253E-05,13.5405,0,0.9027,-5.941863E-05,13.5405,0
0.9036,6.042573E-06,13.554,0,0.9036,-4.53193E-05,13.554,0
0.9045,1.309224E-05,13.5675,0,0.9045,-4.095522E-05,13.5675,0
0.9054,1.544213E-05,13.581,0,0.9054,-3.927672E-05,13.581,0
0.9063,1.007095E-05,13.5945,0,0.9063,-4.061952E-05,13.5945,0
0.9072,-5.035477E-06,13.608,0,0.9072,-6.042573E-06,13.608,0
0.9081,-3.021286E-06,13.6215,0,0.9081,1.544213E-05,13.6215,0
0.909,-6.076142E-05,13.635,0,0.909,-7.418937E-05,13.635,0
0.9099,-3.524834E-05,13.6485,0,0.9099,-7.620356E-05,13.6485,0
0.9108,-4.36408E-05,13.662,0,0.9108,-6.378271E-06,13.662,0
0.9117,-3.625543E-05,13.6755,0,0.9117,-8.392462E-06,13.6755,0
0.9126,7.049668E-06,13.689,0,0.9126,-5.706874E-06,13.689,0
0.9135,-3.323415E-05,13.7025,0,0.9135,2.047761E-05,13.7025,0
0.9144,-2.819867E-05,13.716,0,0.9144,-7.049668E-06,13.716,0
0.9153,-3.591974E-05,13.7295,0,0.9153,-4.33051E-05,13.7295,0
0.9162,-3.591974E-05,13.743,0,0.9162,-2.383459E-05,13.743,0
0.9171,1.040665E-05,13.7565,0,0.9171,3.692683E-06,13.7565,0
0.918,2.920577E-05,13.77,0,0.918,4.36408E-06,13.77,0
0.9189,2.786297E-05,13.7835,0,0.9189,-3.356985E-06,13.7835,0
0.9198,4.263371E-05,13.797,0,0.9198,-2.349889E-06,13.797,0
0.9207,2.752728E-05,13.8105,0,0.9207,1.174945E-05,13.8105,0
0.9216,2.21561E-05,13.824,0,0.9216,1.510643E-05,13.824,0
0.9225,1.913481E-05,13.8375,0,0.9225,0,13.8375,0
0.9234,1.040665E-05,13.851,0,0.9234,-3.021286E-05,13.851,0
0.9243,7.385367E-06,13.8645,0,0.9243,1.678492E-05,13.8645,0
0.9252,1.510643E-05,13.878,0,0.9252,1.712062E-05,13.878,0
0.9261,3.826963E-05,13.8915,0,0.9261,-1.174945E-05,13.8915,0
0.927,1.544213E-05,13.905,0,0.927,1.812772E-05,13.905,0
0.9279,7.721065E-06,13.9185,0,0.9279,2.450599E-05,13.9185,0
0.9288,-1.980621E-05,13.932,0,0.9288,-2.316319E-05,13.932,0
0.9297,-7.956054E-05,13.9455,0,0.9297,-4.129091E-05,13.9455,0
0.9306,-8.89601E-05,13.959,0,0.9306,-1.879912E-05,13.959,0
0.9315,-5.404745E-05,13.9725,0,0.9315,-4.196231E-05,13.9725,0
0.9324,-5.606165E-05,13.986,0,0.9324,-5.136187E-05,13.986,0
0.9333,-2.349889E-05,13.9995,0,0.9333,-4.33051E-05,13.9995,0
0.9342,2.652018E-05,14.013,0,0.9342,-2.081331E-05,14.013,0
0.9351,1.510643E-05,14.0265,0,0.9351,1.007095E-06,14.0265,0
0.936,6.378271E-06,14.04,0,0.936,-1.980621E-05,14.04,0
0.9369,6.713969E-07,14.0535,0,0.9369,-5.001907E-05,14.0535,0
0.9378,-6.109713E-05,14.067,0,0.9378,-1.678492E-05,14.067,0
0.9387,-6.57969E-05,14.0805,0,0.9387,-5.706874E-06,14.0805,0
0.9396001,-1.779202E-05,14.094,0,0.9396001,-6.109713E-05,14.094,0
0.9405,-2.18204E-05,14.1075,0,0.9405,-8.392462E-06,14.1075,0
0.9414001,-2.24918E-05,14.121,0,0.9414001,-9.399558E-06,14.121,0
0.9423,3.524834E-05,14.1345,0,0.9423,-4.229801E-05,14.1345,0
0.9432001,6.6804E-05,14.148,0,0.9432001,-1.376364E-05,14.148,0
0.9441,2.752728E-05,14.1615,0,0.9441,2.24918E-05,14.1615,0
0.9450001,2.987716E-05,14.175,0,0.9450001,1.980621E-05,14.175,0
0.9459,3.860533E-05,14.1885,0,0.9459,3.088426E-05,14.1885,0
0.9468,2.652018E-05,14.202,0,0.9468,-9.063859E-06,14.202,0
0.9477,5.035477E-06,14.2155,0,0.9477,-2.21561E-05,14.2155,0
0.9486,-2.316319E-05,14.229,0,0.9486,-3.927672E-05,14.229,0
0.9495,7.721065E-06,14.2425,0,0.9495,-7.351797E-05,14.2425,0
0.9504,-1.208515E-05,14.256,0,0.9504,-7.016098E-05,14.256,0
0.9513,-1.309224E-05,14.2695,0,0.9513,-1.745632E-05,14.2695,0
0.9522,1.007095E-06,14.283,0,0.9522,-2.047761E-05,14.283,0
0.9531,-2.383459E-05,14.2965,0,0.9531,1.040665E-05,14.2965,0
0.954,-5.874724E-05,14.31,0,0.954,4.934768E-05,14.31,0
0.9549,-3.558404E-05,14.3235,0,0.9549,-1.510643E-05,14.3235,0
0.9558,-5.001907E-05,14.337,0,0.9558,-5.035477E-05,14.337,0
0.9567,-7.049668E-05,14.3505,0,0.9567,-7.217517E-05,14.3505,0
0.9576,-4.095522E-05,14.364,0,0.9576,-3.155566E-05,14.364,0
0.9585,-3.356985E-07,14.3775,0,0.9585,-1.779202E-05,14.3775,0
0.9594,3.994812E-05,14.391,0,0.9594,-1.712062E-05,14.391,0
0.9603,3.826963E-05,14.4045,0,0.9603,-1.510643E-05,14.4045,0
0.9612,5.337606E-05,14.418,0,0.9612,3.021286E-05,14.418,0
0.9621,7.351797E-05,14.4315,0,0.9621,3.659113E-05,14.4315,0
0.963,-9.399558E-06,14.445,0,0.963,-2.920577E-05,14.445,0
0.9639,-3.826963E-05,14.4585,0,0.9639,-4.36408E-05,14.4585,0
0.9648,-5.807584E-05,14.472,0,0.9648,-1.007095E-06,14.472,0
0.9657,-3.323415E-05,14.4855,0,0.9657,-1.275654E-05,14.4855,0
0.9666,1.510643E-05,14.499,0,0.9666,-4.162661E-05,14.499,0
0.9675,-3.424125E-05,14.5125,0,0.9675,-9.735256E-06,14.5125,0
0.9684,-1.947051E-05,14.526,0,0.9684,8.728161E-06,14.526,0
0.9693,-2.349889E-06,14.5395,0,0.9693,5.035477E-06,14.5395,0
0.9702,-2.987716E-05,14.553,0,0.9702,1.678492E-06,14.553,0
0.9711,-5.069047E-05,14.5665,0,0.9711,7.721065E-06,14.5665,0
0.972,-4.934768E-05,14.58,0,0.972,-1.712062E-05,14.58,0
0.9729,-6.009003E-05,14.5935,0,0.9729,-2.652018E-05,14.5935,0
0.9738,-2.349889E-05,14.607,0,0.9738,-4.632639E-05,14.607,0
0.9747,1.644922E-05,14.6205,0,0.9747,-3.894102E-05,14.6205,0
0.9756,-1.846342E-05,14.634,0,0.9756,-4.666209E-05,14.634,0
0.9765,8.392462E-06,14.6475,0,0.9765,-3.894102E-05,14.6475,0
0.9774,4.800488E-05,14.661,0,0.9774,-5.136187E-05,14.661,0
0.9783,3.121996E-05,14.6745,0,0.9783,-2.383459E-05,14.6745,0
0.9792,3.524834E-05,14.688,0,0.9792,-1.980621E-05,14.688,0
0.9801,2.853437E-05,14.7015,0,0.9801,-5.572595E-05,14.7015,0
0.981,-1.275654E-05,14.715,0,0.981,-1.678492E-06,14.715,0
0.9819,-1.644922E-05,14.7285,0,0.9819,2.584878E-05,14.7285,0
0.9828,-7.385367E-06,14.742,0,0.9828,-1.376364E-05,14.742,0
0.9837,-3.356985E-07,14.7555,0,0.9837,-2.685588E-05,14.7555,0
0.9846,2.652018E-05,14.769,0,0.9846,-3.356985E-07,14.769,0
0.9855,1.846342E-05,14.7825,0,0.9855,1.846342E-05,14.7825,0
0.9864,9.399558E-06,14.796,0,0.9864,8.392462E-06,14.796,0
0.9873,2.047761E-05,14.8095,0,0.9873,-5.136187E-05,14.8095,0
0.9882,-5.035477E-06,14.823,0,0.9882,-2.652018E-05,14.823,0
0.9891,-1.812772E-05,14.8365,0,0.9891,7.049668E-06,14.8365,0
0.99,-4.095522E-05,14.85,0,0.99,-3.524834E-05,14.85,0
0.9909,-5.203327E-05,14.8635,0,0.9909,-5.505455E-05,14.8635,0
0.9918,-3.558404E-05,14.877,0,0.9918,3.692683E-06,14.877,0
0.9927,-4.33051E-05,14.8905,0,0.9927,-2.28275E-05,14.8905,0
0.9936,-1.577783E-05,14.904,0,0.9936,-5.975433E-05,14.904,0
0.9945,-2.014191E-06,14.9175,0,0.9945,-2.383459E-05,14.9175,0
0.9954,-6.378271E-06,14.931,0,0.9954,-3.121996E-05,14.931,0
0.9963,2.450599E-05,14.9445,0,0.9963,-4.934768E-05,14.9445,0
0.9972,-3.356985E-07,14.958,0,0.9972,-3.390555E-05,14.958,0
0.9981,-3.323415E-05,14.9715,0,0.9981,-2.24918E-05,14.9715,0
0.999,-2.18204E-05,14.985,0,0.999,-9.063859E-06,14.985,0
0.9999,-9.399558E-06,14.9985,0,0.9999,-9.735256E-06,14.9985,0
1.0008,1.947051E-05,15.012,0,1.0008,-6.713969E-07,15.012,0
1.0017,-2.081331E-05,15.0255,0,1.0017,7.049668E-06,15.0255,0
1.0026,-6.009003E-05,15.039,0,1.0026,-5.035477E-06,15.039,0
1.0035,-4.229801E-05,15.0525,0,1.0035,-4.095522E-05,15.0525,0
1.0044,4.36408E-06,15.066,0,1.0044,-5.471885E-05,15.066,0
1.0053,-7.049668E-06,15.0795,0,1.0053,-1.745632E-05,15.0795,0
1.0062,-3.256275E-05,15.093,0,1.0062,-2.920577E-05,15.093,0
1.0071,-4.061952E-05,15.1065,0,1.0071,-6.78111E-05,15.1065,0
1.008,-3.793393E-05,15.12,0,1.008,-1.644922E-05,15.12,0
1.0089,-3.625543E-05,15.1335,0,1.0089,1.544213E-05,15.1335,0
1.0098,-2.652018E-05,15.147,0,1.0098,-2.450599E-05,15.147,0
1.0107,-1.846342E-05,15.1605,0,1.0107,-1.544213E-05,15.1605,0
1.0116,2.1149E-05,15.174,0,1.0116,8.056763E-06,15.174,0
1.0125,4.934768E-05,15.1875,0,1.0125,1.577783E-05,15.1875,0
1.0134,5.841154E-05,15.201,0,1.0134,1.409934E-05,15.201,0
1.0143,9.298848E-05,15.2145,0,1.0143,-1.174945E-05,15.2145,0
1.0152,8.82887E-05,15.228,0,1.0152,2.014191E-06,15.228,0
1.0161,-5.706874E-06,15.2415,0,1.0161,-1.678492E-06,15.2415,0
1.017,-2.517739E-05,15.255,0,1.017,-2.752728E-05,15.255,0
1.0179,-8.392462E-06,15.2685,0,1.0179,-2.652018E-05,15.2685,0
1.0188,-5.404745E-05,15.282,0,1.0188,1.443504E-05,15.282,0
1.0197,-5.706874E-05,15.2955,0,1.0197,-1.107805E-05,15.2955,0
1.0206,-9.063859E-06,15.309,0,1.0206,-5.673304E-05,15.309,0
1.0215,9.063859E-06,15.3225,0,1.0215,-4.666209E-05,15.3225,0
1.0224,5.035477E-05,15.336,0,1.0224,-2.517739E-05,15.336,0
1.0233,8.795301E-05,15.3495,0,1.0233,-2.24918E-05,15.3495,0
1.0242,5.337606E-05,15.363,0,1.0242,1.577783E-05,15.363,0
1.0251,1.846342E-05,15.3765,0,1.0251,-5.706874E-06,15.3765,0
1.026,-3.021286E-06,15.39,0,1.026,-6.042573E-05,15.39,0
1.0269,-1.779202E-05,15.4035,0,1.0269,-4.39765E-05,15.4035,0
1.0278,-4.46479E-05,15.417,0,1.0278,-6.143282E-05,15.417,0
1.0287,-2.316319E-05,15.4305,0,1.0287,-1.443504E-05,15.4305,0
1.0296,2.853437E-05,15.444,0,1.0296,3.659113E-05,15.444,0
1.0305,6.042573E-06,15.4575,0,1.0305,3.021286E-06,15.4575,0
1.0314,-8.056763E-06,15.471,0,1.0314,-5.069047E-05,15.471,0
1.0323,-1.376364E-05,15.4845,0,1.0323,-1.779202E-05,15.4845,0
1.0332,-2.987716E-05,15.498,0,1.0332,-8.056763E-06,15.498,0
1.0341,-2.383459E-05,15.5115,0,1.0341,-4.53193E-05,15.5115,0
1.035,-3.826963E-05,15.525,0,1.035,-1.577783E-05,15.525,0
1.0359,-4.229801E-05,15.5385,0,1.0359,-1.107805E-05,15.5385,0
1.0368,-8.392462E-06,15.552,0,1.0368,-5.337606E-05,15.552,0
1.0377,1.376364E-05,15.5655,0,1.0377,-6.445411E-05,15.5655,0
1.0386,-9.735256E-06,15.579,0,1.0386,-3.558404E-05,15.579,0
1.0395,-3.961242E-05,15.5925,0,1.0395,-2.652018E-05,15.5925,0
1.0404,-5.304036E-05,15.606,0,1.0404,-5.371176E-06,15.606,0
1.0413,-3.189136E-05,15.6195,0,1.0413,-2.685588E-06,15.6195,0
1.0422,-1.107805E-05,15.633,0,1.0422,1.678492E-05,15.633,0
1.0431,1.309224E-05,15.6465,0,1.0431,2.752728E-05,15.6465,0
1.044,1.577783E-05,15.66,0,1.044,4.39765E-05,15.66,0
1.0449,1.510643E-05,15.6735,0,1.0449,-2.987716E-05,15.6735,0
1.0458,-1.376364E-05,15.687,0,1.0458,-1.779202E-05,15.687,0
1.0467,-1.208515E-05,15.7005,0,1.0467,-1.107805E-05,15.7005,0
1.0476,-1.309224E-05,15.714,0,1.0476,-5.539025E-05,15.714,0
1.0485,-4.33051E-05,15.7275,0,1.0485,-2.014191E-05,15.7275,0
1.0494,-4.632639E-05,15.741,0,1.0494,-2.853437E-05,15.741,0
1.0503,-2.752728E-05,15.7545,0,1.0503,-3.524834E-05,15.7545,0
1.0512,-3.591974E-05,15.768,0,1.0512,-2.517739E-05,15.768,0
1.0521,-4.565499E-05,15.7815,0,1.0521,3.356985E-07,15.7815,0
1.053,-3.121996E-05,15.795,0,1.053,-1.409934E-05,15.795,0
1.0539,-2.450599E-05,15.8085,0,1.0539,-2.24918E-05,15.8085,0
1.0548,1.309224E-05,15.822,0,1.0548,-3.726253E-05,15.822,0
1.0557,1.846342E-05,15.8355,0,1.0557,-2.786297E-05,15.8355,0
1.0566,2.719158E-05,15.849,0,1.0566,-2.685588E-06,15.849,0
1.0575,1.577783E-05,15.8625,0,1.0575,-2.786297E-05,15.8625,0
1.0584,1.443504E-05,15.876,0,1.0584,-4.968337E-05,15.876,0
1.0593,4.028382E-05,15.8895,0,1.0593,4.36408E-06,15.8895,0
1.0602,3.726253E-05,15.903,0,1.0602,5.035477E-06,15.903,0
1.0611,4.39765E-05,15.9165,0,1.0611,-6.411841E-05,15.9165,0
1.062,6.176852E-05,15.93,0,1.062,-4.565499E-05,15.93,0
1.0629,3.457694E-05,15.9435,0,1.0629,-1.712062E-05,15.9435,0
1.0638,2.1149E-05,15.957,0,1.0638,-4.867628E-05,15.957,0
1.0647,1.477073E-05,15.9705,0,1.0647,-3.189136E-05,15.9705,0
1.0656,-2.853437E-05,15.984,0,1.0656,1.577783E-05,15.984,0
1.0665,-2.618448E-05,15.9975,0,1.0665,3.692683E-06,15.9975,0
1.0674,-5.304036E-05,16.011,0,1.0674,-3.323415E-05,16.011,0
1.0683,-5.404745E-05,16.0245,0,1.0683,-4.129091E-05,16.0245,0
1.0692,-7.083238E-05,16.038,0,1.0692,-1.779202E-05,16.038,0
1.0701,-7.083238E-05,16.0515,0,1.0701,1.107805E-05,16.0515,0
1.071,-6.009003E-05,16.065,0,1.071,1.242084E-05,16.065,0
1.0719,-5.102617E-05,16.0785,0,1.0719,6.378271E-06,16.0785,0
1.0728,-4.129091E-05,16.092,0,1.0728,2.28275E-05,16.092,0
1.0737,-1.779202E-05,16.1055,0,1.0737,-2.920577E-05,16.1055,0
1.0746,-2.349889E-05,16.119,0,1.0746,-9.298848E-05,16.119,0
1.0755,-5.706874E-06,16.1325,0,1.0755,-4.733349E-05,16.1325,0
1.0764,3.021286E-06,16.146,0,1.0764,-2.719158E-05,16.146,0
1.0773,-1.443504E-05,16.1595,0,1.0773,-3.289845E-05,16.1595,0
1.0782,-3.692683E-05,16.173,0,1.0782,-1.644922E-05,16.173,0
1.0791,-5.270466E-05,16.1865,0,1.0791,-7.721065E-06,16.1865,0
1.08,-3.424125E-05,16.2,0,1.08,-9.063859E-06,16.2,0
1.0809,-2.920577E-05,16.2135,0,1.0809,1.007095E-06,16.2135,0
1.0818,3.054856E-05,16.227,0,1.0818,-3.054856E-05,16.227,0
1.0827,7.284657E-05,16.2405,0,1.0827,-1.544213E-05,16.2405,0
1.0836,4.129091E-05,16.254,0,1.0836,-3.692683E-06,16.254,0
1.0845,7.049668E-06,16.2675,0,1.0845,-1.745632E-05,16.2675,0
1.0854,-6.713969E-07,16.281,0,1.0854,-2.786297E-05,16.281,0
1.0863,1.678492E-06,16.2945,0,1.0863,1.208515E-05,16.2945,0
1.0872,7.049668E-06,16.308,0,1.0872,1.275654E-05,16.308,0
1.0881,1.376364E-05,16.3215,0,1.0881,-3.826963E-05,16.3215,0
1.089,-2.1149E-05,16.335,0,1.089,-1.007095E-06,16.335,0
1.0899,1.174945E-05,16.3485,0,1.0899,1.980621E-05,16.3485,0
1.0908,3.356985E-07,16.362,0,1.0908,-2.28275E-05,16.362,0
1.0917,-4.834058E-05,16.3755,0,1.0917,-2.24918E-05,16.3755,0
1.0926,-7.284657E-05,16.389,0,1.0926,7.721065E-06,16.389,0
1.0935,-5.404745E-05,16.4025,0,1.0935,-1.712062E-05,16.4025,0
1.0944,-2.316319E-05,16.416,0,1.0944,-3.390555E-05,16.416,0
1.0953,1.275654E-05,16.4295,0,1.0953,-5.639734E-05,16.4295,0
1.0962,4.934768E-05,16.443,0,1.0962,-1.678492E-05,16.443,0
1.0971,6.344701E-05,16.4565,0,1.0971,2.383459E-05,16.4565,0
1.098,2.014191E-06,16.47,0,1.098,-6.713969E-06,16.47,0
1.0989,-1.242084E-05,16.4835,0,1.0989,-1.712062E-05,16.4835,0
1.0998,-1.007095E-06,16.497,0,1.0998,3.222705E-05,16.497,0
1.1007,-2.349889E-06,16.5105,0,1.1007,-3.692683E-06,16.5105,0
1.1016,7.721065E-06,16.524,0,1.1016,-5.001907E-05,16.524,0
1.1025,9.735256E-06,16.5375,0,1.1025,5.035477E-06,16.5375,0
1.1034,8.728161E-06,16.551,0,1.1034,9.063859E-06,16.551,0
1.1043,-1.712062E-05,16.5645,0,1.1043,-3.256275E-05,16.5645,0
1.1052,4.39765E-05,16.578,0,1.1052,-3.524834E-05,16.578,0
1.1061,5.203327E-05,16.5915,0,1.1061,-3.356985E-07,16.5915,0
1.107,2.652018E-05,16.605,0,1.107,-1.007095E-05,16.605,0
1.1079,3.692683E-06,16.6185,0,1.1079,-2.484169E-05,16.6185,0
1.1088,1.846342E-05,16.632,0,1.1088,-5.874724E-05,16.632,0
1.1097,4.36408E-06,16.6455,0,1.1097,-5.203327E-05,16.6455,0
1.1106,-2.18204E-05,16.659,0,1.1106,-3.121996E-05,16.659,0
1.1115,-7.721065E-06,16.6725,0,1.1115,-2.21561E-05,16.6725,0
1.1124,1.879912E-05,16.686,0,1.1124,-1.812772E-05,16.686,0
1.1133,2.484169E-05,16.6995,0,1.1133,3.894102E-05,16.6995,0
1.1142,-1.007095E-06,16.713,0,1.1142,8.392462E-06,16.713,0
1.1151,-1.007095E-06,16.7265,0,1.1151,-5.337606E-05,16.7265,0
1.116,-9.063859E-06,16.74,0,1.116,-1.309224E-05,16.74,0
1.1169,-3.021286E-05,16.7535,0,1.1169,-1.947051E-05,16.7535,0
1.1178,-3.961242E-05,16.767,0,1.1178,-7.351797E-05,16.767,0
1.1187,-9.735256E-06,16.7805,0,1.1187,-5.001907E-05,16.7805,0
1.1196,-7.385367E-06,16.794,0,1.1196,-1.376364E-05,16.794,0
1.1205,-7.049668E-06,16.8075,0,1.1205,-1.409934E-05,16.8075,0
1.1214,-2.081331E-05,16.821,0,1.1214,-2.786297E-05,16.821,0
1.1223,-5.035477E-06,16.8345,0,1.1223,-4.599069E-05,16.8345,0
1.1232,-1.007095E-05,16.848,0,1.1232,-1.443504E-05,16.848,0
1.1241,-4.061952E-05,16.8615,0,1.1241,2.853437E-05,16.8615,0
1.125,-5.572595E-05,16.875,0,1.125,-4.36408E-06,16.875,0
1.1259,-6.74754E-05,16.8885,0,1.1259,-3.591974E-05,16.8885,0
1.1268,-7.553216E-05,16.902,0,1.1268,5.035477E-06,16.902,0
1.1277,-4.766919E-05,16.9155,0,1.1277,1.007095E-06,16.9155,0
1.1286,-4.028382E-06,16.929,0,1.1286,-2.484169E-05,16.929,0
1.1295,-1.376364E-05,16.9425,0,1.1295,-1.980621E-05,16.9425,0
1.1304,1.309224E-05,16.956,0,1.1304,-2.417029E-05,16.956,0
1.1313,7.217517E-05,16.9695,0,1.1313,-6.143282E-05,16.9695,0
1.1322,7.721065E-05,16.983,0,1.1322,-6.814679E-05,16.983,0
1.1331,5.035477E-06,16.9965,0,1.1331,-6.915389E-05,16.9965,0
1.134,-3.524834E-05,17.01,0,1.134,-6.74754E-05,17.01,0
1.1349,-3.121996E-05,17.0235,0,1.1349,-4.196231E-05,17.0235,0
1.1358,-1.678492E-05,17.037,0,1.1358,-5.673304E-05,17.037,0
1.1367,-4.699779E-06,17.0505,0,1.1367,-2.685588E-05,17.0505,0
1.1376,-1.913481E-05,17.064,0,1.1376,-1.242084E-05,17.064,0
1.1385,8.392462E-06,17.0775,0,1.1385,-4.129091E-05,17.0775,0
1.1394,9.735256E-06,17.091,0,1.1394,-4.934768E-05,17.091,0
1.1403,5.035477E-06,17.1045,0,1.1403,8.056763E-06,17.1045,0
1.1412,-3.356985E-07,17.118,0,1.1412,-3.356985E-06,17.118,0
1.1421,-2.450599E-05,17.1315,0,1.1421,-1.242084E-05,17.1315,0
1.143,-3.793393E-05,17.145,0,1.143,6.243992E-05,17.145,0
1.1439,-5.371176E-06,17.1585,0,1.1439,5.606165E-05,17.1585,0
1.1448,-1.577783E-05,17.172,0,1.1448,7.721065E-06,17.172,0
1.1457,-3.189136E-05,17.1855,0,1.1457,-3.256275E-05,17.1855,0
1.1466,-5.706874E-06,17.199,0,1.1466,-8.392462E-06,17.199,0
1.1475,-5.706874E-06,17.2125,0,1.1475,-1.107805E-05,17.2125,0
1.1484,-3.692683E-06,17.226,0,1.1484,-2.719158E-05,17.226,0
1.1493,2.685588E-06,17.2395,0,1.1493,-4.53193E-05,17.2395,0
1.1502,-5.035477E-06,17.253,0,1.1502,-8.392462E-06,17.253,0
1.1511,-5.035477E-06,17.2665,0,1.1511,4.36408E-06,17.2665,0
1.152,1.510643E-05,17.28,0,1.152,-1.040665E-05,17.28,0
1.1529,2.853437E-05,17.2935,0,1.1529,-9.735256E-06,17.2935,0
1.1538,-1.812772E-05,17.307,0,1.1538,5.404745E-05,17.307,0
1.1547,-1.745632E-05,17.3205,0,1.1547,4.733349E-05,17.3205,0
1.1556,-6.713969E-06,17.334,0,1.1556,-2.349889E-06,17.334,0
1.1565,-2.047761E-05,17.3475,0,1.1565,3.457694E-05,17.3475,0
1.1574,-4.53193E-05,17.361,0,1.1574,2.349889E-06,17.361,0
1.1583,-4.095522E-05,17.3745,0,1.1583,-5.035477E-05,17.3745,0
1.1592,-2.18204E-05,17.388,0,1.1592,-3.894102E-05,17.388,0
1.1601,-2.14847E-05,17.4015,0,1.1601,-6.076142E-05,17.4015,0
1.161,-2.853437E-05,17.415,0,1.161,-5.941863E-05,17.415,0
1.1619,-4.196231E-05,17.4285,0,1.1619,-3.323415E-05,17.4285,0
1.1628,-3.524834E-05,17.442,0,1.1628,-3.826963E-05,17.442,0
1.1637,7.721065E-06,17.4555,0,1.1637,-2.719158E-05,17.4555,0
1.1646,-9.735256E-06,17.469,0,1.1646,-4.36408E-06,17.469,0
1.1655,-2.047761E-05,17.4825,0,1.1655,-1.913481E-05,17.4825,0
1.1664,1.577783E-05,17.496,0,1.1664,-2.819867E-05,17.496,0
1.1673,5.035477E-06,17.5095,0,1.1673,6.378271E-06,17.5095,0
1.1682,-6.713969E-07,17.523,0,1.1682,-1.007095E-05,17.523,0
1.1691,2.920577E-05,17.5365,0,1.1691,-6.411841E-05,17.5365,0
1.17,9.063859E-06,17.55,0,1.17,-3.323415E-05,17.55,0
1.1709,-1.007095E-06,17.5635,0,1.1709,-3.457694E-05,17.5635,0
1.1718,-2.349889E-06,17.577,0,1.1718,-6.143282E-05,17.577,0
1.1727,-5.706874E-06,17.5905,0,1.1727,-7.284657E-05,17.5905,0
1.1736,-1.107805E-05,17.604,0,1.1736,-3.591974E-05,17.604,0
1.1745,-2.047761E-05,17.6175,0,1.1745,-3.692683E-06,17.6175,0
1.1754,1.712062E-05,17.631,0,1.1754,4.666209E-05,17.631,0
1.1763,5.539025E-05,17.6445,0,1.1763,5.874724E-05,17.6445,0
1.1772,-2.853437E-05,17.658,0,1.1772,-3.927672E-05,17.658,0
1.1781,-3.524834E-05,17.6715,0,1.1781,-3.390555E-05,17.6715,0
1.179,9.735256E-06,17.685,0,1.179,-4.129091E-05,17.685,0
1.1799,1.678492E-06,17.6985,0,1.1799,-5.841154E-05,17.6985,0
1.1808,1.242084E-05,17.712,0,1.1808,-2.685588E-06,17.712,0
1.1817,5.203327E-05,17.7255,0,1.1817,-7.049668E-06,17.7255,0
1.1826,3.524834E-05,17.739,0,1.1826,-3.625543E-05,17.739,0
1.1835,8.392462E-06,17.7525,0,1.1835,5.371176E-06,17.7525,0
1.1844,1.644922E-05,17.766,0,1.1844,3.356985E-06,17.766,0
1.1853,2.24918E-05,17.7795,0,1.1853,-2.047761E-05,17.7795,0
1.1862,1.947051E-05,17.793,0,1.1862,-2.349889E-05,17.793,0
1.1871,-7.385367E-06,17.8065,0,1.1871,-3.021286E-06,17.8065,0
1.188,-2.517739E-05,17.82,0,1.188,-3.356985E-06,17.82,0
1.1889,5.035477E-06,17.8335,0,1.1889,-6.713969E-06,17.8335,0
1.1898,1.040665E-05,17.847,0,1.1898,-2.28275E-05,17.847,0
1.1907,-1.409934E-05,17.8605,0,1.1907,-1.745632E-05,17.8605,0
1.1916,-3.356985E-05,17.874,0,1.1916,2.685588E-06,17.874,0
1.1925,-2.28275E-05,17.8875,0,1.1925,-6.713969E-06,17.8875,0
1.1934,-3.390555E-05,17.901,0,1.1934,-3.323415E-05,17.901,0
1.1943,-4.39765E-05,17.9145,0,1.1943,3.356985E-06,17.9145,0
1.1952,-2.1149E-05,17.928,0,1.1952,5.706874E-06,17.928,0
1.1961,-1.376364E-05,17.9415,0,1.1961,-3.961242E-05,17.9415,0
1.197,-5.606165E-05,17.955,0,1.197,-1.007095E-06,17.955,0
1.1979,-1.174945E-05,17.9685,0,1.1979,8.728161E-06,17.9685,0
1.1988,2.24918E-05,17.982,0,1.1988,-3.659113E-05,17.982,0
1.1997,6.378271E-06,17.9955,0,1.1997,-3.860533E-05,17.9955,0
1.2006,-3.021286E-05,18.009,0,1.2006,-1.174945E-05,18.009,0
1.2015,-5.841154E-05,18.0225,0,1.2015,-3.457694E-05,18.0225,0
1.2024,-5.572595E-05,18.036,0,1.2024,-3.961242E-05,18.036,0
1.2033,-1.443504E-05,18.0495,0,1.2033,-5.471885E-05,18.0495,0
1.2042,1.040665E-05,18.063,0,1.2042,-1.812772E-05,18.063,0
1.2051,-9.735256E-06,18.0765,0,1.2051,-2.349889E-05,18.0765,0
1.206,1.779202E-05,18.09,0,1.206,-3.256275E-05,18.09,0
1.2069,5.740444E-05,18.1035,0,1.2069,-3.692683E-05,18.1035,0
1.2078,9.063859E-06,18.117,0,1.2078,-7.049668E-06,18.117,0
1.2087,2.349889E-05,18.1305,0,1.2087,1.409934E-05,18.1305,0
1.2096,1.577783E-05,18.144,0,1.2096,-7.721065E-06,18.144,0
1.2105,-8.392462E-06,18.1575,0,1.2105,6.713969E-06,18.1575,0
1.2114,-3.256275E-05,18.171,0,1.2114,3.692683E-06,18.171,0
1.2123,-1.913481E-05,18.1845,0,1.2123,-2.719158E-05,18.1845,0
1.2132,-1.107805E-05,18.198,0,1.2132,-5.471885E-05,18.198,0
1.2141,-3.591974E-05,18.2115,0,1.2141,-7.721065E-06,18.2115,0
1.215,-3.256275E-05,18.225,0,1.215,-1.443504E-05,18.225,0
1.2159,-3.356985E-07,18.2385,0,1.2159,-7.721065E-06,18.2385,0
1.2168,1.242084E-05,18.252,0,1.2168,-2.450599E-05,18.252,0
1.2177,9.399558E-06,18.2655,0,1.2177,-6.042573E-06,18.2655,0
1.2186,-1.208515E-05,18.279,0,1.2186,1.678492E-05,18.279,0
1.2195,-5.001907E-05,18.2925,0,1.2195,-1.342794E-05,18.2925,0
1.2204,-3.860533E-05,18.306,0,1.2204,-3.256275E-05,18.306,0
1.2213,-4.867628E-05,18.3195,0,1.2213,9.063859E-06,18.3195,0
1.2222,-4.33051E-05,18.333,0,1.2222,-5.035477E-06,18.333,0
1.2231,-5.706874E-06,18.3465,0,1.2231,-6.6804E-05,18.3465,0
1.224,2.316319E-05,18.36,0,1.224,-2.450599E-05,18.36,0
1.2249,5.975433E-05,18.3735,0,1.2249,-2.584878E-05,18.3735,0
1.2258,5.304036E-05,18.387,0,1.2258,-6.210422E-05,18.387,0
1.2267,2.450599E-05,18.4005,0,1.2267,-5.673304E-05,18.4005,0
1.2276,2.887007E-05,18.414,0,1.2276,-2.047761E-05,18.414,0
1.2285,1.208515E-05,18.4275,0,1.2285,-5.706874E-06,18.4275,0
1.2294,-3.021286E-06,18.441,0,1.2294,-2.584878E-05,18.441,0
1.2303,3.457694E-05,18.4545,0,1.2303,-5.304036E-05,18.4545,0
1.2312,1.510643E-05,18.468,0,1.2312,-9.399558E-06,18.468,0
1.2321,-3.121996E-05,18.4815,0,1.2321,8.392462E-06,18.4815,0
1.233,-4.46479E-05,18.495,0,1.233,-2.14847E-05,18.495,0
1.2339,-2.819867E-05,18.5085,0,1.2339,-3.256275E-05,18.5085,0
1.2348,-5.841154E-05,18.522,0,1.2348,3.356985E-07,18.522,0
1.2357,-2.887007E-05,18.5355,0,1.2357,-2.014191E-06,18.5355,0
1.2366,1.980621E-05,18.549,0,1.2366,-2.752728E-05,18.549,0
1.2375,-2.18204E-05,18.5625,0,1.2375,2.014191E-06,18.5625,0
1.2384,2.014191E-06,18.576,0,1.2384,1.007095E-06,18.576,0
1.2393,1.678492E-05,18.5895,0,1.2393,-6.143282E-05,18.5895,0
1.2402,-1.913481E-05,18.603,0,1.2402,-5.337606E-05,18.603,0
1.2411,-2.987716E-05,18.6165,0,1.2411,-3.659113E-05,18.6165,0
1.242,-8.392462E-06,18.63,0,1.242,-3.659113E-05,18.63,0
1.2429,5.035477E-06,18.6435,0,1.2429,3.021286E-06,18.6435,0
1.2438,2.584878E-05,18.657,0,1.2438,5.975433E-05,18.657,0
1.2447,2.584878E-05,18.6705,0,1.2447,7.888914E-05,18.6705,0
1.2456,1.242084E-05,18.684,0,1.2456,-2.786297E-05,18.684,0
1.2465,-2.081331E-05,18.6975,0,1.2465,-3.625543E-05,18.6975,0
1.2474,-2.920577E-05,18.711,0,1.2474,-3.390555E-05,18.711,0
1.2483,-2.652018E-05,18.7245,0,1.2483,-3.121996E-05,18.7245,0
1.2492,-3.927672E-05,18.738,0,1.2492,-4.599069E-05,18.738,0
1.2501,-1.678492E-06,18.7515,0,1.2501,-6.277562E-05,18.7515,0
1.251,-2.21561E-05,18.765,0,1.251,-2.21561E-05,18.765,0
1.2519,-3.424125E-05,18.7785,0,1.2519,1.107805E-05,18.7785,0
1.2528,-1.678492E-06,18.792,0,1.2528,-9.735256E-06,18.792,0
1.2537,-2.1149E-05,18.8055,0,1.2537,-8.392462E-06,18.8055,0
1.2546,-8.560311E-05,18.819,0,1.2546,-4.36408E-06,18.819,0
1.2555,-5.404745E-05,18.8325,0,1.2555,-2.383459E-05,18.8325,0
1.2564,-2.685588E-05,18.846,0,1.2564,-4.33051E-05,18.846,0
1.2573,1.040665E-05,18.8595,0,1.2573,-3.860533E-05,18.8595,0
1.2582,3.054856E-05,18.873,0,1.2582,-1.107805E-05,18.873,0
1.2591,1.644922E-05,18.8865,0,1.2591,-1.913481E-05,18.8865,0
1.26,3.121996E-05,18.9,0,1.26,-1.913481E-05,18.9,0
1.2609,3.793393E-05,18.9135,0,1.2609,-4.632639E-05,18.9135,0
1.2618,-1.275654E-05,18.927,0,1.2618,-2.349889E-06,18.927,0
1.2627,-2.517739E-05,18.9405,0,1.2627,-1.007095E-05,18.9405,0
1.2636,-4.229801E-05,18.954,0,1.2636,-4.968337E-05,18.954,0
1.2645,-2.450599E-05,18.9675,0,1.2645,2.349889E-06,18.9675,0
1.2654,6.713969E-07,18.981,0,1.2654,1.510643E-05,18.981,0
1.2663,-2.719158E-05,18.9945,0,1.2663,-2.920577E-05,18.9945,0
1.2672,-1.275654E-05,19.008,0,1.2672,-3.659113E-05,19.008,0
1.2681,-1.812772E-05,19.0215,0,1.2681,-1.443504E-05,19.0215,0
1.269,-2.21561E-05,19.035,0,1.269,-1.174945E-05,19.035,0
1.2699,-6.713969E-07,19.0485,0,1.2699,-1.577783E-05,19.0485,0
1.2708,1.644922E-05,19.062,0,1.2708,-2.28275E-05,19.062,0
1.2717,1.309224E-05,19.0755,0,1.2717,-9.735256E-06,19.0755,0
1.2726,-2.652018E-05,19.089,0,1.2726,3.021286E-06,19.089,0
1.2735,-3.659113E-05,19.1025,0,1.2735,-2.551309E-05,19.1025,0
1.2744,-1.678492E-06,19.116,0,1.2744,-3.524834E-05,19.116,0
1.2753,-2.853437E-05,19.1295,0,1.2753,-4.028382E-06,19.1295,0
1.2762,-1.678492E-05,19.143,0,1.2762,6.713969E-07,19.143,0
1.2771,4.39765E-05,19.1565,0,1.2771,-4.129091E-05,19.1565,0
1.278,3.390555E-05,19.17,0,1.278,-1.342794E-06,19.17,0
1.2789,3.994812E-05,19.1835,0,1.2789,9.063859E-06,19.1835,0
1.2798,4.162661E-05,19.197,0,1.2798,-4.39765E-05,19.197,0
1.2807,1.342794E-06,19.2105,0,1.2807,-2.517739E-05,19.2105,0
1.2816,-3.625543E-05,19.224,0,1.2816,-9.063859E-06,19.224,0
1.2825,-1.107805E-05,19.2375,0,1.2825,-2.685588E-06,19.2375,0
1.2834,-7.049668E-06,19.251,0,1.2834,-2.1149E-05,19.251,0
1.2843,7.721065E-06,19.2645,0,1.2843,-2.349889E-05,19.2645,0
1.2852,3.390555E-05,19.278,0,1.2852,-1.174945E-05,19.278,0
1.2861,-1.376364E-05,19.2915,0,1.2861,-1.879912E-05,19.2915,0
1.287,-3.021286E-05,19.305,0,1.287,-3.826963E-05,19.305,0
1.2879,-2.349889E-06,19.3185,0,1.2879,-3.189136E-05,19.3185,0
1.2888,-2.28275E-05,19.332,0,1.2888,3.021286E-06,19.332,0
1.2897,-2.853437E-05,19.3455,0,1.2897,-3.356985E-07,19.3455,0
1.2906,-1.779202E-05,19.359,0,1.2906,-3.558404E-05,19.359,0
1.2915,-1.510643E-05,19.3725,0,1.2915,-7.049668E-06,19.3725,0
1.2924,-1.745632E-05,19.386,0,1.2924,2.685588E-06,19.386,0
1.2933,-1.040665E-05,19.3995,0,1.2933,-3.793393E-05,19.3995,0
1.2942,-2.1149E-05,19.413,0,1.2942,-7.385367E-05,19.413,0
1.2951,-1.141375E-05,19.4265,0,1.2951,-8.325322E-05,19.4265,0
1.296,6.713969E-07,19.44,0,1.296,-5.572595E-05,19.44,0
1.2969,0,19.4535,0,1.2969,-4.766919E-05,19.4535,0
1.2978,1.040665E-05,19.467,0,1.2978,-4.733349E-05,19.467,0
1.2987,-5.706874E-06,19.4805,0,1.2987,1.846342E-05,19.4805,0
1.2996,1.242084E-05,19.494,0,1.2996,3.961242E-05,19.494,0
1.3005,4.39765E-05,19.5075,0,1.3005,-1.812772E-05,19.5075,0
1.3014,-7.721065E-06,19.521,0,1.3014,-4.095522E-05,19.521,0
1.3023,-6.64683E-05,19.5345,0,1.3023,1.644922E-05,19.5345,0
1.3032,-1.611353E-05,19.548,0,1.3032,6.378271E-06,19.548,0
1.3041,4.33051E-05,19.5615,0,1.3041,-3.155566E-05,19.5615,0
1.305,-1.208515E-05,19.575,0,1.305,-6.042573E-06,19.575,0
1.3059,-4.36408E-06,19.5885,0,1.3059,1.342794E-06,19.5885,0
1.3068,-1.443504E-05,19.602,0,1.3068,-3.088426E-05,19.602,0
1.3077,-2.450599E-05,19.6155,0,1.3077,1.242084E-05,19.6155,0
1.3086,-5.001907E-05,19.629,0,1.3086,1.812772E-05,19.629,0
1.3095,-5.807584E-05,19.6425,0,1.3095,1.141375E-05,19.6425,0
1.3104,-7.754635E-05,19.656,0,1.3104,1.745632E-05,19.656,0
1.3113,-7.553216E-05,19.6695,0,1.3113,-5.706874E-06,19.6695,0
1.3122,-1.107805E-05,19.683,0,1.3122,1.309224E-05,19.683,0
1.3131,2.047761E-05,19.6965,0,1.3131,-3.356985E-07,19.6965,0
1.314,5.337606E-05,19.71,0,1.314,-3.390555E-05,19.71,0
1.3149,6.915389E-05,19.7235,0,1.3149,-5.169757E-05,19.7235,0
1.3158,2.987716E-05,19.737,0,1.3158,-1.577783E-05,19.737,0
1.3167,4.263371E-05,19.7505,0,1.3167,-2.484169E-05,19.7505,0
1.3176,2.786297E-05,19.764,0,1.3176,-4.43122E-05,19.764,0
1.3185,-3.826963E-05,19.7775,0,1.3185,-2.584878E-05,19.7775,0
1.3194,-3.558404E-05,19.791,0,1.3194,-1.007095E-05,19.791,0
1.3203,1.309224E-05,19.8045,0,1.3203,-2.719158E-05,19.8045,0
1.3212,3.155566E-05,19.818,0,1.3212,-4.162661E-05,19.818,0
1.3221,-2.014191E-06,19.8315,0,1.3221,-2.21561E-05,19.8315,0
1.323,6.713969E-07,19.845,0,1.323,-3.659113E-05,19.845,0
1.3239,-1.644922E-05,19.8585,0,1.3239,-4.867628E-05,19.8585,0
1.3248,7.721065E-06,19.872,0,1.3248,-5.539025E-05,19.872,0
1.3257,8.392462E-06,19.8855,0,1.3257,-3.558404E-05,19.8855,0
1.3266,-5.035477E-05,19.899,0,1.3266,-3.793393E-05,19.899,0
1.3275,-6.411841E-05,19.9125,0,1.3275,-1.577783E-05,19.9125,0
1.3284,-2.920577E-05,19.926,0,1.3284,-2.349889E-06,19.926,0
1.3293,-3.256275E-05,19.9395,0,1.3293,5.539025E-05,19.9395,0
1.3302,-1.376364E-05,19.953,0,1.3302,4.36408E-05,19.953,0
1.3311,6.378271E-06,19.9665,0,1.3311,-3.356985E-05,19.9665,0
1.332,3.021286E-06,19.98,0,1.332,-1.040665E-05,19.98,0
1.3329,1.812772E-05,19.9935,0,1.3329,3.356985E-06,19.9935,0
1.3338,-2.685588E-06,20.007,0,1.3338,-3.054856E-05,20.007,0
1.3347,-1.309224E-05,20.0205,0,1.3347,-4.39765E-05,20.0205,0
1.3356,1.544213E-05,20.034,0,1.3356,-3.659113E-05,20.034,0
1.3365,1.376364E-05,20.0475,0,1.3365,-2.618448E-05,20.0475,0
1.3374,4.162661E-05,20.061,0,1.3374,-1.879912E-05,20.061,0
1.3383,2.752728E-05,20.0745,0,1.3383,-6.042573E-05,20.0745,0
1.3392,2.014191E-05,20.088,0,1.3392,5.706874E-06,20.088,0
1.3401,-4.834058E-05,20.1015,0,1.3401,4.699779E-06,20.1015,0
1.341,-4.33051E-05,20.115,0,1.341,-3.659113E-05,20.115,0
1.3419,-1.074235E-05,20.1285,0,1.3419,-4.36408E-06,20.1285,0
1.3428,-4.49836E-05,20.142,0,1.3428,2.28275E-05,20.142,0
1.3437,-2.954147E-05,20.1555,0,1.3437,2.652018E-05,20.1555,0
1.3446,1.409934E-05,20.169,0,1.3446,7.049668E-06,20.169,0
1.3455,-5.706874E-06,20.1825,0,1.3455,2.18204E-05,20.1825,0
1.3464,2.618448E-05,20.196,0,1.3464,-1.779202E-05,20.196,0
1.3473,4.53193E-05,20.2095,0,1.3473,-5.203327E-05,20.2095,0
1.3482,5.035477E-06,20.223,0,1.3482,-4.061952E-05,20.223,0
1.3491,-1.779202E-05,20.2365,0,1.3491,-2.584878E-05,20.2365,0
1.35,-1.644922E-05,20.25,0,1.35,-4.867628E-05,20.25,0
1.3509,-2.18204E-05,20.2635,0,1.3509,-5.304036E-05,20.2635,0
1.3518,-1.342794E-05,20.277,0,1.3518,-5.438316E-05,20.277,0
1.3527,-3.256275E-05,20.2905,0,1.3527,-3.692683E-05,20.2905,0
1.3536,-3.189136E-05,20.304,0,1.3536,-7.385367E-06,20.304,0
1.3545,-3.793393E-05,20.3175,0,1.3545,-2.450599E-05,20.3175,0
1.3554,-1.577783E-05,20.331,0,1.3554,-3.927672E-05,20.331,0
1.3563,-3.457694E-05,20.3445,0,1.3563,-2.685588E-06,20.3445,0
1.3572,-3.323415E-05,20.358,0,1.3572,-1.812772E-05,20.358,0
1.3581,5.035477E-06,20.3715,0,1.3581,-4.43122E-05,20.3715,0
1.359,1.376364E-05,20.385,0,1.359,-6.713969E-06,20.385,0
1.3599,1.376364E-05,20.3985,0,1.3599,-5.035477E-06,20.3985,0
1.3608,2.584878E-05,20.412,0,1.3608,-4.095522E-05,20.412,0
1.3617,-8.728161E-06,20.4255,0,1.3617,-1.040665E-05,20.4255,0
1.3626,-7.083238E-05,20.439,0,1.3626,1.007095E-06,20.439,0
1.3635,-3.894102E-05,20.4525,0,1.3635,-1.309224E-05,20.4525,0
1.3644,-1.409934E-05,20.466,0,1.3644,-2.584878E-05,20.466,0
1.3653,-1.644922E-05,20.4795,0,1.3653,-5.304036E-05,20.4795,0
1.3662,1.678492E-06,20.493,0,1.3662,-3.121996E-05,20.493,0
1.3671,-5.706874E-06,20.5065,0,1.3671,-2.719158E-05,20.5065,0
1.368,-9.063859E-06,20.52,0,1.368,-2.517739E-05,20.52,0
1.3689,9.735256E-06,20.5335,0,1.3689,-3.726253E-05,20.5335,0
1.3698,9.399558E-06,20.547,0,1.3698,6.378271E-06,20.547,0
1.3707,3.457694E-05,20.5605,0,1.3707,-1.208515E-05,20.5605,0
1.3716,2.853437E-05,20.574,0,1.3716,-2.920577E-05,20.574,0
1.3725,-1.007095E-06,20.5875,0,1.3725,1.040665E-05,20.5875,0
1.3734,-3.692683E-06,20.601,0,1.3734,1.040665E-05,20.601,0
1.3743,-5.169757E-05,20.6145,0,1.3743,-2.316319E-05,20.6145,0
1.3752,1.812772E-05,20.628,0,1.3752,2.349889E-06,20.628,0
1.3761,3.424125E-05,20.6415,0,1.3761,8.392462E-06,20.6415,0
1.377,-9.063859E-06,20.655,0,1.377,-2.047761E-05,20.655,0
1.3779,-2.719158E-05,20.6685,0,1.3779,-1.913481E-05,20.6685,0
1.3788,4.733349E-05,20.682,0,1.3788,-2.652018E-05,20.682,0
1.3797,5.035477E-06,20.6955,0,1.3797,-1.040665E-05,20.6955,0
1.3806,-5.941863E-05,20.709,0,1.3806,-1.443504E-05,20.709,0
1.3815,-1.980621E-05,20.7225,0,1.3815,-4.53193E-05,20.7225,0
1.3824,-3.021286E-06,20.736,0,1.3824,-4.33051E-05,20.736,0
1.3833,-3.289845E-05,20.7495,0,1.3833,-5.706874E-06,20.7495,0
1.3842,-2.786297E-05,20.763,0,1.3842,-1.913481E-05,20.763,0
1.3851,6.378271E-06,20.7765,0,1.3851,-5.706874E-05,20.7765,0
1.386,-1.678492E-06,20.79,0,1.386,1.007095E-06,20.79,0
1.3869,3.189136E-05,20.8035,0,1.3869,3.692683E-05,20.8035,0
1.3878,6.109713E-05,20.817,0,1.3878,-3.457694E-05,20.817,0
1.3887,-3.121996E-05,20.8305,0,1.3887,-1.141375E-05,20.8305,0
1.3896,-7.754635E-05,20.844,0,1.3896,1.846342E-05,20.844,0
1.3905,-3.894102E-05,20.8575,0,1.3905,-1.678492E-05,20.8575,0
1.3914,-2.987716E-05,20.871,0,1.3914,-2.719158E-05,20.871,0
1.3923,-2.28275E-05,20.8845,0,1.3923,-4.33051E-05,20.8845,0
1.3932,1.443504E-05,20.898,0,1.3932,-2.920577E-05,20.898,0
1.3941,-5.706874E-06,20.9115,0,1.3941,-2.349889E-06,20.9115,0
1.395,-2.450599E-05,20.925,0,1.395,-1.107805E-05,20.925,0
1.3959,8.728161E-06,20.9385,0,1.3959,-2.349889E-05,20.9385,0
1.3968,1.745632E-05,20.952,0,1.3968,-5.035477E-06,20.952,0
1.3977,-7.385367E-06,20.9655,0,1.3977,-1.510643E-05,20.9655,0
1.3986,-3.054856E-05,20.979,0,1.3986,-6.076142E-05,20.979,0
1.3995,-3.961242E-05,20.9925,0,1.3995,-3.054856E-05,20.9925,0
1.4004,-1.242084E-05,21.006,0,1.4004,-1.779202E-05,21.006,0
1.4013,-1.007095E-06,21.0195,0,1.4013,-6.176852E-05,21.0195,0
1.4022,3.591974E-05,21.033,0,1.4022,-5.169757E-05,21.033,0
1.4031,-1.342794E-06,21.0465,0,1.4031,-2.047761E-05,21.0465,0
1.404,-4.061952E-05,21.06,0,1.404,9.063859E-06,21.06,0
1.4049,-6.713969E-06,21.0735,0,1.4049,2.786297E-05,21.0735,0
1.4058,7.956054E-05,21.087,0,1.4058,2.081331E-05,21.087,0
1.4067,3.189136E-05,21.1005,0,1.4067,1.309224E-05,21.1005,0
1.4076,-5.471885E-05,21.114,0,1.4076,2.349889E-06,21.114,0
1.4085,-3.860533E-05,21.1275,0,1.4085,-2.450599E-05,21.1275,0
1.4094,-9.063859E-06,21.141,0,1.4094,-4.39765E-05,21.141,0
1.4103,-1.980621E-05,21.1545,0,1.4103,2.014191E-06,21.1545,0
1.4112,-2.081331E-05,21.168,0,1.4112,-1.141375E-05,21.168,0
1.4121,7.721065E-06,21.1815,0,1.4121,-5.841154E-05,21.1815,0
1.413,-1.141375E-05,21.195,0,1.413,-5.136187E-05,21.195,0
1.4139,2.551309E-05,21.2085,0,1.4139,-3.390555E-05,21.2085,0
1.4148,2.853437E-05,21.222,0,1.4148,-6.042573E-05,21.222,0
1.4157,-2.719158E-05,21.2355,0,1.4157,-4.196231E-05,21.2355,0
1.4166,-1.007095E-05,21.249,0,1.4166,2.819867E-05,21.249,0
1.4175,1.342794E-06,21.2625,0,1.4175,7.452507E-05,21.2625,0
1.4184,-3.356985E-05,21.276,0,1.4184,2.24918E-05,21.276,0
1.4193,-1.141375E-05,21.2895,0,1.4193,-3.457694E-05,21.2895,0
1.4202,-1.812772E-05,21.303,0,1.4202,-3.994812E-05,21.303,0
1.4211,-1.174945E-05,21.3165,0,1.4211,-4.934768E-05,21.3165,0
1.422,2.316319E-05,21.33,0,1.422,-6.076142E-05,21.33,0
1.4229,2.349889E-06,21.3435,0,1.4229,0,21.3435,0
1.4238,-2.517739E-05,21.357,0,1.4238,2.24918E-05,21.357,0
1.4247,1.779202E-05,21.3705,0,1.4247,-3.256275E-05,21.3705,0
1.4256,6.009003E-05,21.384,0,1.4256,-2.752728E-05,21.384,0
1.4265,5.304036E-05,21.3975,0,1.4265,4.028382E-05,21.3975,0
1.4274,-4.666209E-05,21.411,0,1.4274,-1.779202E-05,21.411,0
1.4283,-7.150377E-05,21.4245,0,1.4283,-6.64683E-05,21.4245,0
1.4292,-1.913481E-05,21.438,0,1.4292,-4.632639E-05,21.438,0
1.4301,-3.390555E-05,21.4515,0,1.4301,-1.107805E-05,21.4515,0
1.431,-4.36408E-06,21.465,0,1.431,-1.779202E-05,21.465,0
1.4319,-3.927672E-05,21.4785,0,1.4319,-1.242084E-05,21.4785,0
1.4328,-6.61326E-05,21.492,0,1.4328,-5.337606E-05,21.492,0
1.4337,-1.678492E-06,21.5055,0,1.4337,-4.53193E-05,21.5055,0
1.4346,9.399558E-06,21.519,0,1.4346,3.021286E-06,21.519,0
1.4355,-5.169757E-05,21.5325,0,1.4355,-2.047761E-05,21.5325,0
1.4364,1.040665E-05,21.546,0,1.4364,-2.417029E-05,21.546,0
1.4373,6.210422E-05,21.5595,0,1.4373,2.383459E-05,21.5595,0
1.4382,3.961242E-05,21.573,0,1.4382,6.378271E-06,21.573,0
1.4391,-2.349889E-06,21.5865,0,1.4391,-5.606165E-05,21.5865,0
1.44,-2.28275E-05,21.6,0,1.44,-2.081331E-05,21.6,0
1.4409,-2.316319E-05,21.6135,0,1.4409,-1.007095E-06,21.6135,0
1.4418,-1.510643E-05,21.627,0,1.4418,-3.424125E-05,21.627,0
1.4427,-1.913481E-05,21.6405,0,1.4427,-1.141375E-05,21.6405,0
1.4436,0,21.654,0,1.4436,2.752728E-05,21.654,0
1.4445,1.007095E-06,21.6675,0,1.4445,-4.028382E-06,21.6675,0
1.4454,-8.056763E-06,21.681,0,1.4454,-2.685588E-06,21.681,0
1.4463,-1.342794E-06,21.6945,0,1.4463,-3.121996E-05,21.6945,0
1.4472,2.047761E-05,21.708,0,1.4472,-3.793393E-05,21.708,0
1.4481,2.28275E-05,21.7215,0,1.4481,-3.323415E-05,21.7215,0
1.449,6.378271E-06,21.735,0,1.449,-5.606165E-05,21.735,0
1.4499,-2.081331E-05,21.7485,0,1.4499,-6.176852E-05,21.7485,0
1.4508,-3.189136E-05,21.762,0,1.4508,-1.275654E-05,21.762,0
1.4517,-1.376364E-05,21.7755,0,1.4517,-9.399558E-06,21.7755,0
1.4526,2.014191E-06,21.789,0,1.4526,-4.061952E-05,21.789,0
1.4535,-1.644922E-05,21.8025,0,1.4535,-1.477073E-05,21.8025,0
1.4544,1.577783E-05,21.816,0,1.4544,2.450599E-05,21.816,0
1.4553,-4.36408E-06,21.8295,0,1.4553,-1.745632E-05,21.8295,0
1.4562,-1.040665E-05,21.843,0,1.4562,-7.721065E-06,21.843,0
1.4571,6.042573E-06,21.8565,0,1.4571,9.063859E-06,21.8565,0
1.458,-2.819867E-05,21.87,0,1.458,-3.625543E-05,21.87,0
1.4589,-3.726253E-05,21.8835,0,1.4589,-3.927672E-05,21.8835,0
1.4598,4.36408E-06,21.897,0,1.4598,-2.652018E-05,21.897,0
1.4607,-6.042573E-06,21.9105,0,1.4607,9.063859E-06,21.9105,0
1.4616,-6.6804E-05,21.924,0,1.4616,-5.706874E-06,21.924,0
1.4625,-2.853437E-05,21.9375,0,1.4625,-3.659113E-05,21.9375,0
1.4634,1.242084E-05,21.951,0,1.4634,-5.471885E-05,21.951,0
1.4643,-7.721065E-06,21.9645,0,1.4643,-2.450599E-05,21.9645,0
1.4652,-2.349889E-06,21.978,0,1.4652,-1.510643E-05,21.978,0
1.4661,2.786297E-05,21.9915,0,1.4661,4.36408E-06,21.9915,0
1.467,-1.980621E-05,22.005,0,1.467,2.819867E-05,22.005,0
1.4679,-2.450599E-05,22.0185,0,1.4679,-4.028382E-06,22.0185,0
1.4688,6.210422E-05,22.032,0,1.4688,-2.383459E-05,22.032,0
1.4697,3.591974E-05,22.0455,0,1.4697,5.706874E-06,22.0455,0
1.4706,3.356985E-07,22.059,0,1.4706,1.577783E-05,22.059,0
1.4715,1.409934E-05,22.0725,0,1.4715,3.356985E-07,22.0725,0
1.4724,2.584878E-05,22.086,0,1.4724,5.035477E-06,22.086,0
1.4733,-1.040665E-05,22.0995,0,1.4733,-4.129091E-05,22.0995,0
1.4742,-1.443504E-05,22.113,0,1.4742,-3.256275E-05,22.113,0
1.4751,-7.049668E-06,22.1265,0,1.4751,-2.28275E-05,22.1265,0
1.476,-1.947051E-05,22.14,0,1.476,-2.517739E-05,22.14,0
1.4769,-1.242084E-05,22.1535,0,1.4769,-3.994812E-05,22.1535,0
1.4778,-1.846342E-05,22.167,0,1.4778,-1.678492E-06,22.167,0
1.4787,-2.652018E-05,22.1805,0,1.4787,-1.242084E-05,22.1805,0
1.4796,-2.920577E-05,22.194,0,1.4796,-4.53193E-05,22.194,0
1.4805,-5.035477E-06,22.2075,0,1.4805,-1.208515E-05,22.2075,0
1.4814,1.443504E-05,22.221,0,1.4814,-1.242084E-05,22.221,0
1.4823,2.618448E-05,22.2345,0,1.4823,-3.256275E-05,22.2345,0
1.4832,2.517739E-05,22.248,0,1.4832,-2.383459E-05,22.248,0
1.4841,-1.980621E-05,22.2615,0,1.4841,-2.24918E-05,22.2615,0
1.485,-8.728161E-06,22.275,0,1.485,-2.316319E-05,22.275,0
1.4859,-3.323415E-05,22.2885,0,1.4859,2.349889E-06,22.2885,0
1.4868,-6.57969E-05,22.302,0,1.4868,-1.779202E-05,22.302,0
1.4877,-3.256275E-05,22.3155,0,1.4877,-6.378271E-06,22.3155,0
1.4886,-5.304036E-05,22.329,0,1.4886,-1.107805E-05,22.329,0
1.4895,-6.009003E-05,22.3425,0,1.4895,-3.894102E-05,22.3425,0
1.4904,-4.196231E-05,22.356,0,1.4904,-3.659113E-05,22.356,0
1.4913,-4.766919E-05,22.3695,0,1.4913,1.510643E-05,22.3695,0
1.4922,-2.014191E-05,22.383,0,1.4922,-1.275654E-05,22.383,0
1.4931,-1.141375E-05,22.3965,0,1.4931,-6.982528E-05,22.3965,0
1.494,-4.36408E-06,22.41,0,1.494,-2.28275E-05,22.41,0
1.4949,5.203327E-05,22.4235,0,1.4949,3.692683E-06,22.4235,0
1.4958,6.009003E-05,22.437,0,1.4958,-3.826963E-05,22.437,0
1.4967,8.056763E-06,22.4505,0,1.4967,-3.222705E-05,22.4505,0
1.4976,-3.692683E-06,22.464,0,1.4976,-1.242084E-05,22.464,0
1.4985,2.014191E-06,22.4775,0,1.4985,-1.846342E-05,22.4775,0
1.4994,-7.049668E-06,22.491,0,1.4994,-1.309224E-05,22.491,0
1.5003,2.1149E-05,22.5045,0,1.5003,-4.599069E-05,22.5045,0
1.5012,-1.174945E-05,22.518,0,1.5012,-6.478981E-05,22.518,0
1.5021,-3.323415E-05,22.5315,0,1.5021,-2.685588E-05,22.5315,0
1.503,-3.524834E-05,22.545,0,1.503,-3.021286E-05,22.545,0
1.5039,8.728161E-06,22.5585,0,1.5039,-3.424125E-05,22.5585,0
1.5048,-2.786297E-05,22.572,0,1.5048,9.063859E-06,22.572,0
1.5057,-3.860533E-05,22.5855,0,1.5057,-6.042573E-06,22.5855,0
1.5066,1.174945E-05,22.599,0,1.5066,-4.733349E-05,22.599,0
1.5075,6.948959E-05,22.6125,0,1.5075,-8.728161E-06,22.6125,0
1.5084,7.888914E-05,22.626,0,1.5084,-1.678492E-06,22.626,0
1.5093,3.793393E-05,22.6395,0,1.5093,-5.304036E-05,22.6395,0
1.5102,1.577783E-05,22.653,0,1.5102,-6.814679E-05,22.653,0
1.5111,-4.766919E-05,22.6665,0,1.5111,-4.263371E-05,22.6665,0
1.512,-3.390555E-05,22.68,0,1.512,-1.074235E-05,22.68,0
1.5129,-1.007095E-06,22.6935,0,1.5129,3.054856E-05,22.6935,0
1.5138,-1.242084E-05,22.707,0,1.5138,2.920577E-05,22.707,0
1.5147,-2.18204E-05,22.7205,0,1.5147,5.001907E-05,22.7205,0
1.5156,-1.107805E-05,22.734,0,1.5156,7.318227E-05,22.734,0
1.5165,6.378271E-06,22.7475,0,1.5165,1.040665E-05,22.7475,0
1.5174,-1.577783E-05,22.761,0,1.5174,-2.652018E-05,22.761,0
1.5183,-4.33051E-05,22.7745,0,1.5183,-3.021286E-05,22.7745,0
1.5192,-4.800488E-05,22.788,0,1.5192,-4.061952E-05,22.788,0
1.5201,-3.289845E-05,22.8015,0,1.5201,-9.533837E-05,22.8015,0
1.521,-3.793393E-05,22.815,0,1.521,-5.505455E-05,22.815,0
1.5219,-5.337606E-05,22.8285,0,1.5219,6.713969E-07,22.8285,0
1.5228,-2.24918E-05,22.842,0,1.5228,-1.275654E-05,22.842,0
1.5237,5.001907E-05,22.8555,0,1.5237,3.692683E-06,22.8555,0
1.5246,4.599069E-05,22.869,0,1.5246,-1.577783E-05,22.869,0
1.5255,2.551309E-05,22.8825,0,1.5255,-5.001907E-05,22.8825,0
1.5264,1.443504E-05,22.896,0,1.5264,-2.685588E-05,22.896,0
1.5273,2.014191E-06,22.9095,0,1.5273,-1.644922E-05,22.9095,0
1.5282,-4.632639E-05,22.923,0,1.5282,-1.309224E-05,22.923,0
1.5291,-3.726253E-05,22.9365,0,1.5291,-2.047761E-05,22.9365,0
1.53,-8.056763E-06,22.95,0,1.53,-2.349889E-05,22.95,0
1.5309,-6.378271E-06,22.9635,0,1.5309,-3.155566E-05,22.9635,0
1.5318,-1.376364E-05,22.977,0,1.5318,-1.040665E-05,22.977,0
1.5327,3.826963E-05,22.9905,0,1.5327,-5.706874E-06,22.9905,0
1.5336,6.54612E-05,23.004,0,1.5336,-3.524834E-05,23.004,0
1.5345,-3.692683E-06,23.0175,0,1.5345,-1.980621E-05,23.0175,0
1.5354,-1.611353E-05,23.031,0,1.5354,1.846342E-05,23.031,0
1.5363,3.692683E-06,23.0445,0,1.5363,-4.028382E-06,23.0445,0
1.5372,-1.712062E-05,23.058,0,1.5372,-1.141375E-05,23.058,0
1.5381,-2.450599E-05,23.0715,0,1.5381,-1.107805E-05,23.0715,0
1.539,-1.275654E-05,23.085,0,1.539,-2.484169E-05,23.085,0
1.5399,-4.028382E-06,23.0985,0,1.5399,-9.735256E-06,23.0985,0
1.5408,-3.356985E-07,23.112,0,1.5408,-2.719158E-05,23.112,0
1.5417,-3.121996E-05,23.1255,0,1.5417,1.342794E-06,23.1255,0
1.5426,-2.014191E-05,23.139,0,1.5426,2.24918E-05,23.139,0
1.5435,-2.047761E-05,23.1525,0,1.5435,-4.53193E-05,23.1525,0
1.5444,-1.007095E-06,23.166,0,1.5444,-7.687495E-05,23.166,0
1.5453,1.242084E-05,23.1795,0,1.5453,-1.309224E-05,23.1795,0
1.5462,-2.517739E-05,23.193,0,1.5462,-2.584878E-05,23.193,0
1.5471,-2.719158E-05,23.2065,0,1.5471,-5.673304E-05,23.2065,0
1.548,-4.061952E-05,23.22,0,1.548,-2.887007E-05,23.22,0
1.5489,-3.726253E-05,23.2335,0,1.5489,-2.18204E-05,23.2335,0
1.5498,-8.728161E-06,23.247,0,1.5498,-3.457694E-05,23.247,0
1.5507,1.779202E-05,23.2605,0,1.5507,2.081331E-05,23.2605,0
1.5516,1.040665E-05,23.274,0,1.5516,7.116808E-05,23.274,0
1.5525,-1.644922E-05,23.2875,0,1.5525,3.256275E-05,23.2875,0
1.5534,-3.793393E-05,23.301,0,1.5534,-8.728161E-06,23.301,0
1.5543,-1.107805E-05,23.3145,0,1.5543,-3.927672E-05,23.3145,0
1.5552,1.577783E-05,23.328,0,1.5552,-2.484169E-05,23.328,0
1.5561,1.141375E-05,23.3415,0,1.5561,-1.779202E-05,23.3415,0
1.557,7.049668E-06,23.355,0,1.557,-5.673304E-05,23.355,0
1.5579,1.141375E-05,23.3685,0,1.5579,-7.855344E-05,23.3685,0
1.5588,-8.392462E-06,23.382,0,1.5588,-3.961242E-05,23.382,0
1.5597,-2.517739E-05,23.3955,0,1.5597,-4.36408E-06,23.3955,0
1.5606,-2.18204E-05,23.409,0,1.5606,-5.706874E-05,23.409,0
1.5615,-1.980621E-05,23.4225,0,1.5615,-1.443504E-05,23.4225,0
1.5624,-1.107805E-05,23.436,0,1.5624,1.040665E-05,23.436,0
1.5633,-2.685588E-06,23.4495,0,1.5633,-1.644922E-05,23.4495,0
1.5642,-2.047761E-05,23.463,0,1.5642,-2.652018E-05,23.463,0
1.5651,-2.18204E-05,23.4765,0,1.5651,-6.378271E-06,23.4765,0
1.566,7.385367E-06,23.49,0,1.566,-7.049668E-06,23.49,0
1.5669,1.544213E-05,23.5035,0,1.5669,-8.392462E-06,23.5035,0
1.5678,3.524834E-05,23.517,0,1.5678,-2.719158E-05,23.517,0
1.5687,-9.735256E-06,23.5305,0,1.5687,-2.920577E-05,23.5305,0
1.5696,-2.517739E-05,23.544,0,1.5696,3.692683E-06,23.544,0
1.5705,6.378271E-06,23.5575,0,1.5705,-1.242084E-05,23.5575,0
1.5714,2.383459E-05,23.571,0,1.5714,-3.692683E-06,23.571,0
1.5723,-3.021286E-05,23.5845,0,1.5723,-4.36408E-06,23.5845,0
1.5732,-2.752728E-05,23.598,0,1.5732,-2.887007E-05,23.598,0
1.5741,8.392462E-06,23.6115,0,1.5741,-5.404745E-05,23.6115,0
1.575,-2.316319E-05,23.625,0,1.575,-2.1149E-05,23.625,0
1.5759,2.584878E-05,23.6385,0,1.5759,6.713969E-07,23.6385,0
1.5768,3.155566E-05,23.652,0,1.5768,-5.035477E-05,23.652,0
1.5777,-1.712062E-05,23.6655,0,1.5777,-4.867628E-05,23.6655,0
1.5786,-1.007095E-06,23.679,0,1.5786,-3.021286E-06,23.679,0
1.5795,2.349889E-05,23.6925,0,1.5795,-1.644922E-05,23.6925,0
1.5804,-3.558404E-05,23.706,0,1.5804,-3.021286E-05,23.706,0
1.5813,-4.599069E-05,23.7195,0,1.5813,-4.53193E-05,23.7195,0
1.5822,-4.229801E-05,23.733,0,1.5822,-2.316319E-05,23.733,0
1.5831,-3.860533E-05,23.7465,0,1.5831,1.712062E-05,23.7465,0
1.584,-2.819867E-05,23.76,0,1.584,3.021286E-06,23.76,0
1.5849,7.721065E-06,23.7735,0,1.5849,-7.049668E-06,23.7735,0
1.5858,1.544213E-05,23.787,0,1.5858,2.652018E-05,23.787,0
1.5867,1.712062E-05,23.8005,0,1.5867,8.728161E-06,23.8005,0
1.5876,3.189136E-05,23.814,0,1.5876,-2.316319E-05,23.814,0
1.5885,7.049668E-06,23.8275,0,1.5885,-6.713969E-06,23.8275,0
1.5894,2.719158E-05,23.841,0,1.5894,7.721065E-06,23.841,0
1.5903,2.517739E-05,23.8545,0,1.5903,-2.047761E-05,23.8545,0
1.5912,-8.728161E-06,23.868,0,1.5912,-5.270466E-05,23.868,0
1.5921,-3.994812E-05,23.8815,0,1.5921,-2.752728E-05,23.8815,0
1.593,-1.007095E-06,23.895,0,1.593,-1.913481E-05,23.895,0
1.5939,1.107805E-05,23.9085,0,1.5939,-2.652018E-05,23.9085,0
1.5948,-1.342794E-06,23.922,0,1.5948,-4.867628E-05,23.922,0
1.5957,2.920577E-05,23.9355,0,1.5957,-2.24918E-05,23.9355,0
1.5966,3.692683E-06,23.949,0,1.5966,-1.644922E-05,23.949,0
1.5975,-3.558404E-05,23.9625,0,1.5975,-3.256275E-05,23.9625,0
1.5984,-2.450599E-05,23.976,0,1.5984,-4.867628E-05,23.976,0
1.5993,-9.735256E-06,23.9895,0,1.5993,-1.342794E-06,23.9895,0
1.6002,-1.040665E-05,24.003,0,1.6002,-8.728161E-06,24.003,0
1.6011,-1.040665E-05,24.0165,0,1.6011,-4.666209E-05,24.0165,0
1.602,-3.625543E-05,24.03,0,1.602,-9.063859E-06,24.03,0
1.6029,-1.712062E-05,24.0435,0,1.6029,7.385367E-06,24.0435,0
1.6038,-3.692683E-06,24.057,0,1.6038,-2.652018E-05,24.057,0
1.6047,-3.726253E-05,24.0705,0,1.6047,-4.028382E-06,24.0705,0
1.6056,-3.726253E-05,24.084,0,1.6056,9.399558E-06,24.084,0
1.6065,-4.33051E-05,24.0975,0,1.6065,-1.376364E-05,24.0975,0
1.6074,-1.510643E-05,24.111,0,1.6074,-3.356985E-06,24.111,0
1.6083,5.337606E-05,24.1245,0,1.6083,-3.323415E-05,24.1245,0
1.6092,2.719158E-05,24.138,0,1.6092,-3.323415E-05,24.138,0
1.6101,-2.853437E-05,24.1515,0,1.6101,-2.584878E-05,24.1515,0
1.611,-2.584878E-05,24.165,0,1.611,-4.196231E-05,24.165,0
1.6119,-1.544213E-05,24.1785,0,1.6119,-5.404745E-05,24.1785,0
1.6128,-5.706874E-06,24.192,0,1.6128,7.721065E-06,24.192,0
1.6137,1.309224E-05,24.2055,0,1.6137,3.994812E-05,24.2055,0
1.6146,3.457694E-05,24.219,0,1.6146,-1.309224E-05,24.219,0
1.6155,-1.510643E-05,24.2325,0,1.6155,2.349889E-06,24.2325,0
1.6164,-7.721065E-06,24.246,0,1.6164,-1.107805E-05,24.246,0
1.6173,3.692683E-06,24.2595,0,1.6173,-6.478981E-05,24.2595,0
1.6182,2.21561E-05,24.273,0,1.6182,-7.486076E-05,24.273,0
1.6191,-1.040665E-05,24.2865,0,1.6191,-3.692683E-05,24.2865,0
1.62,-2.349889E-05,24.3,0,1.62,-3.323415E-05,24.3,0
1.6209,-4.43122E-05,24.3135,0,1.6209,-6.378271E-06,24.3135,0
1.6218,-2.752728E-05,24.327,0,1.6218,6.042573E-06,24.327,0
1.6227,3.692683E-06,24.3405,0,1.6227,-1.678492E-06,24.3405,0
1.6236,1.409934E-05,24.354,0,1.6236,1.779202E-05,24.354,0
1.6245,2.719158E-05,24.3675,0,1.6245,-2.28275E-05,24.3675,0
1.6254,1.007095E-05,24.381,0,1.6254,-5.505455E-05,24.381,0
1.6263,7.721065E-06,24.3945,0,1.6263,-1.712062E-05,24.3945,0
1.6272,5.706874E-06,24.408,0,1.6272,-1.275654E-05,24.408,0
1.6281,-1.443504E-05,24.4215,0,1.6281,-3.121996E-05,24.4215,0
1.629,-3.860533E-05,24.435,0,1.629,-1.678492E-06,24.435,0
1.6299,-1.812772E-05,24.4485,0,1.6299,2.652018E-05,24.4485,0
1.6308,1.644922E-05,24.462,0,1.6308,-3.692683E-06,24.462,0
1.6317,2.517739E-05,24.4755,0,1.6317,-1.745632E-05,24.4755,0
1.6326,-2.450599E-05,24.489,0,1.6326,-2.920577E-05,24.489,0
1.6335,-1.544213E-05,24.5025,0,1.6335,-3.424125E-05,24.5025,0
1.6344,9.399558E-06,24.516,0,1.6344,-1.107805E-05,24.516,0
1.6353,2.584878E-05,24.5295,0,1.6353,-2.047761E-05,24.5295,0
1.6362,-7.721065E-06,24.543,0,1.6362,-5.035477E-06,24.543,0
1.6371,-4.901198E-05,24.5565,0,1.6371,-4.36408E-06,24.5565,0
1.638,-4.196231E-05,24.57,0,1.638,-3.692683E-05,24.57,0
1.6389,-5.471885E-05,24.5835,0,1.6389,-4.53193E-05,24.5835,0
1.6398,-4.901198E-05,24.597,0,1.6398,-1.510643E-05,24.597,0
1.6407,-2.853437E-05,24.6105,0,1.6407,-1.376364E-05,24.6105,0
1.6416,2.383459E-05,24.624,0,1.6416,-2.18204E-05,24.624,0
1.6425,-9.399558E-06,24.6375,0,1.6425,-9.735256E-06,24.6375,0
1.6434,6.713969E-07,24.651,0,1.6434,1.409934E-05,24.651,0
1.6443,1.040665E-05,24.6645,0,1.6443,-3.726253E-05,24.6645,0
1.6452,-6.713969E-06,24.678,0,1.6452,-5.807584E-05,24.678,0
1.6461,-2.719158E-05,24.6915,0,1.6461,-1.644922E-05,24.6915,0
1.647,-2.987716E-05,24.705,0,1.647,-1.544213E-05,24.705,0
1.6479,-2.1149E-05,24.7185,0,1.6479,-6.378271E-06,24.7185,0
1.6488,1.208515E-05,24.732,0,1.6488,-1.342794E-06,24.732,0
1.6497,1.107805E-05,24.7455,0,1.6497,4.36408E-06,24.7455,0
1.6506,-4.46479E-05,24.759,0,1.6506,-2.786297E-05,24.759,0
1.6515,-3.356985E-07,24.7725,0,1.6515,-2.819867E-05,24.7725,0
1.6524,3.692683E-06,24.786,0,1.6524,-4.46479E-05,24.786,0
1.6533,-1.678492E-05,24.7995,0,1.6533,-2.719158E-05,24.7995,0
1.6542,3.356985E-07,24.813,0,1.6542,-2.21561E-05,24.813,0
1.6551,2.1149E-05,24.8265,0,1.6551,-4.599069E-05,24.8265,0
1.656,1.678492E-06,24.84,0,1.656,-4.36408E-06,24.84,0
1.6569,1.007095E-06,24.8535,0,1.6569,-4.36408E-06,24.8535,0
1.6578,-1.342794E-06,24.867,0,1.6578,-4.800488E-05,24.867,0
1.6587,-3.726253E-05,24.8805,0,1.6587,-3.289845E-05,24.8805,0
1.6596,-2.1149E-05,24.894,0,1.6596,5.035477E-06,24.894,0
1.6605,-4.699779E-06,24.9075,0,1.6605,-1.409934E-05,24.9075,0
1.6614,-8.392462E-06,24.921,0,1.6614,-9.735256E-06,24.921,0
1.6623,8.392462E-06,24.9345,0,1.6623,-1.040665E-05,24.9345,0
1.6632,-2.685588E-06,24.948,0,1.6632,-7.049668E-06,24.948,0
1.6641,-3.591974E-05,24.9615,0,1.6641,-1.879912E-05,24.9615,0
1.665,-3.390555E-05,24.975,0,1.665,-3.021286E-05,24.975,0
1.6659,2.1149E-05,24.9885,0,1.6659,-5.236896E-05,24.9885,0
1.6668,6.042573E-05,25.002,0,1.6668,-1.242084E-05,25.002,0
1.6677,3.021286E-06,25.0155,0,1.6677,-1.745632E-05,25.0155,0
1.6686,-1.980621E-05,25.029,0,1.6686,-5.975433E-05,25.029,0
1.6695,5.035477E-06,25.0425,0,1.6695,-1.309224E-05,25.0425,0
1.6704,-3.692683E-06,25.056,0,1.6704,5.371176E-06,25.056,0
1.6713,-6.378271E-06,25.0695,0,1.6713,-1.544213E-05,25.0695,0
1.6722,2.719158E-05,25.083,0,1.6722,-2.517739E-05,25.083,0
1.6731,-9.735256E-06,25.0965,0,1.6731,-1.242084E-05,25.0965,0
1.674,3.692683E-06,25.11,0,1.674,-1.174945E-05,25.11,0
1.6749,1.678492E-05,25.1235,0,1.6749,8.392462E-06,25.1235,0
1.6758,3.793393E-05,25.137,0,1.6758,9.063859E-06,25.137,0
1.6767,-1.242084E-05,25.1505,0,1.6767,2.584878E-05,25.1505,0
1.6776,-4.36408E-05,25.164,0,1.6776,1.779202E-05,25.164,0
1.6785,-1.577783E-05,25.1775,0,1.6785,-3.994812E-05,25.1775,0
1.6794,-2.484169E-05,25.191,0,1.6794,-6.009003E-05,25.191,0
1.6803,-4.36408E-05,25.2045,0,1.6803,-5.136187E-05,25.2045,0
1.6812,1.678492E-06,25.218,0,1.6812,-4.061952E-05,25.218,0
1.6821,4.129091E-05,25.2315,0,1.6821,-5.908293E-05,25.2315,0
1.683,1.712062E-05,25.245,0,1.683,-1.443504E-05,25.245,0
1.6839,2.853437E-05,25.2585,0,1.6839,9.735256E-06,25.2585,0
1.6848,2.517739E-05,25.272,0,1.6848,-2.920577E-05,25.272,0
1.6857,-4.36408E-06,25.2855,0,1.6857,-3.121996E-05,25.2855,0
1.6866,-3.021286E-05,25.299,0,1.6866,6.713969E-07,25.299,0
1.6875,-3.256275E-05,25.3125,0,1.6875,-7.721065E-06,25.3125,0
1.6884,-7.385367E-06,25.326,0,1.6884,-2.014191E-06,25.326,0
1.6893,-1.342794E-06,25.3395,0,1.6893,-2.28275E-05,25.3395,0
1.6902,-2.450599E-05,25.353,0,1.6902,-1.477073E-05,25.353,0
1.6911,-5.136187E-05,25.3665,0,1.6911,1.577783E-05,25.3665,0
1.692,-3.860533E-05,25.38,0,1.692,-9.063859E-06,25.38,0
1.6929,-4.632639E-05,25.3935,0,1.6929,-4.46479E-05,25.3935,0
1.6938,-4.53193E-05,25.407,0,1.6938,5.035477E-06,25.407,0
1.6947,6.713969E-07,25.4205,0,1.6947,1.174945E-05,25.4205,0
1.6956,3.189136E-05,25.434,0,1.6956,-1.242084E-05,25.434,0
1.6965,-2.819867E-05,25.4475,0,1.6965,-1.443504E-05,25.4475,0
1.6974,-2.383459E-05,25.461,0,1.6974,-1.309224E-05,25.461,0
1.6983,-1.007095E-06,25.4745,0,1.6983,-3.457694E-05,25.4745,0
1.6992,-1.342794E-05,25.488,0,1.6992,-5.874724E-05,25.488,0
1.7001,-2.316319E-05,25.5015,0,1.7001,-2.786297E-05,25.5015,0
1.701,-8.728161E-06,25.515,0,1.701,-3.189136E-05,25.515,0
1.7019,2.081331E-05,25.5285,0,1.7019,-4.196231E-05,25.5285,0
1.7028,3.591974E-05,25.542,0,1.7028,-5.203327E-05,25.542,0
1.7037,3.860533E-05,25.5555,0,1.7037,-2.752728E-05,25.5555,0
1.7046,9.063859E-06,25.569,0,1.7046,-1.879912E-05,25.569,0
1.7055,-4.061952E-05,25.5825,0,1.7055,-1.913481E-05,25.5825,0
1.7064,-2.887007E-05,25.596,0,1.7064,-2.047761E-05,25.596,0
1.7073,-2.450599E-05,25.6095,0,1.7073,6.713969E-06,25.6095,0
1.7082,-3.424125E-05,25.623,0,1.7082,-3.054856E-05,25.623,0
1.7091,1.040665E-05,25.6365,0,1.7091,-5.438316E-05,25.6365,0
1.71,9.063859E-06,25.65,0,1.71,-1.141375E-05,25.65,0
1.7109,-1.913481E-05,25.6635,0,1.7109,2.920577E-05,25.6635,0
1.7118,-5.706874E-06,25.677,0,1.7118,2.014191E-05,25.677,0
1.7127,-4.36408E-06,25.6905,0,1.7127,-1.678492E-06,25.6905,0
1.7136,-8.392462E-06,25.704,0,1.7136,9.735256E-06,25.704,0
1.7145,-2.584878E-05,25.7175,0,1.7145,-4.36408E-06,25.7175,0
1.7154,-1.409934E-05,25.731,0,1.7154,-2.014191E-06,25.731,0
1.7163,4.028382E-06,25.7445,0,1.7163,-2.047761E-05,25.7445,0
1.7172,-1.107805E-05,25.758,0,1.7172,7.385367E-06,25.758,0
1.7181,-2.819867E-05,25.7715,0,1.7181,2.349889E-06,25.7715,0
1.719,-3.860533E-05,25.785,0,1.719,-3.591974E-05,25.785,0
1.7199,-3.659113E-05,25.7985,0,1.7199,-7.486076E-05,25.7985,0
1.7208,-4.196231E-05,25.812,0,1.7208,-8.89601E-05,25.812,0
1.7217,5.035477E-06,25.8255,0,1.7217,-8.526741E-05,25.8255,0
1.7226,4.196231E-05,25.839,0,1.7226,-7.721065E-05,25.839,0
1.7235,-1.242084E-05,25.8525,0,1.7235,9.063859E-06,25.8525,0
1.7244,-6.378271E-06,25.866,0,1.7244,8.82887E-05,25.866,0
1.7253,1.779202E-05,25.8795,0,1.7253,5.505455E-05,25.8795,0
1.7262,2.920577E-05,25.893,0,1.7262,1.174945E-05,25.893,0
1.7271,7.385367E-06,25.9065,0,1.7271,1.577783E-05,25.9065,0
1.728,3.021286E-06,25.92,0,1.728,5.706874E-06,25.92,0
1.7289,-1.678492E-06,25.9335,0,1.7289,-6.713969E-06,25.9335,0
1.7298,7.721065E-06,25.947,0,1.7298,-2.853437E-05,25.947,0
1.7307,-1.342794E-06,25.9605,0,1.7307,-3.793393E-05,25.9605,0
1.7316,-4.733349E-05,25.974,0,1.7316,-4.061952E-05,25.974,0
1.7325,-2.887007E-05,25.9875,0,1.7325,-8.023193E-05,25.9875,0
1.7334,6.713969E-06,26.001,0,1.7334,-6.143282E-05,26.001,0
1.7343,3.692683E-06,26.0145,0,1.7343,1.577783E-05,26.0145,0
1.7352,2.349889E-06,26.028,0,1.7352,3.558404E-05,26.028,0
1.7361,-3.390555E-05,26.0415,0,1.7361,-5.941863E-05,26.0415,0
1.737,-3.927672E-05,26.055,0,1.737,-4.061952E-05,26.055,0
1.7379,-2.920577E-05,26.0685,0,1.7379,-5.035477E-06,26.0685,0
1.7388,-2.786297E-05,26.082,0,1.7388,-4.36408E-05,26.082,0
1.7397,2.014191E-05,26.0955,0,1.7397,-3.021286E-05,26.0955,0
1.7406,2.1149E-05,26.109,0,1.7406,-3.021286E-06,26.109,0
1.7415,2.349889E-05,26.1225,0,1.7415,-2.853437E-05,26.1225,0
1.7424,5.606165E-05,26.136,0,1.7424,-2.18204E-05,26.136,0
1.7433,4.666209E-05,26.1495,0,1.7433,-2.584878E-05,26.1495,0
1.7442,1.779202E-05,26.163,0,1.7442,-4.699779E-06,26.163,0
1.7451,3.088426E-05,26.1765,0,1.7451,1.577783E-05,26.1765,0
1.746,1.712062E-05,26.19,0,1.746,-2.316319E-05,26.19,0
1.7469,-2.349889E-05,26.2035,0,1.7469,-4.666209E-05,26.2035,0
1.7478,-1.040665E-05,26.217,0,1.7478,-2.349889E-06,26.217,0
1.7487,2.987716E-05,26.2305,0,1.7487,-1.678492E-05,26.2305,0
1.7496,1.174945E-05,26.244,0,1.7496,-4.666209E-05,26.244,0
1.7505,-2.014191E-05,26.2575,0,1.7505,-7.049668E-06,26.2575,0
1.7514,-4.263371E-05,26.271,0,1.7514,-1.678492E-06,26.271,0
1.7523,-4.800488E-05,26.2845,0,1.7523,-5.337606E-05,26.2845,0
1.7532,-2.652018E-05,26.298,0,1.7532,-3.457694E-05,26.298,0
1.7541,-2.853437E-05,26.3115,0,1.7541,-1.007095E-06,26.3115,0
1.755,-3.390555E-05,26.325,0,1.755,-1.040665E-05,26.325,0
1.7559,-4.599069E-05,26.3385,0,1.7559,-2.18204E-05,26.3385,0
1.7568,-1.947051E-05,26.352,0,1.7568,-3.289845E-05,26.352,0
1.7577,-3.289845E-05,26.3655,0,1.7577,-8.392462E-06,26.3655,0
1.7586,-6.009003E-05,26.379,0,1.7586,3.356985E-06,26.379,0
1.7595,-4.129091E-05,26.3925,0,1.7595,-1.510643E-05,26.3925,0
1.7604,-2.853437E-05,26.406,0,1.7604,-3.189136E-05,26.406,0
1.7613,-2.719158E-05,26.4195,0,1.7613,1.074235E-05,26.4195,0
1.7622,2.28275E-05,26.433,0,1.7622,6.378271E-06,26.433,0
1.7631,3.927672E-05,26.4465,0,1.7631,-2.517739E-05,26.4465,0
1.764,1.040665E-05,26.46,0,1.764,-9.063859E-06,26.46,0
1.7649,3.356985E-05,26.4735,0,1.7649,-1.007095E-06,26.4735,0
1.7658,3.591974E-05,26.487,0,1.7658,-2.752728E-05,26.487,0
1.7667,6.378271E-06,26.5005,0,1.7667,-3.457694E-05,26.5005,0
1.7676,-3.356985E-07,26.514,0,1.7676,-2.014191E-06,26.514,0
1.7685,5.639734E-05,26.5275,0,1.7685,-6.378271E-06,26.5275,0
1.7694,5.807584E-05,26.541,0,1.7694,-7.385367E-06,26.541,0
1.7703,-3.424125E-05,26.5545,0,1.7703,-5.404745E-05,26.5545,0
1.7712,-2.18204E-05,26.568,0,1.7712,-4.46479E-05,26.568,0
1.7721,-4.36408E-06,26.5815,0,1.7721,-8.728161E-06,26.5815,0
1.773,-4.061952E-05,26.595,0,1.773,-1.577783E-05,26.595,0
1.7739,-3.491264E-05,26.6085,0,1.7739,-5.136187E-05,26.6085,0
1.7748,-1.007095E-05,26.622,0,1.7748,-9.735256E-06,26.622,0
1.7757,-1.644922E-05,26.6355,0,1.7757,-1.242084E-05,26.6355,0
1.7766,3.021286E-06,26.649,0,1.7766,-6.076142E-05,26.649,0
1.7775,-5.706874E-06,26.6625,0,1.7775,-8.056763E-06,26.6625,0
1.7784,-4.43122E-05,26.676,0,1.7784,-4.028382E-06,26.676,0
1.7793,-3.424125E-05,26.6895,0,1.7793,-4.33051E-05,26.6895,0
1.7802,1.577783E-05,26.703,0,1.7802,-3.390555E-05,26.703,0
1.7811,-2.719158E-05,26.7165,0,1.7811,-7.721065E-06,26.7165,0
1.782,-4.129091E-05,26.73,0,1.782,-1.779202E-05,26.73,0
1.7829,-2.316319E-05,26.7435,0,1.7829,-2.551309E-05,26.7435,0
1.7838,-8.392462E-06,26.757,0,1.7838,-4.33051E-05,26.757,0
1.7847,-8.392462E-06,26.7705,0,1.7847,-1.846342E-05,26.7705,0
1.7856,7.049668E-06,26.784,0,1.7856,1.577783E-05,26.784,0
1.7865,-1.510643E-05,26.7975,0,1.7865,-1.174945E-05,26.7975,0
1.7874,-2.18204E-05,26.811,0,1.7874,-4.36408E-05,26.811,0
1.7883,-1.007095E-06,26.8245,0,1.7883,-1.342794E-06,26.8245,0
1.7892,2.652018E-05,26.838,0,1.7892,-1.107805E-05,26.838,0
1.7901,2.24918E-05,26.8515,0,1.7901,-4.46479E-05,26.8515,0
1.791,-8.728161E-06,26.865,0,1.791,-1.577783E-05,26.865,0
1.7919,-6.042573E-06,26.8785,0,1.7919,-1.779202E-05,26.8785,0
1.7928,-2.987716E-05,26.892,0,1.7928,-3.994812E-05,26.892,0
1.7937,-4.49836E-05,26.9055,0,1.7937,-1.846342E-05,26.9055,0
1.7946,-4.061952E-05,26.919,0,1.7946,1.644922E-05,26.919,0
1.7955,-3.256275E-05,26.9325,0,1.7955,-9.063859E-06,26.9325,0
1.7964,-2.450599E-05,26.946,0,1.7964,-1.376364E-05,26.946,0
1.7973,3.692683E-06,26.9595,0,1.7973,-1.477073E-05,26.9595,0
1.7982,4.36408E-06,26.973,0,1.7982,5.706874E-06,26.973,0
1.7991,3.524834E-05,26.9865,0,1.7991,1.980621E-05,26.9865,0
1.8,2.24918E-05,27,0,1.8,-1.242084E-05,27,0
1.8009,2.349889E-06,27.0135,0,1.8009,-2.987716E-05,27.0135,0
1.8018,-2.450599E-05,27.027,0,1.8018,0,27.027,0
1.8027,-2.316319E-05,27.0405,0,1.8027,-1.477073E-05,27.0405,0
1.8036,-3.356985E-06,27.054,0,1.8036,-4.565499E-05,27.054,0
1.8045,-2.719158E-05,27.0675,0,1.8045,-2.047761E-05,27.0675,0
1.8054,-3.390555E-05,27.081,0,1.8054,-2.28275E-05,27.081,0
1.8063,2.786297E-05,27.0945,0,1.8063,-5.606165E-05,27.0945,0
1.8072,2.786297E-05,27.108,0,1.8072,-5.774014E-05,27.108,0
1.8081,3.121996E-05,27.1215,0,1.8081,-1.846342E-05,27.1215,0
1.809,4.867628E-05,27.135,0,1.809,-2.14847E-05,27.135,0
1.8099,5.539025E-05,27.1485,0,1.8099,-2.316319E-05,27.1485,0
1.8108,2.887007E-05,27.162,0,1.8108,-3.189136E-05,27.162,0
1.8117,2.24918E-05,27.1755,0,1.8117,-1.779202E-05,27.1755,0
1.8126,9.063859E-06,27.189,0,1.8126,-2.349889E-06,27.189,0
1.8135,-2.21561E-05,27.2025,0,1.8135,-8.728161E-06,27.2025,0
1.8144,-4.33051E-05,27.216,0,1.8144,-4.196231E-05,27.216,0
1.8153,-5.740444E-05,27.2295,0,1.8153,-1.376364E-05,27.2295,0
1.8162,-3.659113E-05,27.243,0,1.8162,-2.719158E-05,27.243,0
