X[s],"Trigno IM sensor 3: EMG 3 (IM)",X[s],"Trigno IM sensor 3: Mag 3.Z (IM)",X[s],"Trigno IM sensor 4: EMG 4 (IM)",X[s],"Trigno IM sensor 4: Mag 4.Z (IM)"
0.000000,-1.040665E-05,0.000000,124,0.000000,1.242084E-05,0.000000,-4
0.0009,-6.948959E-05,0.0135,123,0.0009,3.524834E-05,0.0135,-2
0.0018,-5.975433E-05,0.027,124,0.0018,2.1149E-05,0.027,-2
0.0027,3.927672E-05,0.0405,124,0.0027,3.692683E-06,0.0405,-4
0.0036,0.0001574426,0.054,123,0.0036,-1.107805E-05,0.054,-3
0.0045,0.0003138781,0.0675,124,0.0045,1.242084E-05,0.0675,-2
0.0054,0.0004881056,0.081,122,0.0054,-1.980621E-05,0.081,-5
0.0063,0.0003078355,0.0945,123,0.0063,-2.887007E-05,0.0945,-2
0.0072,-3.793393E-05,0.108,124,0.0072,-4.129091E-05,0.108,-4
0.0081,-0.0001789273,0.1215,123,0.0081,-7.418937E-05,0.1215,-5
0.009000001,-0.0002984359,0.135,123,0.009000001,-5.572595E-05,0.135,-1
0.0099,-0.0005196612,0.1485,123,0.0099,-2.719158E-05,0.1485,-5
0.0108,-0.0004377508,0.162,123,0.0108,-5.404745E-05,0.162,-4
0.0117,-0.0001534142,0.1755,123,0.0117,-8.69459E-05,0.1755,-1
0.0126,-9.500267E-05,0.189,122,0.0126,-8.426032E-05,0.189,-1
0.0135,-2.21561E-05,0.2025,123,0.0135,-9.701686E-05,0.2025,-4
0.0144,1.678492E-06,0.216,122,0.0144,-7.385367E-05,0.216,-2
0.0153,-4.36408E-06,0.2295,123,0.0153,-2.920577E-05,0.2295,-2
0.0162,7.284657E-05,0.243,124,0.0162,9.735256E-06,0.243,-5
0.0171,4.800488E-05,0.2565,125,0.0171,3.927672E-05,0.2565,-6
0.018,-5.673304E-05,0.27,122,0.018,2.349889E-05,0.27,-2
0.0189,-3.793393E-05,0.2835,125,0.0189,-3.927672E-05,0.2835,-3
0.0198,-1.678492E-06,0.297,122,0.0198,-4.33051E-05,0.297,-2
0.0207,-2.014191E-05,0.3105,124,0.0207,-3.692683E-05,0.3105,-4
0.0216,0.0001198444,0.324,123,0.0216,-3.625543E-05,0.324,-3
0.0225,0.0002010834,0.3375,123,0.0225,-3.659113E-05,0.3375,-3
0.0234,0.0002537881,0.351,123,0.0234,-2.24918E-05,0.351,-1
0.0243,0.0001977264,0.3645,123,0.0243,-5.706874E-06,0.3645,0
0.0252,6.915389E-05,0.378,123,0.0252,-2.652018E-05,0.378,-2
0.0261,-0.0001064164,0.3915,123,0.0261,-7.049668E-06,0.3915,-5
0.027,-0.000197055,0.405,124,0.027,2.752728E-05,0.405,-1
0.0279,-0.0002601663,0.4185,123,0.0279,2.517739E-05,0.4185,-3
0.0288,-0.0001221943,0.432,122,0.0288,4.263371E-05,0.432,-3
0.0297,-6.042573E-06,0.4455,123,0.0297,2.786297E-05,0.4455,-1
0.0306,1.678492E-05,0.459,122,0.0306,6.378271E-06,0.459,-1
0.0315,7.318227E-05,0.4725,122,0.0315,-1.812772E-05,0.4725,0
0.0324,4.095522E-05,0.486,123,0.0324,-5.136187E-05,0.486,-3
0.0333,1.477073E-05,0.4995,122,0.0333,-1.947051E-05,0.4995,0
0.0342,-4.36408E-06,0.513,123,0.0342,-1.409934E-05,0.513,-4
0.0351,-5.001907E-05,0.5265,123,0.0351,-6.344701E-05,0.5265,-3
0.036,1.174945E-05,0.54,123,0.036,-2.349889E-05,0.54,-3
0.0369,0.0001393149,0.5535,122,0.0369,1.342794E-06,0.5535,0
0.0378,7.888914E-05,0.567,122,0.0378,-4.733349E-05,0.567,-3
0.0387,-7.049668E-06,0.5805,123,0.0387,-2.450599E-05,0.5805,0
0.0396,-7.351797E-05,0.594,122,0.0396,2.517739E-05,0.594,-4
0.0405,-0.0002111543,0.6075,122,0.0405,1.242084E-05,0.6075,-4
0.0414,-0.0001349508,0.621,123,0.0414,-7.083238E-05,0.621,0
0.0423,5.035477E-06,0.6345,122,0.0423,-0.0001386435,0.6345,-1
0.0432,1.913481E-05,0.648,123,0.0432,-0.0001121233,0.648,-2
0.0441,1.107805E-05,0.6615,123,0.0441,-6.411841E-05,0.6615,-4
0.045,3.121996E-05,0.675,122,0.045,-3.860533E-05,0.675,1
0.0459,1.846342E-05,0.6885,123,0.0459,-1.342794E-06,0.6885,-1
0.0468,-4.800488E-05,0.702,122,0.0468,7.150377E-05,0.702,-1
0.0477,-1.174945E-05,0.7155,124,0.0477,9.164568E-05,0.7155,-1
0.0486,1.376364E-05,0.729,124,0.0486,-2.349889E-05,0.729,-1
0.0495,-9.063859E-06,0.7425,123,0.0495,-8.459602E-05,0.7425,-1
0.0504,6.411841E-05,0.756,122,0.0504,-9.634547E-05,0.756,-2
0.0513,8.560311E-05,0.7695,123,0.0513,-0.0001077592,0.7695,-1
0.0522,8.560311E-05,0.783,123,0.0522,-7.888914E-05,0.783,-1
0.0531,6.848249E-05,0.7965,121,0.0531,1.309224E-05,0.7965,-1
0.054,4.565499E-05,0.81,123,0.054,4.061952E-05,0.81,-3
0.0549,-4.867628E-05,0.8235,121,0.0549,7.318227E-05,0.8235,0
0.0558,-9.567407E-05,0.837,123,0.0558,4.229801E-05,0.837,0
0.0567,-2.719158E-05,0.8505,123,0.0567,8.224613E-05,0.8505,-1
0.0576,-2.517739E-05,0.864,124,0.0576,9.634547E-05,0.864,-3
0.0585,-4.196231E-05,0.8775,123,0.0585,3.189136E-05,0.8775,-1
0.0594,-8.056763E-06,0.891,124,0.0594,4.699779E-06,0.891,-4
0.0603,-1.644922E-05,0.9045,123,0.0603,1.779202E-05,0.9045,-1
0.0612,5.706874E-06,0.918,123,0.0612,-7.721065E-06,0.918,-4
0.0621,2.383459E-05,0.9315,123,0.0621,-5.270466E-05,0.9315,-1
0.063,2.047761E-05,0.945,124,0.063,-5.706874E-06,0.945,-1
0.0639,-1.007095E-06,0.9585,123,0.0639,1.275654E-05,0.9585,-1
0.0648,6.076142E-05,0.972,123,0.0648,-5.136187E-05,0.972,-3
0.0657,8.96315E-05,0.9855,122,0.0657,-0.0001339437,0.9855,-3
0.0666,6.210422E-05,0.999,121,0.0666,-0.0001238727,0.999,-2
0.0675,8.560311E-05,1.0125,121,0.0675,-7.318227E-05,1.0125,-4
0.0684,5.337606E-05,1.026,121,0.0684,-3.189136E-05,1.026,-3
0.0693,6.814679E-05,1.0395,121,0.0693,-5.673304E-05,1.0395,-2
0.0702,4.263371E-05,1.053,122,0.0702,-1.779202E-05,1.053,-3
0.0711,0.0001604639,1.0665,121,0.0711,4.129091E-05,1.0665,-1
0.072,-1.141375E-05,1.08,120,0.072,6.009003E-05,1.08,-3
0.0729,-0.0002299535,1.0935,120,0.0729,2.920577E-05,1.0935,-2
0.07380001,-0.000203769,1.107,120,0.07380001,5.304036E-05,1.107,-2
0.07470001,-0.0001977264,1.1205,119,0.07470001,3.222705E-05,1.1205,-7
0.0756,-0.0002225681,1.134,120,0.0756,-4.39765E-05,1.134,-4
0.0765,-0.0002010834,1.1475,122,0.0765,-3.323415E-05,1.1475,-8
0.0774,-0.0001010452,1.161,120,0.0774,-3.256275E-05,1.161,-6
0.0783,-5.371176E-05,1.1745,121,0.0783,-4.46479E-05,1.1745,-7
0.0792,-7.049668E-06,1.188,120,0.0792,-1.107805E-05,1.188,-7
0.0801,-4.36408E-06,1.2015,121,0.0801,7.049668E-06,1.2015,-2
0.081,-3.726253E-05,1.215,119,0.081,-1.913481E-05,1.215,-6
0.0819,2.349889E-06,1.2285,119,0.0819,-5.471885E-05,1.2285,-3
0.0828,4.061952E-05,1.242,120,0.0828,-8.459602E-05,1.242,-6
0.0837,0.000102388,1.2555,120,0.0837,-6.948959E-05,1.2555,-4
0.0846,0.0001440146,1.269,120,0.0846,-8.493171E-05,1.269,-3
0.0855,0.000112459,1.2825,121,0.0855,-0.0001329366,1.2825,-5
0.0864,8.661021E-05,1.296,120,0.0864,-0.0001399863,1.296,-2
0.0873,8.023193E-05,1.3095,120,0.0873,-5.337606E-05,1.3095,-5
0.0882,1.510643E-05,1.323,121,0.0882,3.356985E-07,1.323,-2
0.0891,-8.526741E-05,1.3365,120,0.0891,-1.678492E-06,1.3365,-2
0.09,-5.136187E-05,1.35,119,0.09,9.903105E-05,1.35,-4
0.0909,-4.33051E-05,1.3635,119,0.0909,0.000109102,1.3635,-1
0.0918,-0.000105745,1.377,120,0.0918,4.263371E-05,1.377,-4
0.0927,-0.0001514,1.3905,121,0.0927,1.107805E-05,1.3905,-1
0.0936,-1.309224E-05,1.404,120,0.0936,1.712062E-05,1.404,-5
0.09450001,0.0001836271,1.4175,120,0.09450001,-1.007095E-06,1.4175,-3
0.09540001,0.0001426719,1.431,121,0.09540001,-3.591974E-05,1.431,-4
0.09630001,6.076142E-05,1.4445,120,0.09630001,-2.584878E-05,1.4445,-4
0.0972,1.309224E-05,1.458,120,0.0972,-1.510643E-05,1.458,-2
0.0981,-2.551309E-05,1.4715,119,0.0981,-2.484169E-05,1.4715,0
0.099,-0.0001641566,1.485,120,0.099,-5.807584E-05,1.485,-2
0.0999,-0.0001571069,1.4985,121,0.0999,-4.666209E-05,1.4985,-2
0.1008,-0.0001003738,1.512,120,0.1008,-1.678492E-06,1.512,0
0.1017,-9.399558E-06,1.5255,119,0.1017,-2.618448E-05,1.5255,-4
0.1026,3.155566E-05,1.539,120,0.1026,-6.076142E-05,1.539,0
0.1035,7.049668E-06,1.5525,120,0.1035,-3.356985E-07,1.5525,-2
0.1044,-1.678492E-06,1.566,119,0.1044,7.721065E-06,1.566,-3
0.1053,-6.881819E-05,1.5795,122,0.1053,-3.524834E-05,1.5795,-3
0.1062,-0.000172549,1.593,120,0.1062,-3.759823E-05,1.593,-3
0.1071,-5.539025E-05,1.6065,120,0.1071,-2.18204E-05,1.6065,0
0.108,-1.040665E-05,1.62,119,0.108,0,1.62,0
0.1089,1.846342E-05,1.6335,120,0.1089,-2.18204E-05,1.6335,-2
0.1098,5.304036E-05,1.647,120,0.1098,-9.030289E-05,1.647,-5
0.1107,9.634547E-05,1.6605,120,0.1107,-7.049668E-05,1.6605,-1
0.1116,0.0001299153,1.674,119,0.1116,-2.450599E-05,1.674,-1
0.1125,8.157473E-05,1.6875,120,0.1125,-3.860533E-05,1.6875,-3
0.1134,-3.121996E-05,1.701,119,0.1134,-5.941863E-05,1.701,-5
0.1143,-3.021286E-06,1.7145,120,0.1143,2.24918E-05,1.7145,-1
0.1152,-2.24918E-05,1.728,121,0.1152,6.478981E-05,1.728,-3
0.1161,-1.980621E-05,1.7415,120,0.1161,3.826963E-05,1.7415,-3
0.117,-6.411841E-05,1.755,120,0.117,6.948959E-05,1.755,-6
0.1179,-6.344701E-05,1.7685,120,0.1179,5.035477E-05,1.7685,-1
0.1188,-3.692683E-06,1.782,119,0.1188,-6.51255E-05,1.782,-5
0.1197,5.606165E-05,1.7955,120,0.1197,-8.795301E-05,1.7955,-2
0.1206,4.196231E-05,1.809,119,0.1206,-5.404745E-05,1.809,-1
0.1215,2.887007E-05,1.8225,118,0.1215,-4.061952E-05,1.8225,-4
0.1224,-6.713969E-07,1.836,121,0.1224,-3.759823E-05,1.836,-2
0.1233,-2.349889E-06,1.8495,121,0.1233,-8.056763E-06,1.8495,-1
0.1242,3.491264E-05,1.863,120,0.1242,8.426032E-05,1.863,-6
0.1251,1.644922E-05,1.8765,119,0.1251,6.61326E-05,1.8765,0
0.126,2.24918E-05,1.89,120,0.126,-2.819867E-05,1.89,0
0.1269,5.774014E-05,1.9035,119,0.1269,-3.524834E-05,1.9035,0
0.1278,3.189136E-05,1.917,120,0.1278,3.356985E-07,1.917,0
0.1287,5.035477E-05,1.9305,120,0.1287,-1.309224E-05,1.9305,-2
0.1296,5.337606E-05,1.944,120,0.1296,-7.754635E-05,1.944,-1
0.1305,-1.409934E-05,1.9575,119,0.1305,-6.915389E-05,1.9575,-5
0.1314,3.726253E-05,1.971,118,0.1314,-2.081331E-05,1.971,-5
0.1323,-1.510643E-05,1.9845,118,0.1323,-6.042573E-06,1.9845,0
0.1332,-0.0002017548,1.998,119,0.1332,-2.014191E-05,1.998,-1
0.1341,-9.970245E-05,2.0115,119,0.1341,-3.021286E-06,2.0115,-1
0.135,3.256275E-05,2.025,118,0.135,-8.056763E-06,2.025,-4
0.1359,-3.021286E-06,2.0385,118,0.1359,-7.049668E-06,2.0385,-3
0.1368,-2.618448E-05,2.052,120,0.1368,-3.927672E-05,2.052,-6
0.1377,2.920577E-05,2.0655,119,0.1377,-5.069047E-05,2.0655,0
0.1386,1.544213E-05,2.079,119,0.1386,-3.054856E-05,2.079,-1
0.1395,-4.867628E-05,2.0925,118,0.1395,-5.505455E-05,2.0925,-1
0.1404,-0.0001080949,2.106,120,0.1404,-5.304036E-05,2.106,-2
0.1413,7.888914E-05,2.1195,118,0.1413,2.752728E-05,2.1195,-4
0.1422,0.000235996,2.133,119,0.1422,4.43122E-05,2.133,-1
0.1431,0.0001171588,2.1465,118,0.1431,2.987716E-05,2.1465,-4
0.144,0.0001050736,2.16,117,0.144,2.484169E-05,2.16,-7
0.1449,7.016098E-05,2.1735,119,0.1449,-7.049668E-06,2.1735,-2
0.1458,-0.0001842985,2.187,119,0.1458,-4.867628E-05,2.187,-3
0.1467,-0.0002769512,2.2005,120,0.1467,-3.826963E-05,2.2005,-3
0.1476,-0.0001997406,2.214,119,0.1476,-1.107805E-05,2.214,-4
0.1485,-0.0001571069,2.2275,119,0.1485,-4.028382E-06,2.2275,-5
0.1494,-5.572595E-05,2.241,118,0.1494,-1.174945E-05,2.241,-2
0.1503,4.46479E-05,2.2545,119,0.1503,5.706874E-06,2.2545,-3
0.1512,2.584878E-05,2.268,117,0.1512,5.841154E-05,2.268,-2
0.1521,-2.987716E-05,2.2815,118,0.1521,1.779202E-05,2.2815,-4
0.153,6.042573E-06,2.295,119,0.153,-2.786297E-05,2.295,-3
0.1539,9.063859E-06,2.3085,119,0.1539,-3.860533E-05,2.3085,-1
0.1548,-1.242084E-05,2.322,120,0.1548,-3.826963E-05,2.322,-2
0.1557,-2.349889E-06,2.3355,120,0.1557,-4.934768E-05,2.3355,-2
0.1566,-2.014191E-06,2.349,120,0.1566,-0.0001010452,2.349,0
0.1575,4.36408E-06,2.3625,121,0.1575,-8.023193E-05,2.3625,-3
0.1584,7.754635E-05,2.376,120,0.1584,-6.6804E-05,2.376,-4
0.1593,6.881819E-05,2.3895,119,0.1593,-9.130999E-05,2.3895,-2
0.1602,3.625543E-05,2.403,120,0.1602,-5.874724E-05,2.403,-5
0.1611,5.975433E-05,2.4165,119,0.1611,2.584878E-05,2.4165,-2
0.162,9.600977E-05,2.43,118,0.162,3.558404E-05,2.43,-5
0.1629,7.385367E-06,2.4435,119,0.1629,7.721065E-06,2.4435,-1
0.1638,7.989624E-05,2.457,120,0.1638,-1.678492E-05,2.457,-3
0.1647,0.0001305867,2.4705,119,0.1647,-6.713969E-07,2.4705,-4
0.1656,-0.0001111162,2.484,121,0.1656,-3.021286E-06,2.484,0
0.1665,-0.0002077974,2.4975,121,0.1665,-5.102617E-05,2.4975,-3
0.1674,-8.996719E-05,2.511,118,0.1674,-6.478981E-05,2.511,0
0.1683,-7.016098E-05,2.5245,119,0.1683,-1.644922E-05,2.5245,-4
0.1692,-0.0001681849,2.538,121,0.1692,-9.735256E-06,2.538,-2
0.1701,-0.0001319295,2.5515,120,0.1701,-3.524834E-05,2.5515,-3
0.171,-8.661021E-05,2.565,119,0.171,1.376364E-05,2.565,-1
0.1719,-6.51255E-05,2.5785,119,0.1719,-1.275654E-05,2.5785,-2
0.1728,8.728161E-06,2.592,119,0.1728,-7.989624E-05,2.592,-3
0.1737,-3.692683E-05,2.6055,120,0.1737,-7.418937E-05,2.6055,-3
0.1746,-5.203327E-05,2.619,119,0.1746,-3.256275E-05,2.619,0
0.1755,5.035477E-06,2.6325,118,0.1755,-3.390555E-05,2.6325,-6
0.1764,2.450599E-05,2.646,118,0.1764,-3.659113E-05,2.646,0
0.1773,6.311131E-05,2.6595,119,0.1773,-5.169757E-05,2.6595,-3
0.1782,0.0001164874,2.673,119,0.1782,-8.056763E-06,2.673,-4
0.1791,0.0001141375,2.6865,119,0.1791,-7.049668E-06,2.6865,-3
0.18,4.36408E-05,2.7,119,0.18,-5.740444E-05,2.7,-3
0.1809,7.553216E-05,2.7135,118,0.1809,-0.000148043,2.7135,-1
0.1818,1.779202E-05,2.727,120,0.1818,-8.96315E-05,2.727,-1
0.1827,-4.061952E-05,2.7405,120,0.1827,-2.047761E-05,2.7405,0
0.1836,5.438316E-05,2.754,119,0.1836,2.014191E-05,2.754,-5
0.1845,-5.001907E-05,2.7675,118,0.1845,9.970245E-05,2.7675,-3
0.1854,-0.0001379721,2.781,119,0.1854,0.0001238727,2.781,0
0.1863,-2.18204E-05,2.7945,120,0.1863,0.0001070878,2.7945,-2
0.1872,-2.081331E-05,2.808,119,0.1872,9.634547E-05,2.808,-4
0.1881,-2.584878E-05,2.8215,119,0.1881,5.706874E-05,2.8215,-2
0.189,-1.980621E-05,2.835,118,0.189,1.141375E-05,2.835,0
0.1899,-1.779202E-05,2.8485,119,0.1899,-6.378271E-06,2.8485,-5
0.1908,3.692683E-06,2.862,119,0.1908,-3.793393E-05,2.862,0
0.1917,9.063859E-06,2.8755,120,0.1917,-2.383459E-05,2.8755,0
0.1926,1.846342E-05,2.889,120,0.1926,-1.409934E-05,2.889,0
0.1935,4.196231E-05,2.9025,121,0.1935,-3.659113E-05,2.9025,-2
0.1944,3.457694E-05,2.916,119,0.1944,-4.095522E-05,2.916,-2
0.1953,6.042573E-06,2.9295,120,0.1953,-3.155566E-05,2.9295,-2
0.1962,2.719158E-05,2.943,121,0.1962,-4.901198E-05,2.943,0
0.1971,4.49836E-05,2.9565,120,0.1971,-6.311131E-05,2.9565,-4
0.198,9.063859E-06,2.97,120,0.198,-5.337606E-05,2.97,-5
0.1989,1.443504E-05,2.9835,120,0.1989,-3.121996E-05,2.9835,-3
0.1998,-3.256275E-05,2.997,119,0.1998,-3.860533E-05,2.997,-3
0.2007,-6.814679E-05,3.0105,119,0.2007,-3.726253E-05,3.0105,-5
0.2016,-2.786297E-05,3.024,118,0.2016,-2.349889E-05,3.024,-1
0.2025,3.323415E-05,3.0375,120,0.2025,-4.632639E-05,3.0375,-3
0.2034,3.826963E-05,3.051,120,0.2034,-6.915389E-05,3.051,0
0.2043,8.392462E-05,3.0645,0,0.2043,-8.392462E-05,3.0645,0
0.2052,0.0001577783,3.078,0,0.2052,-4.800488E-05,3.078,0
0.2061,0.0001487144,3.0915,0,0.2061,1.477073E-05,3.0915,0
0.207,0.0001178302,3.105,0,0.207,6.042573E-05,3.105,0
0.2079,5.337606E-05,3.1185,0,0.2079,5.706874E-05,3.1185,0
0.2088,-0.0001211871,3.132,0,0.2088,3.390555E-05,3.132,0
0.2097,-0.0003259632,3.1455,0,0.2097,-2.349889E-06,3.1455,0
0.2106,-0.0003575189,3.159,0,0.2106,-4.565499E-05,3.159,0
0.2115,-0.0001064164,3.1725,0,0.2115,-6.042573E-05,3.1725,0
0.2124,-8.392462E-06,3.186,0,0.2124,-7.687495E-05,3.186,0
0.2133,-3.356985E-07,3.1995,0,0.2133,-0.0001225299,3.1995,0
0.2142,4.196231E-05,3.213,0,0.2142,-9.198138E-05,3.213,0
0.2151,7.620356E-05,3.2265,0,0.2151,-4.263371E-05,3.2265,0
0.216,7.486076E-05,3.24,0,0.216,2.1149E-05,3.24,0
0.2169,0.0001134661,3.2535,0,0.2169,6.143282E-05,3.2535,0
0.2178,3.189136E-05,3.267,0,0.2178,8.426032E-05,3.267,0
0.2187,-6.881819E-05,3.2805,0,0.2187,5.203327E-05,3.2805,0
0.2196,-0.0001185016,3.294,0,0.2196,3.726253E-05,3.294,0
0.2205,-7.687495E-05,3.3075,0,0.2205,-2.987716E-05,3.3075,0
0.2214,0.0001755703,3.321,0,0.2214,-8.69459E-05,3.321,0
0.2223,0.0001738918,3.3345,0,0.2223,-0.0001050736,3.3345,0
0.2232,7.284657E-05,3.348,0,0.2232,-0.0001000381,3.348,0
0.2241,-5.035477E-05,3.3615,0,0.2241,-0.0001033951,3.3615,0
0.225,-0.000105745,3.375,0,0.225,-2.584878E-05,3.375,0
0.2259,-0.0002124971,3.3885,0,0.2259,1.174945E-05,3.3885,0
0.2268,-0.000207126,3.402,0,0.2268,2.316319E-05,3.402,0
0.2277,-9.634547E-05,3.4155,0,0.2277,8.560311E-05,3.4155,0
0.2286,-4.196231E-05,3.429,0,0.2286,8.560311E-05,3.429,0
0.2295,4.061952E-05,3.4425,0,0.2295,2.24918E-05,3.4425,0
0.2304,5.606165E-05,3.456,0,0.2304,2.21561E-05,3.456,0
0.2313,4.263371E-05,3.4695,0,0.2313,-2.349889E-06,3.4695,0
0.2322,1.141375E-05,3.483,0,0.2322,1.007095E-05,3.483,0
0.2331,-3.021286E-05,3.4965,0,0.2331,4.699779E-06,3.4965,0
0.234,-3.289845E-05,3.51,0,0.234,-3.860533E-05,3.51,0
0.2349,1.040665E-05,3.5235,0,0.2349,-4.36408E-05,3.5235,0
0.2358,-3.289845E-05,3.537,0,0.2358,-1.141375E-05,3.537,0
0.2367,3.390555E-05,3.5505,0,0.2367,-2.887007E-05,3.5505,0
0.2376,0.0001242084,3.564,0,0.2376,-8.69459E-05,3.564,0
0.2385,9.063859E-05,3.5775,0,0.2385,-8.89601E-05,3.5775,0
0.2394,0.0001154803,3.591,0,0.2394,-9.298848E-05,3.591,0
0.2403,0.0001262226,3.6045,0,0.2403,-0.0001161517,3.6045,0
0.2412,8.023193E-05,3.618,0,0.2412,-5.203327E-05,3.618,0
0.2421,5.673304E-05,3.6315,0,0.2421,-3.021286E-06,3.6315,0
0.243,5.941863E-05,3.645,0,0.243,-1.443504E-05,3.645,0
0.2439,2.987716E-05,3.6585,0,0.2439,6.378271E-06,3.6585,0
0.2448,-0.0001705348,3.672,0,0.2448,-2.450599E-05,3.672,0
0.2457,-0.0002866865,3.6855,0,0.2457,0,3.6855,0
0.2466,-0.0001198444,3.699,0,0.2466,3.927672E-05,3.699,0
0.2475,-0.0001863127,3.7125,0,0.2475,3.860533E-05,3.7125,0
0.2484,-9.970245E-05,3.726,0,0.2484,5.471885E-05,3.726,0
0.2493,-1.141375E-05,3.7395,0,0.2493,3.994812E-05,3.7395,0
0.2502,1.107805E-05,3.753,0,0.2502,1.107805E-05,3.753,0
0.2511,-9.231708E-05,3.7665,0,0.2511,-1.644922E-05,3.7665,0
0.252,-0.0001007095,3.78,0,0.252,1.913481E-05,3.78,0
0.2529,-1.409934E-05,3.7935,0,0.2529,4.095522E-05,3.7935,0
0.2538,1.443504E-05,3.807,0,0.2538,1.376364E-05,3.807,0
0.2547,2.24918E-05,3.8205,0,0.2547,-1.107805E-05,3.8205,0
0.2556,1.947051E-05,3.834,0,0.2556,9.399558E-06,3.834,0
0.2565,0.0001064164,3.8475,0,0.2565,-8.728161E-06,3.8475,0
0.2574,1.309224E-05,3.861,0,0.2574,-5.102617E-05,3.861,0
0.2583,-2.853437E-05,3.8745,0,0.2583,-7.922484E-05,3.8745,0
0.2592,9.701686E-05,3.888,0,0.2592,-2.987716E-05,3.888,0
0.2601,9.802396E-05,3.9015,0,0.2601,-1.812772E-05,3.9015,0
0.261,-5.136187E-05,3.915,0,0.261,-6.948959E-05,3.915,0
0.2619,-3.860533E-05,3.9285,0,0.2619,-8.996719E-05,3.9285,0
0.2628,5.035477E-05,3.942,0,0.2628,-7.016098E-05,3.942,0
0.2637,8.459602E-05,3.9555,0,0.2637,-8.89601E-05,3.9555,0
0.2646,3.524834E-05,3.969,0,0.2646,-0.000133608,3.969,0
0.2655,-3.927672E-05,3.9825,0,0.2655,-5.807584E-05,3.9825,0
0.2664,-7.855344E-05,3.996,0,0.2664,-6.713969E-06,3.996,0
0.2673,-0.0001534142,4.0095,0,0.2673,1.678492E-06,4.0095,0
0.2682,-0.0001722133,4.023,0,0.2682,1.443504E-05,4.023,0
0.2691,-8.526741E-05,4.0365,0,0.2691,3.256275E-05,4.0365,0
0.27,0,4.05,0,0.27,1.174945E-05,4.05,0
0.2709,1.644922E-05,4.0635,0,0.2709,-1.812772E-05,4.0635,0
0.2718,2.1149E-05,4.077,0,0.2718,-5.270466E-05,4.077,0
0.2727,3.524834E-05,4.0905,0,0.2727,-1.107805E-05,4.0905,0
0.2736,2.014191E-06,4.104,0,0.2736,3.424125E-05,4.104,0
0.2745,-8.392462E-06,4.1175,0,0.2745,1.510643E-05,4.1175,0
0.2754,-2.652018E-05,4.131,0,0.2754,-7.049668E-06,4.131,0
0.2763,3.726253E-05,4.1445,0,0.2763,0,4.1445,0
0.2772,0.0001413291,4.158,0,0.2772,-2.551309E-05,4.158,0
0.2781,0.0002158541,4.1715,0,0.2781,-6.51255E-05,4.1715,0
0.279,0.0001218585,4.185,0,0.279,-2.786297E-05,4.185,0
0.2799,-4.599069E-05,4.1985,0,0.2799,-4.028382E-06,4.1985,0
0.2808,4.196231E-05,4.212,0,0.2808,-4.061952E-05,4.212,0
0.2817,5.270466E-05,4.2255,0,0.2817,-2.719158E-05,4.2255,0
0.2826,-6.143282E-05,4.239,0,0.2826,2.21561E-05,4.239,0
0.2835,-4.867628E-05,4.2525,0,0.2835,-2.18204E-05,4.2525,0
0.2844,1.376364E-05,4.266,0,0.2844,-9.768826E-05,4.266,0
0.2853,-4.196231E-05,4.2795,0,0.2853,-0.000119173,4.2795,0
0.2862,-3.088426E-05,4.293,0,0.2862,-6.915389E-05,4.293,0
0.2871,-8.627451E-05,4.3065,0,0.2871,-3.591974E-05,4.3065,0
0.288,-0.0001131304,4.32,0,0.288,-2.484169E-05,4.32,0
0.2889,-5.001907E-05,4.3335,0,0.2889,-2.383459E-05,4.3335,0
0.2898,2.584878E-05,4.347,0,0.2898,1.879912E-05,4.347,0
0.2907,6.344701E-05,4.3605,0,0.2907,-1.007095E-05,4.3605,0
0.2916,7.318227E-05,4.374,0,0.2916,-6.478981E-05,4.374,0
0.2925,6.143282E-05,4.3875,0,0.2925,-4.095522E-05,4.3875,0
0.2934,5.706874E-05,4.401,0,0.2934,-1.242084E-05,4.401,0
0.2943,1.510643E-05,4.4145,0,0.2943,1.779202E-05,4.4145,0
0.2952,-8.224613E-05,4.428,0,0.2952,9.802396E-05,4.428,0
0.2961,-8.627451E-05,4.4415,0,0.2961,0.0001255512,4.4415,0
0.297,-0.000109102,4.455,0,0.297,1.107805E-05,4.455,0
0.2979,-7.956054E-05,4.4685,0,0.2979,-1.913481E-05,4.4685,0
0.2988,-7.553216E-05,4.482,0,0.2988,-4.565499E-05,4.482,0
0.2997,-2.853437E-05,4.4955,0,0.2997,-2.920577E-05,4.4955,0
0.3006,3.054856E-05,4.509,0,0.3006,-6.478981E-05,4.509,0
0.3015,2.786297E-05,4.5225,0,0.3015,-8.593881E-05,4.5225,0
0.3024,-5.471885E-05,4.536,0,0.3024,-0.0001295796,4.536,0
0.3033,-7.217517E-05,4.5495,0,0.3033,-0.0001393149,4.5495,0
0.3042,8.728161E-06,4.563,0,0.3042,-0.0001910124,4.563,0
0.3051,4.666209E-05,4.5765,0,0.3051,-0.0002121614,4.5765,0
0.306,7.620356E-05,4.59,0,0.306,-7.351797E-05,4.59,0
0.3069,6.143282E-05,4.6035,0,0.3069,3.659113E-05,4.6035,0
0.3078,-3.356985E-06,4.617,0,0.3078,6.109713E-05,4.617,0
0.3087,-7.183947E-05,4.6305,0,0.3087,0.0001846342,4.6305,0
0.3096,6.713969E-06,4.644,0,0.3096,0.0003017929,4.644,0
0.3105,-1.678492E-06,4.6575,0,0.3105,0.0002514381,4.6575,0
0.3114,-0.0001000381,4.671,0,0.3114,0.0001352865,4.671,0
0.3123,-2.316319E-05,4.6845,0,0.3123,4.095522E-05,4.6845,0
0.3132,1.947051E-05,4.698,0,0.3132,2.24918E-05,4.698,0
0.3141,2.584878E-05,4.7115,0,0.3141,3.189136E-05,4.7115,0
0.315,2.349889E-06,4.725,0,0.315,6.713969E-06,4.725,0
0.3159,-1.007095E-06,4.7385,0,0.3159,-9.399558E-06,4.7385,0
0.3168,1.913481E-05,4.752,0,0.3168,-7.721065E-06,4.752,0
0.3177,3.021286E-06,4.7655,0,0.3177,-5.001907E-05,4.7655,0
0.3186,1.242084E-05,4.779,0,0.3186,-8.526741E-05,4.779,0
0.3195,-4.733349E-05,4.7925,0,0.3195,-4.934768E-05,4.7925,0
0.3204,-5.069047E-05,4.806,0,0.3204,-4.565499E-05,4.806,0
0.3213,1.309224E-05,4.8195,0,0.3213,-7.855344E-05,4.8195,0
0.3222,3.591974E-05,4.833,0,0.3222,-8.560311E-05,4.833,0
0.3231,1.309224E-05,4.8465,0,0.3231,-5.539025E-05,4.8465,0
0.324,7.150377E-05,4.86,0,0.324,-3.692683E-05,4.86,0
0.3249,7.721065E-05,4.8735,0,0.3249,-5.941863E-05,4.8735,0
0.3258,0.0001621424,4.887,0,0.3258,-6.881819E-05,4.887,0
0.3267,0.0002145113,4.9005,0,0.3267,-3.692683E-05,4.9005,0
0.3276,0.0001376364,4.914,0,0.3276,-1.007095E-06,4.914,0
0.3285,2.887007E-05,4.9275,0,0.3285,-3.457694E-05,4.9275,0
0.3294,-9.802396E-05,4.941,0,0.3294,-5.505455E-05,4.941,0
0.3303,-0.0002057832,4.9545,0,0.3303,3.356985E-07,4.9545,0
0.3312,-0.0001896696,4.968,0,0.3312,-1.779202E-05,4.968,0
0.3321,-0.0001477073,4.9815,0,0.3321,-9.835965E-05,4.9815,0
0.333,-0.0001567712,4.995,0,0.333,-5.874724E-05,4.995,0
0.3339,-8.96315E-05,5.0085,0,0.3339,-4.36408E-05,5.0085,0
0.3348,-0.0001101091,5.022,0,0.3348,-6.344701E-05,5.022,0
0.3357,-0.000102388,5.0355,0,0.3357,-6.143282E-05,5.0355,0
0.3366,-2.383459E-05,5.049,0,0.3366,-0.0001117876,5.049,0
0.3375,3.323415E-05,5.0625,0,0.3375,-0.0001198444,5.0625,0
0.3384,0.0001272297,5.076,0,0.3384,-9.567407E-05,5.076,0
0.3393,0.0001500572,5.0895,0,0.3393,-6.109713E-05,5.0895,0
0.3402,-7.385367E-06,5.103,0,0.3402,1.712062E-05,5.103,0
0.3411,-0.0001010452,5.1165,0,0.3411,0.0001017166,5.1165,0
0.342,-5.706874E-05,5.13,0,0.342,0.0001540856,5.13,0
0.3429,-6.009003E-05,5.1435,0,0.3429,3.356985E-07,5.1435,0
0.3438,-0.0001564355,5.157,0,0.3438,7.721065E-06,5.157,0
0.3447,-0.0001121233,5.1705,0,0.3447,3.088426E-05,5.1705,0
0.3456,2.383459E-05,5.184,0,0.3456,-3.793393E-05,5.184,0
0.3465,4.196231E-05,5.1975,0,0.3465,-4.36408E-06,5.1975,0
0.3474,0.0002198825,5.211,0,0.3474,4.36408E-05,5.211,0
0.3483,0.0002521096,5.2245,0,0.3483,-1.107805E-05,5.2245,0
0.3492,7.922484E-05,5.238,0,0.3492,-4.028382E-06,5.238,0
0.3501,-1.007095E-06,5.2515,0,0.3501,-3.356985E-07,5.2515,0
0.351,-4.867628E-05,5.265,0,0.351,-1.342794E-05,5.265,0
0.3519,-0.0001127947,5.2785,0,0.3519,7.385367E-06,5.2785,0
0.3528,-0.0001497215,5.292,0,0.3528,-2.081331E-05,5.292,0
0.3537,-7.888914E-05,5.3055,0,0.3537,-2.618448E-05,5.3055,0
0.3546,-7.016098E-05,5.319,0,0.3546,-8.728161E-06,5.319,0
0.3555,-1.107805E-05,5.3325,0,0.3555,-4.263371E-05,5.3325,0
0.3564,5.740444E-05,5.346,0,0.3564,-5.270466E-05,5.346,0
0.3573,9.231708E-05,5.3595,0,0.3573,-1.007095E-06,5.3595,0
0.3582,0.0001473716,5.373,0,0.3582,-4.800488E-05,5.373,0
0.3591,0.0001013809,5.3865,0,0.3591,-0.0001701991,5.3865,0
0.36,0.0001456931,5.4,0,0.36,-0.0001695277,5.4,0
0.3609,0.000136965,5.4135,0,0.3609,-0.0001728847,5.4135,0
0.3618,-4.49836E-05,5.427,0,0.3618,-0.0001376364,5.427,0
0.3627,-0.0002356603,5.4405,0,0.3627,-3.894102E-05,5.4405,0
0.3636,-0.0002957504,5.454,0,0.3636,8.157473E-05,5.454,0
0.3645,-0.000186984,5.4675,0,0.3645,0.0001584497,5.4675,0
0.3654,-3.256275E-05,5.481,0,0.3654,0.0001654994,5.481,0
0.3663,-3.826963E-05,5.4945,0,0.3663,6.57969E-05,5.4945,0
0.3672,-6.478981E-05,5.508,0,0.3672,4.263371E-05,5.508,0
0.3681,-6.378271E-06,5.5215,0,0.3681,3.826963E-05,5.5215,0
0.369,3.491264E-05,5.535,0,0.369,-2.014191E-05,5.535,0
0.3699,1.846342E-05,5.5485,0,0.3699,-6.6804E-05,5.5485,0
0.3708,2.383459E-05,5.562,0,0.3708,-2.685588E-05,5.562,0
0.3717,5.404745E-05,5.5755,0,0.3717,-2.349889E-06,5.5755,0
0.3726,2.786297E-05,5.589,0,0.3726,-6.378271E-06,5.589,0
0.3735,-7.721065E-06,5.6025,0,0.3735,6.076142E-05,5.6025,0
0.3744,-1.309224E-05,5.616,0,0.3744,2.517739E-05,5.616,0
0.3753,4.53193E-05,5.6295,0,0.3753,-6.210422E-05,5.6295,0
0.3762,0.000190341,5.643,0,0.3762,-6.948959E-05,5.643,0
0.3771,0.0001842985,5.6565,0,0.3771,-8.627451E-05,5.6565,0
0.378,0.0001366293,5.67,0,0.378,-6.478981E-05,5.67,0
0.3789,6.6804E-05,5.6835,0,0.3789,-2.349889E-05,5.6835,0
0.3798,3.994812E-05,5.697,0,0.3798,-1.678492E-06,5.697,0
0.3807,-0.0001144732,5.7105,0,0.3807,2.652018E-05,5.7105,0
0.3816,-0.0001514,5.724,0,0.3816,7.486076E-05,5.724,0
0.3825,-0.0001211871,5.7375,0,0.3825,7.016098E-05,5.7375,0
0.3834,-0.0001386435,5.751,0,0.3834,5.337606E-05,5.751,0
0.3843,-7.721065E-05,5.7645,0,0.3843,8.728161E-06,5.7645,0
0.3852,-0.0001117876,5.778,0,0.3852,-1.913481E-05,5.778,0
0.3861,-4.599069E-05,5.7915,0,0.3861,-5.337606E-05,5.7915,0
0.387,9.399558E-06,5.805,0,0.387,-1.812772E-05,5.805,0
0.3879,7.721065E-06,5.8185,0,0.3879,5.706874E-06,5.8185,0
0.3888,4.49836E-05,5.832,0,0.3888,-4.39765E-05,5.832,0
0.3897,2.1149E-05,5.8455,0,0.3897,-3.659113E-05,5.8455,0
0.3906,1.879912E-05,5.859,0,0.3906,-9.063859E-06,5.859,0
0.3915,9.063859E-06,5.8725,0,0.3915,-3.793393E-05,5.8725,0
0.3924,-3.121996E-05,5.886,0,0.3924,-6.814679E-05,5.886,0
0.3933,1.678492E-05,5.8995,0,0.3933,-8.056764E-05,5.8995,0
0.3942,5.203327E-05,5.913,0,0.3942,-4.699779E-05,5.913,0
0.3951,1.544213E-05,5.9265,0,0.3951,-4.733349E-05,5.9265,0
0.396,7.385367E-06,5.94,0,0.396,-5.539025E-05,5.94,0
0.3969,2.920577E-05,5.9535,0,0.3969,-4.129091E-05,5.9535,0
0.3978,6.042573E-06,5.967,0,0.3978,-1.712062E-05,5.967,0
0.3987,3.591974E-05,5.9805,0,0.3987,-5.337606E-05,5.9805,0
0.3996,9.735256E-06,5.994,0,0.3996,-0.0001121233,5.994,0
0.4005,3.390555E-05,6.0075,0,0.4005,-6.848249E-05,6.0075,0
0.4014,1.712062E-05,6.021,0,0.4014,-2.047761E-05,6.021,0
0.4023,-8.224613E-05,6.0345,0,0.4023,-3.155566E-05,6.0345,0
0.4032,-9.365987E-05,6.048,0,0.4032,-1.376364E-05,6.048,0
0.4041,-0.0001144732,6.0615,0,0.4041,5.069047E-05,6.0615,0
0.405,-3.961242E-05,6.075,0,0.405,2.719158E-05,6.075,0
0.4059,8.090334E-05,6.0885,0,0.4059,-3.021286E-05,6.0885,0
0.4068,4.162661E-05,6.102,0,0.4068,-4.901198E-05,6.102,0
0.4077,-6.243992E-05,6.1155,0,0.4077,-3.021286E-06,6.1155,0
0.4086,-2.316319E-05,6.129,0,0.4086,8.392462E-06,6.129,0
0.4095,-1.846342E-05,6.1425,0,0.4095,-6.478981E-05,6.1425,0
0.4104,-7.385367E-06,6.156,0,0.4104,-0.0001587854,6.156,0
0.4113,-4.33051E-05,6.1695,0,0.4113,-0.0002161898,6.1695,0
0.4122,0.0001064164,6.183,0,0.4122,-0.0003380484,6.183,0
0.4131,0.000257145,6.1965,0,0.4131,-0.0003719539,6.1965,0
0.414,0.0001393149,6.21,0,0.414,-0.0001765774,6.21,0
0.4149,-9.164568E-05,6.2235,0,0.4149,8.728161E-06,6.2235,0
0.4158,-9.903105E-05,6.237,0,0.4158,0.000200412,6.237,0
0.4167,-0.0001017166,6.2505,0,0.4167,0.0003266346,6.2505,0
0.4176,-0.0001443503,6.264,0,0.4176,0.0004088808,6.264,0
0.4185,-2.685588E-06,6.2775,0,0.4185,0.0003914244,6.2775,0
0.4194,-7.016098E-05,6.291,0,0.4194,0.0002111543,6.291,0
0.4203,-9.567407E-05,6.3045,0,0.4203,8.560311E-05,6.3045,0
0.4212,-3.826963E-05,6.318,0,0.4212,4.53193E-05,6.318,0
0.4221,-5.471885E-05,6.3315,0,0.4221,5.001907E-05,6.3315,0
0.423,-3.994812E-05,6.345,0,0.423,3.692683E-06,6.345,0
0.4239,2.047761E-05,6.3585,0,0.4239,-2.618448E-05,6.3585,0
0.4248,2.954147E-05,6.372,0,0.4248,-8.392462E-06,6.372,0
0.4257,6.61326E-05,6.3855,0,0.4257,-2.047761E-05,6.3855,0
0.4266,7.418937E-05,6.399,0,0.4266,-5.673304E-05,6.399,0
0.4275,6.713969E-07,6.4125,0,0.4275,-4.867628E-05,6.4125,0
0.4284,5.337606E-05,6.426,0,0.4284,-4.800488E-05,6.426,0
0.4293,0.000112459,6.4395,0,0.4293,-7.251087E-05,6.4395,0
0.4302,5.706874E-05,6.453,0,0.4302,-0.000123537,6.453,0
0.4311,6.57969E-05,6.4665,0,0.4311,-0.0001168231,6.4665,0
0.432,4.196231E-05,6.48,0,0.432,-9.668116E-05,6.48,0
0.4329,-4.33051E-05,6.4935,0,0.4329,-8.761731E-05,6.4935,0
0.4338,-0.0001926909,6.507,0,0.4338,-9.500267E-05,6.507,0
0.4347,-0.0003414054,6.5205,0,0.4347,-0.0001164874,6.5205,0
0.4356,-0.0001990692,6.534,0,0.4356,-6.411841E-05,6.534,0
0.4365,-5.807584E-05,6.5475,0,0.4365,-2.484169E-05,6.5475,0
0.4374,-3.021286E-05,6.561,0,0.4374,-7.418937E-05,6.561,0
0.4383,-4.129091E-05,6.5745,0,0.4383,-2.484169E-05,6.5745,0
0.4392,3.021286E-05,6.588,0,0.4392,1.577783E-05,6.588,0
0.4401,0.0001017166,6.6015,0,0.4401,4.196231E-05,6.6015,0
0.441,8.69459E-05,6.615,0,0.441,7.016098E-05,6.615,0
0.4419,2.1149E-05,6.6285,0,0.4419,2.28275E-05,6.6285,0
0.4428,2.786297E-05,6.642,0,0.4428,-5.136187E-05,6.642,0
0.4437,0.0001473716,6.6555,0,0.4437,-6.54612E-05,6.6555,0
0.4446,7.653925E-05,6.669,0,0.4446,-7.150377E-05,6.669,0
0.4455,2.1149E-05,6.6825,0,0.4455,-6.982528E-05,6.6825,0
0.4464,1.913481E-05,6.696,0,0.4464,-2.24918E-05,6.696,0
0.4473,-8.728161E-06,6.7095,0,0.4473,4.36408E-06,6.7095,0
0.4482,-7.049668E-06,6.723,0,0.4482,1.007095E-06,6.723,0
0.4491,-7.821774E-05,6.7365,0,0.4491,1.577783E-05,6.7365,0
0.45,-2.450599E-05,6.75,0,0.45,-7.385367E-06,6.75,0
0.4509,0.0001010452,6.7635,0,0.4509,-5.706874E-06,6.7635,0
0.4518,0.0001309224,6.777,0,0.4518,2.349889E-06,6.777,0
0.4527,0.0001178302,6.7905,0,0.4527,-4.43122E-05,6.7905,0
0.4536,0.0001634852,6.804,0,0.4536,-3.994812E-05,6.804,0
0.4545,0.0001339437,6.8175,0,0.4545,-3.692683E-06,6.8175,0
0.4554,0.0001607996,6.831,0,0.4554,-7.049668E-06,6.831,0
0.4563,-1.007095E-06,6.8445,0,0.4563,-5.941863E-05,6.8445,0
0.4572,-0.0003226062,6.858,0,0.4572,-3.692683E-05,6.858,0
0.4581,-0.0004991837,6.8715,0,0.4581,-2.987716E-05,6.8715,0
0.459,-0.0002547952,6.885,0,0.459,-5.706874E-05,6.885,0
0.4599,-0.0001201801,6.8985,0,0.4599,-6.009003E-05,6.8985,0
0.4608,-0.0001104448,6.912,0,0.4608,-3.155566E-05,6.912,0
0.4617,-8.023193E-05,6.9255,0,0.4617,5.774014E-05,6.9255,0
0.4626,-9.231708E-05,6.939,0,0.4626,3.692683E-05,6.939,0
0.4635,-4.229801E-05,6.9525,0,0.4635,-2.18204E-05,6.9525,0
0.4644,1.242084E-05,6.966,0,0.4644,-5.270466E-05,6.966,0
0.4653,-6.042573E-06,6.9795,0,0.4653,-1.712062E-05,6.9795,0
0.4662,-1.947051E-05,6.993,0,0.4662,-1.980621E-05,6.993,0
0.4671,6.948959E-05,7.0065,0,0.4671,-3.961242E-05,7.0065,0
0.468,6.61326E-05,7.02,0,0.468,-1.007095E-06,7.02,0
0.4689,7.016098E-05,7.0335,0,0.4689,6.042573E-06,7.0335,0
0.4698,7.989624E-05,7.047,0,0.4698,-2.584878E-05,7.047,0
0.4707,4.934768E-05,7.0605,0,0.4707,-3.289845E-05,7.0605,0
0.4716,6.78111E-05,7.074,0,0.4716,9.735256E-06,7.074,0
0.4725,9.063859E-05,7.0875,0,0.4725,1.040665E-05,7.0875,0
0.4734,0.0001285725,7.101,0,0.4734,-3.692683E-06,7.101,0
0.4743,8.459602E-05,7.1145,0,0.4743,-3.121996E-05,7.1145,0
0.4752,7.049668E-06,7.128,0,0.4752,-3.424125E-05,7.128,0
0.4761,-8.493171E-05,7.1415,0,0.4761,-6.6804E-05,7.1415,0
0.477,-0.0001701991,7.155,0,0.477,-0.0001178302,7.155,0
0.4779,-5.539025E-05,7.1685,0,0.4779,-0.0001134661,7.1685,0
0.4788,4.666209E-05,7.182,0,0.4788,-4.53193E-05,7.182,0
0.4797,0.0001044022,7.1955,0,0.4797,-3.189136E-05,7.1955,0
0.4806,6.411841E-05,7.209,0,0.4806,-8.661021E-05,7.209,0
0.4815,-1.242084E-05,7.2225,0,0.4815,-3.256275E-05,7.2225,0
0.4824,1.242084E-05,7.236,0,0.4824,7.049668E-06,7.236,0
0.4833,-3.121996E-05,7.2495,0,0.4833,6.042573E-06,7.2495,0
0.4842,-5.136187E-05,7.263,0,0.4842,4.666209E-05,7.263,0
0.4851,4.36408E-06,7.2765,0,0.4851,9.030289E-05,7.2765,0
0.486,8.392462E-06,7.29,0,0.486,9.164568E-05,7.29,0
0.4869,-1.409934E-05,7.3035,0,0.4869,3.994812E-05,7.3035,0
0.4878,-3.457694E-05,7.317,0,0.4878,-3.659113E-05,7.317,0
0.4887,-5.706874E-06,7.3305,0,0.4887,-6.54612E-05,7.3305,0
0.4896,-3.524834E-05,7.344,0,0.4896,-4.766919E-05,7.344,0
0.4905,1.007095E-06,7.3575,0,0.4905,-1.409934E-05,7.3575,0
0.4914,7.049668E-06,7.371,0,0.4914,1.779202E-05,7.371,0
0.4923,1.342794E-06,7.3845,0,0.4923,8.157473E-05,7.3845,0
0.4932,-4.867628E-05,7.398,0,0.4932,4.934768E-05,7.398,0
0.4941,1.141375E-05,7.4115,0,0.4941,-2.18204E-05,7.4115,0
0.495,2.853437E-05,7.425,0,0.495,3.927672E-05,7.425,0
0.4959,2.349889E-06,7.4385,0,0.4959,2.517739E-05,7.4385,0
0.4968,-1.712062E-05,7.452,0,0.4968,-5.841154E-05,7.452,0
0.4977,-3.356985E-06,7.4655,0,0.4977,-7.385367E-06,7.4655,0
0.4986,9.063859E-06,7.479,0,0.4986,2.517739E-05,7.479,0
0.4995,5.706874E-06,7.4925,0,0.4995,-4.901198E-05,7.4925,0
0.5004,2.1149E-05,7.506,0,0.5004,-4.162661E-05,7.506,0
0.5013,3.088426E-05,7.5195,0,0.5013,-8.728161E-06,7.5195,0
0.5022,1.141375E-05,7.533,0,0.5022,6.948959E-05,7.533,0
0.5031,-4.229801E-05,7.5465,0,0.5031,7.418937E-05,7.5465,0
0.504,-5.807584E-05,7.56,0,0.504,-1.040665E-05,7.56,0
0.5049,0.0001272297,7.5735,0,0.5049,-4.766919E-05,7.5735,0
0.5058,0.0002480812,7.587,0,0.5058,-1.644922E-05,7.587,0
0.5067,0.0002514381,7.6005,0,0.5067,-5.539025E-05,7.6005,0
0.5076,0.0001453574,7.614,0,0.5076,-0.0001795987,7.614,0
0.5085,0.0001084306,7.6275,0,0.5085,-0.0001540856,7.6275,0
0.5094,3.457694E-05,7.641,0,0.5094,-0.0001362936,7.641,0
0.5103,-0.0001977264,7.6545,0,0.5103,-0.0002356603,7.6545,0
0.5112,-0.0004505074,7.668,0,0.5112,-0.0002420386,7.668,0
0.5121,-0.0003471122,7.6815,0,0.5121,-0.0001386435,7.6815,0
0.513,-0.0002934005,7.695,0,0.513,6.57969E-05,7.695,0
0.5139,-0.0001983978,7.7085,0,0.5139,0.0001769131,7.7085,0
0.5148,-0.000109102,7.722,0,0.5148,0.0002054475,7.722,0
0.5157,-1.678492E-06,7.7355,0,0.5157,0.0002876936,7.7355,0
0.5166,3.726253E-05,7.749,0,0.5166,0.0001607996,7.749,0
0.5175,-2.18204E-05,7.7625,0,0.5175,5.807584E-05,7.7625,0
0.5184,-1.544213E-05,7.776,0,0.5184,7.721065E-06,7.776,0
0.5193,2.28275E-05,7.7895,0,0.5193,3.793393E-05,7.7895,0
0.5202,2.853437E-05,7.803,0,0.5202,4.699779E-06,7.803,0
0.5211,0.0001567712,7.8165,0,0.5211,-4.33051E-05,7.8165,0
0.522,0.0002682231,7.83,0,0.522,-6.478981E-05,7.83,0
0.5229,0.0001467002,7.8435,0,0.5229,-0.0001373007,7.8435,0
0.5238,4.263371E-05,7.857,0,0.5238,-0.0001755703,7.857,0
0.5247,-6.243992E-05,7.8705,0,0.5247,-0.0001211871,7.8705,0
0.5256,-0.0001628138,7.884,0,0.5256,-3.659113E-05,7.884,0
0.5265,-0.0001550927,7.8975,0,0.5265,-4.46479E-05,7.8975,0
0.5274,-0.000136965,7.911,0,0.5274,9.735256E-06,7.911,0
0.5283,-0.000115816,7.9245,0,0.5283,2.887007E-05,7.9245,0
0.5292,-4.33051E-05,7.938,0,0.5292,3.994812E-05,7.938,0
0.5301,-7.452507E-05,7.9515,0,0.5301,2.752728E-05,7.9515,0
0.531,-7.721065E-06,7.965,0,0.531,-2.719158E-05,7.965,0
0.5319,5.001907E-05,7.9785,0,0.5319,-8.96315E-05,7.9785,0
0.5328,4.733349E-05,7.992,0,0.5328,-5.035477E-05,7.992,0
0.5337,2.752728E-05,8.0055,0,0.5337,-3.524834E-05,8.0055,0
0.5346,2.652018E-05,8.019,0,0.5346,-3.054856E-05,8.019,0
0.5355,4.263371E-05,8.0325,0,0.5355,1.342794E-06,8.0325,0
0.5364,8.761731E-05,8.046,0,0.5364,-1.242084E-05,8.046,0
0.5373,9.634547E-05,8.0595,0,0.5373,-1.477073E-05,8.0595,0
0.5382,4.229801E-05,8.073,0,0.5382,-7.183947E-05,8.073,0
0.5391,6.109713E-05,8.0865,0,0.5391,-7.553216E-05,8.0865,0
0.54,7.318227E-05,8.1,0,0.54,-7.418937E-05,8.1,0
0.5409,0.0001326009,8.1135,0,0.5409,-5.740444E-05,8.1135,0
0.5418,8.291753E-05,8.127,0,0.5418,-6.915389E-05,8.127,0
0.5427,9.298848E-05,8.1405,0,0.5427,-2.652018E-05,8.1405,0
0.5436,5.304036E-05,8.154,0,0.5436,2.652018E-05,8.154,0
0.5445,-0.0001077592,8.1675,0,0.5445,6.042573E-06,8.1675,0
0.5454,-0.0003420768,8.181,0,0.5454,-2.24918E-05,8.181,0
0.5463,-0.0002564736,8.1945,0,0.5463,-2.18204E-05,8.1945,0
0.5472,-1.510643E-05,8.208,0,0.5472,-7.418937E-05,8.208,0
0.5481,6.57969E-05,8.2215,0,0.5481,-8.358892E-05,8.2215,0
0.549,5.304036E-05,8.235,0,0.549,8.728161E-06,8.235,0
0.5499,1.007095E-06,8.2485,0,0.5499,-1.107805E-05,8.2485,0
0.5508,3.927672E-05,8.262,0,0.5508,-4.028382E-05,8.262,0
0.5517,1.376364E-05,8.2755,0,0.5517,1.309224E-05,8.2755,0
0.5526,-0.0001265583,8.289,0,0.5526,2.18204E-05,8.289,0
0.5535,7.049668E-06,8.3025,0,0.5535,2.1149E-05,8.3025,0
0.5544,0.0002702373,8.316,0,0.5544,-4.39765E-05,8.316,0
0.5553,0.0002440528,8.3295,0,0.5553,-9.030289E-05,8.3295,0
0.5562,0.0001148089,8.343,0,0.5562,-9.634547E-05,8.343,0
0.5571,-2.014191E-05,8.3565,0,0.5571,-6.6804E-05,8.3565,0
0.558,-0.0001255512,8.37,0,0.558,-4.33051E-05,8.37,0
0.5589,-0.0002286107,8.3835,0,0.5589,-4.666209E-05,8.3835,0
0.5598,-8.358892E-05,8.397,0,0.5598,-7.721065E-06,8.397,0
0.5607,-1.846342E-05,8.4105,0,0.5607,3.323415E-05,8.4105,0
0.5616,-8.96315E-05,8.424,0,0.5616,6.478981E-05,8.424,0
0.5625,-4.599069E-05,8.4375,0,0.5625,8.090334E-05,8.4375,0
0.5634,4.061952E-05,8.451,0,0.5634,4.934768E-05,8.451,0
0.5643,1.947051E-05,8.4645,0,0.5643,-1.712062E-05,8.4645,0
0.5652,5.203327E-05,8.478,0,0.5652,-6.478981E-05,8.478,0
0.5661,0.0001373007,8.4915,0,0.5661,-0.0001010452,8.4915,0
0.567,0.0001460288,8.505,0,0.567,-8.493171E-05,8.505,0
0.5679,9.768826E-05,8.5185,0,0.5679,-1.678492E-05,8.5185,0
0.5688,-9.097429E-05,8.532,0,0.5688,7.150377E-05,8.532,0
0.5697,-0.0002900435,8.5455,0,0.5697,0.0001420005,8.5455,0
0.5706,-0.0001594568,8.559,0,0.5706,0.0001258869,8.559,0
0.5715,-0.0002044404,8.5725,0,0.5715,6.143282E-05,8.5725,0
0.5724,-0.0001483787,8.586,0,0.5724,1.577783E-05,8.586,0
0.5733,-6.277562E-05,8.5995,0,0.5733,5.539025E-05,8.5995,0
0.5742,-5.505455E-05,8.613,0,0.5742,1.779202E-05,8.613,0
0.5751,-6.848249E-05,8.6265,0,0.5751,-2.719158E-05,8.6265,0
0.576,-2.853437E-05,8.64,0,0.576,-2.685588E-05,8.64,0
0.5769,2.954147E-05,8.6535,0,0.5769,-0.0001315938,8.6535,0
0.5778,6.143282E-05,8.667,0,0.5778,-0.0002017548,8.667,0
0.5787,7.653925E-05,8.6805,0,0.5787,-0.0001732204,8.6805,0
0.5796,0.0001060807,8.694,0,0.5796,-9.970245E-05,8.694,0
0.5805,8.493171E-05,8.7075,0,0.5805,-8.392462E-06,8.7075,0
0.5814,-7.821774E-05,8.721,0,0.5814,0.0001148089,8.721,0
0.5823,-6.344701E-05,8.7345,0,0.5823,0.0002088045,8.7345,0
0.5832,6.143282E-05,8.748,0,0.5832,7.486076E-05,8.748,0
0.5841,1.846342E-05,8.7615,0,0.5841,-4.632639E-05,8.7615,0
0.585,3.591974E-05,8.775,0,0.585,-9.130999E-05,8.775,0
0.5859,5.774014E-05,8.7885,0,0.5859,-0.0001097734,8.7885,0
0.5868,7.284657E-05,8.802,0,0.5868,-7.620356E-05,8.802,0
0.5877,0.0001279011,8.8155,0,0.5877,-3.390555E-05,8.8155,0
0.5886,0.0001493858,8.829,0,0.5886,-2.349889E-06,8.829,0
0.5895,3.726253E-05,8.8425,0,0.5895,6.71397E-05,8.8425,0
0.5904,-7.016098E-05,8.856,0,0.5904,7.284657E-05,8.856,0
0.5913,-8.560311E-05,8.8695,0,0.5913,1.745632E-05,8.8695,0
0.5922,-5.908293E-05,8.883,0,0.5922,-1.242084E-05,8.883,0
0.5931,-8.728161E-06,8.8965,0,0.5931,-5.471885E-05,8.8965,0
0.594,4.36408E-06,8.91,0,0.594,-8.560311E-05,8.91,0
0.5949,-2.18204E-05,8.9235,0,0.5949,-8.627451E-05,8.9235,0
0.5958,-9.466698E-05,8.937,0,0.5958,-8.761731E-05,8.937,0
0.5967,-5.841154E-05,8.9505,0,0.5967,-8.392462E-06,8.9505,0
0.5976,1.443504E-05,8.964,0,0.5976,4.53193E-05,8.964,0
0.5985,-5.069047E-05,8.9775,0,0.5985,1.779202E-05,8.9775,0
0.5994,-6.311131E-05,8.991,0,0.5994,-1.376364E-05,8.991,0
0.6003,3.323415E-05,9.0045,0,0.6003,2.014191E-06,9.0045,0
0.6012,-1.678492E-06,9.018,0,0.6012,-5.740444E-05,9.018,0
0.6021,-1.376364E-05,9.0315,0,0.6021,-0.0001211871,9.0315,0
0.603,-3.356985E-07,9.045,0,0.603,-8.761731E-05,9.045,0
0.6039,2.987716E-05,9.0585,0,0.6039,-0.0001101091,9.0585,0
0.6048,0.0001688563,9.072001,0,0.6048,-0.0001507286,9.072001,0
0.6057,0.0001252155,9.0855,0,0.6057,-5.807584E-05,9.0855,0
0.6066,8.86244E-05,9.099,0,0.6066,0.0001027237,9.099,0
0.6075,8.392462E-05,9.1125,0,0.6075,0.0001396506,9.1125,0
0.6084,-2.853437E-05,9.126,0,0.6084,0.0001080949,9.126,0
0.6093,-9.365987E-05,9.1395,0,0.6093,6.61326E-05,9.1395,0
0.6102,1.007095E-06,9.153,0,0.6102,4.53193E-05,9.153,0
0.6111,-4.733349E-05,9.1665,0,0.6111,3.155566E-05,9.1665,0
0.612,-4.46479E-05,9.18,0,0.612,-3.793393E-05,9.18,0
0.6129,2.786297E-05,9.1935,0,0.6129,-8.291753E-05,9.1935,0
0.6138,-8.82887E-05,9.207,0,0.6138,-4.39765E-05,9.207,0
0.6147,-0.0001769131,9.2205,0,0.6147,-8.426032E-05,9.2205,0
0.6156,-0.000115816,9.234,0,0.6156,-0.000115816,9.234,0
0.6165,-6.64683E-05,9.2475,0,0.6165,-3.860533E-05,9.2475,0
0.6174,-0.0001413291,9.261,0,0.6174,2.349889E-06,9.261,0
0.6183,-0.0001258869,9.2745,0,0.6183,4.36408E-06,9.2745,0
0.6192,-6.076142E-05,9.288,0,0.6192,9.063859E-06,9.288,0
0.6201,-5.203327E-05,9.3015,0,0.6201,6.378271E-06,9.3015,0
0.621,3.390555E-05,9.315,0,0.621,-7.888914E-05,9.315,0
0.6219,5.304036E-05,9.3285,0,0.6219,-0.0001359579,9.3285,0
0.6228,7.217517E-05,9.342,0,0.6228,-0.0001587854,9.342,0
0.6237,0.0001174945,9.3555,0,0.6237,-0.0001299153,9.3555,0
0.6246,-3.726253E-05,9.369,0,0.6246,-7.385367E-05,9.369,0
0.6255,-0.0001003738,9.3825,0,0.6255,-3.356985E-06,9.3825,0
0.6264,3.088426E-05,9.396,0,0.6264,0.0001007095,9.396,0
0.6273,-9.399558E-06,9.4095,0,0.6273,0.0002007477,9.4095,0
0.6282,-0.0001044022,9.423,0,0.6282,0.0001332723,9.423,0
0.6291,-1.376364E-05,9.4365,0,0.6291,2.014191E-06,9.4365,0
0.63,8.224613E-05,9.45,0,0.63,3.659113E-05,9.45,0
0.6309,7.318227E-05,9.4635,0,0.6309,-2.24918E-05,9.4635,0
0.6318,3.256275E-05,9.477,0,0.6318,-9.869535E-05,9.477,0
0.6327,4.934768E-05,9.4905,0,0.6327,-8.392462E-06,9.4905,0
0.6336,2.652018E-05,9.504,0,0.6336,3.994812E-05,9.504,0
0.6345,1.712062E-05,9.5175,0,0.6345,-5.371176E-06,9.5175,0
0.6354,-3.726253E-05,9.531,0,0.6354,-7.653925E-05,9.531,0
0.6363,7.721065E-06,9.5445,0,0.6363,-9.231708E-05,9.5445,0
0.6372,5.270466E-05,9.558,0,0.6372,-4.733349E-05,9.558,0
0.6381,-1.913481E-05,9.5715,0,0.6381,-5.001907E-05,9.5715,0
0.639,-2.349889E-05,9.585,0,0.639,-7.183947E-05,9.585,0
0.6399,-0.0001054093,9.5985,0,0.6399,-0.000148043,9.5985,0
0.6408,-0.0002145113,9.612,0,0.6408,-0.0001383078,9.612,0
0.6417,-0.0001238727,9.6255,0,0.6417,-0.0001238727,9.6255,0
0.6426,0.0001070878,9.639,0,0.6426,-0.0001373007,9.639,0
0.6435,0.0001624781,9.6525,0,0.6435,-3.961242E-05,9.6525,0
0.6444,7.016098E-05,9.666,0,0.6444,6.54612E-05,9.666,0
0.6453,4.666209E-05,9.6795,0,0.6453,0.0001950408,9.6795,0
0.6462,-3.826963E-05,9.693,0,0.6462,0.0001514,9.693,0
0.6471,-5.807584E-05,9.7065,0,0.6471,0.0001567712,9.7065,0
0.648,0.0001376364,9.72,0,0.648,0.0001379721,9.72,0
0.6489,0.0001930266,9.7335,0,0.6489,8.358892E-05,9.7335,0
0.6498,0.0001920195,9.747,0,0.6498,2.24918E-05,9.747,0
0.6507,1.040665E-05,9.7605,0,0.6507,7.385367E-06,9.7605,0
0.6516,-6.277562E-05,9.774,0,0.6516,3.189136E-05,9.774,0
0.6525,3.021286E-06,9.7875,0,0.6525,-1.443504E-05,9.7875,0
0.6534,-5.438316E-05,9.801,0,0.6534,-6.378271E-05,9.801,0
0.6543,2.920577E-05,9.8145,0,0.6543,-4.867628E-05,9.8145,0
0.6552,6.009003E-05,9.828,0,0.6552,-0.0001037308,9.828,0
0.6561,-1.242084E-05,9.8415,0,0.6561,-0.0001514,9.8415,0
0.657,-0.0001527428,9.855,0,0.657,-0.0001097734,9.855,0
0.6579,-0.0002635233,9.8685,0,0.6579,-4.33051E-05,9.8685,0
0.6588,-0.0001453574,9.882,0,0.6588,7.049668E-06,9.882,0
0.6597,-0.0001064164,9.8955,0,0.6597,2.652018E-05,9.8955,0
0.6606,3.591974E-05,9.909,0,0.6606,-3.524834E-05,9.909,0
0.6615,4.39765E-05,9.9225,0,0.6615,-5.639734E-05,9.9225,0
0.6624,-5.404745E-05,9.936,0,0.6624,-4.095522E-05,9.936,0
0.6633,-3.558404E-05,9.9495,0,0.6633,-7.049668E-06,9.9495,0
0.6642,-4.733349E-05,9.963,0,0.6642,1.544213E-05,9.963,0
0.6651,-0.0001420005,9.976501,0,0.6651,3.994812E-05,9.976501,0
0.666,-0.0001863127,9.99,0,0.666,-7.049668E-06,9.99,0
0.6669,-4.632639E-05,10.0035,0,0.6669,-7.486076E-05,10.0035,0
0.6678,-1.443504E-05,10.017,0,0.6678,-3.457694E-05,10.017,0
0.6687,-3.356985E-07,10.0305,0,0.6687,-6.78111E-05,10.0305,0
0.6696,9.433127E-05,10.044,0,0.6696,-0.0001574426,10.044,0
0.6705,0.0001205158,10.0575,0,0.6705,-0.0001255512,10.0575,0
0.6714,6.076142E-05,10.071,0,0.6714,-8.493171E-05,10.071,0
0.6723,1.745632E-05,10.0845,0,0.6723,-0.0001084306,10.0845,0
0.6732,-2.517739E-05,10.098,0,0.6732,-4.028382E-05,10.098,0
0.6741,-3.424125E-05,10.1115,0,0.6741,5.438316E-05,10.1115,0
0.675,-2.618448E-05,10.125,0,0.675,9.802396E-05,10.125,0
0.6759,4.49836E-05,10.1385,0,0.6759,6.54612E-05,10.1385,0
0.6768,0.0001279011,10.152,0,0.6768,2.786297E-05,10.152,0
0.6777,0.0001832914,10.1655,0,0.6777,7.620356E-05,10.1655,0
0.6786,0.0002447242,10.179,0,0.6786,2.887007E-05,10.179,0
0.6795,0.0002366674,10.1925,0,0.6795,-8.493171E-05,10.1925,0
0.6804,0.0001064164,10.206,0,0.6804,-0.0001819486,10.206,0
0.6813,-0.0002098116,10.2195,0,0.6813,-0.0002668803,10.2195,0
0.6822,-0.0001994049,10.233,0,0.6822,-0.000322942,10.233,0
0.6831,-0.0002165255,10.2465,0,0.6831,-0.0002984359,10.2465,0
0.684,-0.000144686,10.26,0,0.684,-0.0001352865,10.26,0
0.6849,-1.174945E-05,10.2735,0,0.6849,4.196231E-05,10.2735,0
0.6858,-5.874724E-05,10.287,0,0.6858,0.0002464027,10.287,0
0.6867,-7.721065E-05,10.3005,0,0.6867,0.0004733349,10.3005,0
0.6876,-1.443504E-05,10.314,0,0.6876,0.0004132448,10.314,0
0.6885,-4.766919E-05,10.3275,0,0.6885,0.0002423743,10.3275,0
0.6894,-4.095522E-05,10.341,0,0.6894,0.0001836271,10.341,0
0.6903,2.047761E-05,10.3545,0,0.6903,9.298848E-05,10.3545,0
0.6912,3.323415E-05,10.368,0,0.6912,3.054856E-05,10.368,0
0.6921,-3.356985E-07,10.3815,0,0.6921,1.242084E-05,10.3815,0
0.693,-1.174945E-05,10.395,0,0.693,-3.256275E-05,10.395,0
0.6939,-3.692683E-06,10.4085,0,0.6939,-5.539025E-05,10.4085,0
0.6948,-2.014191E-06,10.422,0,0.6948,2.685588E-06,10.422,0
0.6957,9.735256E-06,10.4355,0,0.6957,-2.316319E-05,10.4355,0
0.6966,7.083238E-05,10.449,0,0.6966,-0.0001007095,10.449,0
0.6975,7.083238E-05,10.4625,0,0.6975,-0.000133608,10.4625,0
0.6984,3.088426E-05,10.476,0,0.6984,-0.0001238727,10.476,0
0.6993,5.035477E-05,10.4895,0,0.6993,-0.0001299153,10.4895,0
0.7002,3.121996E-05,10.503,0,0.7002,-0.0001138018,10.503,0
0.7011,1.409934E-05,10.5165,0,0.7011,-3.659113E-05,10.5165,0
0.702,7.989624E-05,10.53,0,0.702,1.577783E-05,10.53,0
0.7029,6.277562E-05,10.5435,0,0.7029,-2.1149E-05,10.5435,0
0.7038,8.560311E-05,10.557,0,0.7038,-5.035477E-05,10.557,0
0.7047,-2.517739E-05,10.5705,0,0.7047,-6.076142E-05,10.5705,0
0.7056,-4.129091E-05,10.584,0,0.7056,-7.821774E-05,10.584,0
0.7065,3.390555E-05,10.5975,0,0.7065,-9.835965E-05,10.5975,0
0.7074,1.443504E-05,10.611,0,0.7074,-9.634547E-05,10.611,0
0.7083,6.311131E-05,10.6245,0,0.7083,-6.042573E-05,10.6245,0
0.7092,3.994812E-05,10.638,0,0.7092,-4.766919E-05,10.638,0
0.7101,-1.040665E-05,10.6515,0,0.7101,-5.035477E-05,10.6515,0
0.711,-1.443504E-05,10.665,0,0.711,3.860533E-05,10.665,0
0.7119,-5.169757E-05,10.6785,0,0.7119,2.551309E-05,10.6785,0
0.7128,6.6804E-05,10.692,0,0.7128,-0.0001282368,10.692,0
0.7137,0.0003038071,10.7055,0,0.7137,-0.0002192111,10.7055,0
0.7146,0.0002789654,10.719,0,0.7146,-0.0002218967,10.719,0
0.7155,0.0001117876,10.7325,0,0.7155,-0.0002108186,10.7325,0
0.7164,-7.183947E-05,10.746,0,0.7164,-0.0001060807,10.746,0
0.7173,-0.0003205921,10.7595,0,0.7173,4.666209E-05,10.7595,0
0.7182,-0.0005898222,10.773,0,0.7182,0.0001070878,10.773,0
0.7191,-0.0006703899,10.7865,0,0.7191,0.0001755703,10.7865,0
0.72,-0.0003346914,10.8,0,0.72,0.000218204,10.8,0
0.7209,4.36408E-06,10.8135,0,0.7209,0.0002091402,10.8135,0
0.7218,2.047761E-05,10.827,0,0.7218,0.0001765774,10.827,0
0.7227,-1.275654E-05,10.8405,0,0.7227,7.486076E-05,10.8405,0
0.7236,-3.793393E-05,10.854,0,0.7236,-1.208515E-05,10.854,0
0.7245,-4.666209E-05,10.8675,0,0.7245,-2.685588E-06,10.8675,0
0.7254,-2.752728E-05,10.881,0,0.7254,-6.713969E-07,10.881,0
0.7263,3.323415E-05,10.8945,0,0.7263,-4.800488E-05,10.8945,0
0.7272,3.860533E-05,10.908,0,0.7272,-6.344701E-05,10.908,0
0.7281,3.424125E-05,10.9215,0,0.7281,-4.196231E-05,10.9215,0
0.729,7.855344E-05,10.935,0,0.729,-1.712062E-05,10.935,0
0.7299,8.224613E-05,10.9485,0,0.7299,8.056763E-06,10.9485,0
0.7308,0.0001423362,10.962,0,0.7308,-1.342794E-05,10.962,0
0.7317,0.0004911269,10.9755,0,0.7317,-1.712062E-05,10.9755,0
0.7326,0.0005300679,10.989,0,0.7326,-8.090334E-05,10.989,0
0.7335,0.0003185779,11.0025,0,0.7335,-0.0002453956,11.0025,0
0.7344,4.867628E-05,11.016,0,0.7344,-0.0004427863,11.016,0
0.7353,-0.0003064927,11.0295,0,0.7353,-0.0004394293,11.0295,0
0.7362,-0.0002225681,11.043,0,0.7362,-0.0003894102,11.043,0
0.7371,-9.063859E-05,11.0565,0,0.7371,-0.0001681849,11.0565,0
0.738,-0.0002309606,11.07,0,0.738,0.0001980621,11.07,0
0.7389,-0.0003732967,11.0835,0,0.7389,0.0003467765,11.0835,0
0.7398,-0.0002840009,11.097,0,0.7398,0.000361883,11.097,0
0.7407,-0.0002588235,11.1105,0,0.7407,0.0003967956,11.1105,0
0.7416,-0.0002615091,11.124,0,0.7416,0.0002762798,11.124,0
0.7425,-4.36408E-05,11.1375,0,0.7425,0.0001554284,11.1375,0
0.7434,-1.309224E-05,11.151,0,0.7434,9.970245E-05,11.151,0
0.7443,1.007095E-06,11.1645,0,0.7443,2.920577E-05,11.1645,0
0.7452,2.920577E-05,11.178,0,0.7452,1.745632E-05,11.178,0
0.7461,4.53193E-05,11.1915,0,0.7461,3.356985E-06,11.1915,0
0.747,1.443504E-05,11.205,0,0.747,-5.136187E-05,11.205,0
0.7479,1.577783E-05,11.2185,0,0.7479,-8.761731E-05,11.2185,0
0.7488,7.217517E-05,11.232,0,0.7488,-2.18204E-05,11.232,0
0.7497,5.169757E-05,11.2455,0,0.7497,-3.625543E-05,11.2455,0
0.7506,6.009003E-05,11.259,0,0.7506,-9.298848E-05,11.259,0
0.7515,6.143282E-05,11.2725,0,0.7515,-6.277562E-05,11.2725,0
0.7524,5.035477E-05,11.286,0,0.7524,-3.860533E-05,11.286,0
0.7533,6.311131E-05,11.2995,0,0.7533,-5.740444E-05,11.2995,0
0.7542,3.994812E-05,11.313,0,0.7542,-5.975433E-05,11.313,0
0.7551,4.766919E-05,11.3265,0,0.7551,-2.719158E-05,11.3265,0
0.756,6.109713E-05,11.34,0,0.756,-4.934768E-05,11.34,0
0.7569,7.284657E-05,11.3535,0,0.7569,-5.975433E-05,11.3535,0
0.7578,8.023193E-05,11.367,0,0.7578,-6.74754E-05,11.367,0
0.7587,6.881819E-05,11.3805,0,0.7587,-3.927672E-05,11.3805,0
0.7596,0.0001671778,11.394,0,0.7596,-4.028382E-05,11.394,0
0.7605,0.0002145113,11.4075,0,0.7605,-5.203327E-05,11.4075,0
0.7614,0.0001782559,11.421,0,0.7614,-6.915389E-05,11.421,0
0.7623,0.0001003738,11.4345,0,0.7623,-4.061952E-05,11.4345,0
0.7632,2.719158E-05,11.448,0,0.7632,-3.021286E-05,11.448,0
0.7641,-0.0002517739,11.4615,0,0.7641,-0.0001050736,11.4615,0
0.765,-0.0002635233,11.475,0,0.765,-0.0001963836,11.475,0
0.7659,-0.0001064164,11.4885,0,0.7659,-0.0001889983,11.4885,0
0.7668,-9.365987E-05,11.502,0,0.7668,-0.0001564355,11.502,0
0.7677,-5.136187E-05,11.5155,0,0.7677,-0.0001225299,11.5155,0
0.7686,2.786297E-05,11.529,0,0.7686,-2.18204E-05,11.529,0
0.7695,5.035477E-05,11.5425,0,0.7695,0.0001211871,11.5425,0
0.7704,1.577783E-05,11.556,0,0.7704,9.097429E-05,11.556,0
0.7713,-1.409934E-05,11.5695,0,0.7713,-5.404745E-05,11.5695,0
0.7722,-5.774014E-05,11.583,0,0.7722,-3.591974E-05,11.583,0
0.7731,-5.169757E-05,11.5965,0,0.7731,2.685588E-06,11.5965,0
0.774,7.721065E-06,11.61,0,0.774,3.826963E-05,11.61,0
0.7749,2.450599E-05,11.6235,0,0.7749,2.786297E-05,11.6235,0
0.7758,5.471885E-05,11.637,0,0.7758,0.0001218585,11.637,0
0.7767,9.298848E-05,11.6505,0,0.7767,0.0001151446,11.6505,0
0.7776,8.69459E-05,11.664,0,0.7776,9.735256E-06,11.664,0
0.7785,3.726253E-05,11.6775,0,0.7785,3.659113E-05,11.6775,0
0.7794,-3.356985E-07,11.691,0,0.7794,3.524834E-05,11.691,0
0.7803,-6.143282E-05,11.7045,0,0.7803,-4.901198E-05,11.7045,0
0.7812,-0.000148043,11.718,0,0.7812,-3.256275E-05,11.718,0
0.7821,-8.023193E-05,11.7315,0,0.7821,-2.1149E-05,11.7315,0
0.783,-1.309224E-05,11.745,0,0.783,-1.074235E-05,11.745,0
0.7839,-3.591974E-05,11.7585,0,0.7839,-1.074235E-05,11.7585,0
0.7848,-3.524834E-05,11.772,0,0.7848,-1.141375E-05,11.772,0
0.7857,-2.819867E-05,11.7855,0,0.7857,3.860533E-05,11.7855,0
0.7866,1.007095E-06,11.799,0,0.7866,2.920577E-05,11.799,0
0.7875,0,11.8125,0,0.7875,-9.735256E-06,11.8125,0
0.7884,1.040665E-05,11.826,0,0.7884,-2.752728E-05,11.826,0
0.7893,1.174945E-05,11.8395,0,0.7893,1.040665E-05,11.8395,0
0.7902,-4.196231E-05,11.853,0,0.7902,-3.524834E-05,11.853,0
0.7911,1.879912E-05,11.8665,0,0.7911,-5.539025E-05,11.8665,0
0.792,3.826963E-05,11.88,0,0.792,-2.920577E-05,11.88,0
0.7929,3.189136E-05,11.8935,0,0.7929,-1.107805E-05,11.8935,0
0.7938,5.337606E-05,11.907,0,0.7938,-3.927672E-05,11.907,0
0.7947,5.404745E-05,11.9205,0,0.7947,-5.505455E-05,11.9205,0
0.7956,4.800488E-05,11.934,0,0.7956,-3.054856E-05,11.934,0
0.7965,-2.24918E-05,11.9475,0,0.7965,-4.49836E-05,11.9475,0
0.7974,-2.819867E-05,11.961,0,0.7974,-4.229801E-05,11.961,0
0.7983,-0.0001366293,11.9745,0,0.7983,-7.083238E-05,11.9745,0
0.7992,-0.0001373007,11.988,0,0.7992,-5.270466E-05,11.988,0
0.8001,-5.606165E-05,12.0015,0,0.8001,-1.107805E-05,12.0015,0
0.801,-7.284657E-05,12.015,0,0.801,-1.779202E-05,12.015,0
0.8019,-3.356985E-07,12.0285,0,0.8019,-5.035477E-05,12.0285,0
0.8028,-8.056763E-06,12.042,0,0.8028,-2.484169E-05,12.042,0
0.8037,-5.169757E-05,12.0555,0,0.8037,-2.786297E-05,12.0555,0
0.8046,0,12.069,0,0.8046,-4.968337E-05,12.069,0
0.8055,-2.18204E-05,12.0825,0,0.8055,-5.706874E-06,12.0825,0
0.8064,1.342794E-06,12.096,0,0.8064,7.385367E-06,12.096,0
0.8073,1.712062E-05,12.1095,0,0.8073,-1.275654E-05,12.1095,0
0.8082,-3.088426E-05,12.123,0,0.8082,2.014191E-06,12.123,0
0.8091,-1.309224E-05,12.1365,0,0.8091,3.726253E-05,12.1365,0
0.81,2.24918E-05,12.15,0,0.81,5.001907E-05,12.15,0
0.8109,-1.409934E-05,12.1635,0,0.8109,1.812772E-05,12.1635,0
0.8118,-3.356985E-07,12.177,0,0.8118,-2.014191E-06,12.177,0
0.8127,2.1149E-05,12.1905,0,0.8127,5.035477E-06,12.1905,0
0.8136,-4.699779E-06,12.204,0,0.8136,-1.342794E-06,12.204,0
0.8145,3.457694E-05,12.2175,0,0.8145,-7.385367E-06,12.2175,0
0.8154,7.620356E-05,12.231,0,0.8154,-3.289845E-05,12.231,0
0.8163,7.620356E-05,12.2445,0,0.8163,-2.18204E-05,12.2445,0
0.8172,8.92958E-05,12.258,0,0.8172,-4.36408E-05,12.258,0
0.8181,9.097429E-05,12.2715,0,0.8181,-8.82887E-05,12.2715,0
0.819,6.881819E-05,12.285,0,0.819,-4.867628E-05,12.285,0
0.8199,5.203327E-05,12.2985,0,0.8199,-4.129091E-05,12.2985,0
0.8208,9.802396E-05,12.312,0,0.8208,-7.284657E-05,12.312,0
0.8217,-2.450599E-05,12.3255,0,0.8217,-0.0001010452,12.3255,0
0.8226,-0.0001409934,12.339,0,0.8226,-7.888914E-05,12.339,0
0.8235,-4.766919E-05,12.3525,0,0.8235,-4.39765E-05,12.3525,0
0.8244,-0.0001594568,12.366,0,0.8244,-6.109713E-05,12.366,0
0.8253,-0.0001809415,12.3795,0,0.8253,-5.673304E-05,12.3795,0
0.8262,-7.016098E-05,12.393,0,0.8262,1.812772E-05,12.393,0
0.8271,-0.0001174945,12.4065,0,0.8271,8.358892E-05,12.4065,0
0.828,-0.0001554284,12.42,0,0.828,4.800488E-05,12.42,0
0.8289,-5.404745E-05,12.4335,0,0.8289,2.920577E-05,12.4335,0
0.8298,-2.517739E-05,12.447,0,0.8298,4.39765E-05,12.447,0
0.8307,-8.627451E-05,12.4605,0,0.8307,1.510643E-05,12.4605,0
0.8316,1.846342E-05,12.474,0,0.8316,-4.061952E-05,12.474,0
0.8325,5.539025E-05,12.4875,0,0.8325,5.035477E-06,12.4875,0
0.8334,-2.819867E-05,12.501,0,0.8334,-1.678492E-06,12.501,0
0.8343,-6.210422E-05,12.5145,0,0.8343,-7.284657E-05,12.5145,0
0.8352,-2.987716E-05,12.528,0,0.8352,-4.699779E-05,12.528,0
0.8361,-7.418937E-05,12.5415,0,0.8361,-8.728161E-06,12.5415,0
0.837,3.323415E-05,12.555,0,0.837,-1.678492E-05,12.555,0
0.8379,5.270466E-05,12.5685,0,0.8379,-1.678492E-05,12.5685,0
0.8388,1.510643E-05,12.582,0,0.8388,-3.659113E-05,12.582,0
0.8397,4.196231E-05,12.5955,0,0.8397,-1.846342E-05,12.5955,0
0.8406,5.807584E-05,12.609,0,0.8406,8.728161E-06,12.609,0
0.8415,7.150377E-05,12.6225,0,0.8415,-1.107805E-05,12.6225,0
0.8424,7.183947E-05,12.636,0,0.8424,-3.457694E-05,12.636,0
0.8433,0.0001534142,12.6495,0,0.8433,-6.042573E-06,12.6495,0
0.8442,0.0001346151,12.663,0,0.8442,-1.443504E-05,12.663,0
0.8451,-3.021286E-06,12.6765,0,0.8451,-4.162661E-05,12.6765,0
0.846,-9.433127E-05,12.69,0,0.846,-2.450599E-05,12.69,0
0.8469,-4.095522E-05,12.7035,0,0.8469,-2.719158E-05,12.7035,0
0.8478,-3.356985E-05,12.717,0,0.8478,-4.33051E-05,12.717,0
0.8487,-3.390555E-05,12.7305,0,0.8487,-3.256275E-05,12.7305,0
0.8496,-6.54612E-05,12.744,0,0.8496,-2.484169E-05,12.744,0
0.8505,8.392462E-06,12.7575,0,0.8505,-1.510643E-05,12.7575,0
0.8514,-3.457694E-05,12.771,0,0.8514,-4.095522E-05,12.771,0
0.8523,-3.793393E-05,12.7845,0,0.8523,-4.867628E-05,12.7845,0
0.8532,-5.371176E-06,12.798,0,0.8532,-1.342794E-05,12.798,0
0.8541,-1.208515E-05,12.8115,0,0.8541,-3.692683E-06,12.8115,0
0.855,-1.443504E-05,12.825,0,0.855,-1.376364E-05,12.825,0
0.8559,7.385367E-06,12.8385,0,0.8559,-3.021286E-05,12.8385,0
0.8568,1.141375E-05,12.852,0,0.8568,2.887007E-05,12.852,0
0.8577,3.021286E-06,12.8655,0,0.8577,1.712062E-05,12.8655,0
0.8586,3.289845E-05,12.879,0,0.8586,-4.43122E-05,12.879,0
0.8595001,1.141375E-05,12.8925,0,0.8595001,1.510643E-05,12.8925,0
0.8604,1.644922E-05,12.906,0,0.8604,7.083238E-05,12.906,0
0.8613,3.860533E-05,12.9195,0,0.8613,-2.21561E-05,12.9195,0
0.8622,6.243992E-05,12.933,0,0.8622,-6.076142E-05,12.933,0
0.8631,6.948959E-05,12.9465,0,0.8631,-3.558404E-05,12.9465,0
0.864,7.217517E-05,12.96,0,0.864,-5.069047E-05,12.96,0
0.8649,3.457694E-05,12.9735,0,0.8649,-2.685588E-05,12.9735,0
0.8658,1.712062E-05,12.987,0,0.8658,-4.028382E-06,12.987,0
0.8667,-3.692683E-06,13.0005,0,0.8667,2.752728E-05,13.0005,0
0.8676,-1.309224E-05,13.014,0,0.8676,6.042573E-06,13.014,0
0.8685,-1.644922E-05,13.0275,0,0.8685,-5.169757E-05,13.0275,0
0.8694,-2.786297E-05,13.041,0,0.8694,-6.478981E-05,13.041,0
0.8703,-2.987716E-05,13.0545,0,0.8703,-2.18204E-05,13.0545,0
0.8712,-3.826963E-05,13.068,0,0.8712,-1.376364E-05,13.068,0
0.8721,-3.054856E-05,13.0815,0,0.8721,-1.544213E-05,13.0815,0
0.873,-1.376364E-05,13.095,0,0.873,4.39765E-05,13.095,0
0.8739,-2.24918E-05,13.1085,0,0.8739,4.834058E-05,13.1085,0
0.8748,-4.46479E-05,13.122,0,0.8748,1.745632E-05,13.122,0
0.8757,-3.054856E-05,13.1355,0,0.8757,5.706874E-06,13.1355,0
0.8766,-1.812772E-05,13.149,0,0.8766,6.411841E-05,13.149,0
0.8775,-4.162661E-05,13.1625,0,0.8775,1.242084E-05,13.1625,0
0.8784,-4.129091E-05,13.176,0,0.8784,-5.203327E-05,13.176,0
0.8793,-1.510643E-05,13.1895,0,0.8793,-6.478981E-05,13.1895,0
0.8802,-4.901198E-05,13.203,0,0.8802,-8.69459E-05,13.203,0
0.8811,-6.6804E-05,13.2165,0,0.8811,-0.0001050736,13.2165,0
0.882,-4.733349E-05,13.23,0,0.882,-2.517739E-05,13.23,0
0.8829,-4.129091E-05,13.2435,0,0.8829,-3.390555E-05,13.2435,0
0.8838,-4.733349E-05,13.257,0,0.8838,-3.021286E-05,13.257,0
0.8847,-1.544213E-05,13.2705,0,0.8847,-5.941863E-05,13.2705,0
0.8856,1.477073E-05,13.284,0,0.8856,-7.653925E-05,13.284,0
0.8865,1.409934E-05,13.2975,0,0.8865,3.356985E-07,13.2975,0
0.8874,3.860533E-05,13.311,0,0.8874,1.174945E-05,13.311,0
0.8883,5.606165E-05,13.3245,0,0.8883,-2.987716E-05,13.3245,0
0.8892,2.752728E-05,13.338,0,0.8892,-6.378271E-05,13.338,0
0.8901,4.229801E-05,13.3515,0,0.8901,-2.584878E-05,13.3515,0
0.891,6.277562E-05,13.365,0,0.891,-4.229801E-05,13.365,0
0.8919,2.21561E-05,13.3785,0,0.8919,-7.183947E-05,13.3785,0
0.8928,-5.706874E-06,13.392,0,0.8928,-3.726253E-05,13.392,0
0.8937,-4.699779E-06,13.4055,0,0.8937,2.014191E-06,13.4055,0
0.8946,-3.121996E-05,13.419,0,0.8946,-2.349889E-06,13.419,0
0.8955,-3.994812E-05,13.4325,0,0.8955,-1.007095E-05,13.4325,0
0.8964,-2.786297E-05,13.446,0,0.8964,3.692683E-06,13.446,0
0.8973,-2.954147E-05,13.4595,0,0.8973,5.069047E-05,13.4595,0
0.8982,-5.706874E-06,13.473,0,0.8982,3.021286E-05,13.473,0
0.8991,-3.356985E-07,13.4865,0,0.8991,-2.786297E-05,13.4865,0
0.9,-6.378271E-06,13.5,0,0.9,3.356985E-07,13.5,0
0.9009,-3.189136E-05,13.5135,0,0.9009,2.28275E-05,13.5135,0
0.9018,-6.881819E-05,13.527,0,0.9018,-3.524834E-05,13.527,0
0.9027,-1.141375E-05,13.5405,0,0.9027,-4.129091E-05,13.5405,0
0.9036,-3.793393E-05,13.554,0,0.9036,1.376364E-05,13.554,0
0.9045,-2.786297E-05,13.5675,0,0.9045,4.39765E-05,13.5675,0
0.9054,-7.385367E-06,13.581,0,0.9054,5.404745E-05,13.581,0
0.9063,-1.040665E-05,13.5945,0,0.9063,-2.316319E-05,13.5945,0
0.9072,7.721065E-06,13.608,0,0.9072,-3.323415E-05,13.608,0
0.9081,3.054856E-05,13.6215,0,0.9081,-2.652018E-05,13.6215,0
0.909,3.457694E-05,13.635,0,0.909,-6.210422E-05,13.635,0
0.9099,1.947051E-05,13.6485,0,0.9099,-7.385367E-05,13.6485,0
0.9108,-3.021286E-06,13.662,0,0.9108,-6.378271E-06,13.662,0
0.9117,9.735256E-06,13.6755,0,0.9117,-1.779202E-05,13.6755,0
0.9126,4.061952E-05,13.689,0,0.9126,-6.848249E-05,13.689,0
0.9135,2.517739E-05,13.7025,0,0.9135,-2.685588E-05,13.7025,0
0.9144,4.699779E-06,13.716,0,0.9144,-2.28275E-05,13.716,0
0.9153,-1.342794E-05,13.7295,0,0.9153,-7.956054E-05,13.7295,0
0.9162,-3.121996E-05,13.743,0,0.9162,-9.097429E-05,13.743,0
0.9171,-6.411841E-05,13.7565,0,0.9171,-4.867628E-05,13.7565,0
0.918,-7.217517E-05,13.77,0,0.918,-2.047761E-05,13.77,0
0.9189,-5.539025E-05,13.7835,0,0.9189,-7.049668E-06,13.7835,0
0.9198,-4.196231E-05,13.797,0,0.9198,-2.047761E-05,13.797,0
0.9207,-2.853437E-05,13.8105,0,0.9207,6.54612E-05,13.8105,0
0.9216,-1.007095E-05,13.824,0,0.9216,8.69459E-05,13.824,0
0.9225,-3.021286E-06,13.8375,0,0.9225,2.28275E-05,13.8375,0
0.9234,-2.685588E-06,13.851,0,0.9234,-2.1149E-05,13.851,0
0.9243,-2.014191E-05,13.8645,0,0.9243,4.36408E-06,13.8645,0
0.9252,-5.371176E-06,13.878,0,0.9252,-2.349889E-05,13.878,0
0.9261,-2.349889E-06,13.8915,0,0.9261,-7.284657E-05,13.8915,0
0.927,-2.551309E-05,13.905,0,0.927,-2.719158E-05,13.905,0
0.9279,-2.584878E-05,13.9185,0,0.9279,1.812772E-05,13.9185,0
0.9288,2.383459E-05,13.932,0,0.9288,8.728161E-06,13.932,0
0.9297,-3.323415E-05,13.9455,0,0.9297,9.063859E-06,13.9455,0
0.9306,-5.874724E-05,13.959,0,0.9306,1.678492E-05,13.959,0
0.9315,-1.644922E-05,13.9725,0,0.9315,7.721065E-06,13.9725,0
0.9324,2.349889E-06,13.986,0,0.9324,-3.457694E-05,13.986,0
0.9333,1.947051E-05,13.9995,0,0.9333,-7.620356E-05,13.9995,0
0.9342,2.517739E-05,14.013,0,0.9342,-3.256275E-05,14.013,0
0.9351,5.337606E-05,14.0265,0,0.9351,2.047761E-05,14.0265,0
0.936,3.457694E-05,14.04,0,0.936,-8.056763E-06,14.04,0
0.9369,2.316319E-05,14.0535,0,0.9369,-3.524834E-05,14.0535,0
0.9378,1.409934E-05,14.067,0,0.9378,-4.699779E-06,14.067,0
0.9387,-1.007095E-05,14.0805,0,0.9387,-9.399558E-06,14.0805,0
0.9396001,1.275654E-05,14.094,0,0.9396001,-6.61326E-05,14.094,0
0.9405,5.371176E-06,14.1075,0,0.9405,-3.289845E-05,14.1075,0
0.9414001,2.383459E-05,14.121,0,0.9414001,-3.558404E-05,14.121,0
0.9423,3.793393E-05,14.1345,0,0.9423,-5.606165E-05,14.1345,0
0.9432001,1.141375E-05,14.148,0,0.9432001,-1.913481E-05,14.148,0
0.9441,4.36408E-06,14.1615,0,0.9441,1.174945E-05,14.1615,0
0.9450001,-1.141375E-05,14.175,0,0.9450001,-2.316319E-05,14.175,0
0.9459,-2.081331E-05,14.1885,0,0.9459,-1.779202E-05,14.1885,0
0.9468,-3.256275E-05,14.202,0,0.9468,-1.342794E-05,14.202,0
0.9477,-6.009003E-05,14.2155,0,0.9477,-2.584878E-05,14.2155,0
0.9486,-6.243992E-05,14.229,0,0.9486,-2.517739E-05,14.229,0
0.9495,-5.069047E-05,14.2425,0,0.9495,-4.46479E-05,14.2425,0
0.9504,-4.33051E-05,14.256,0,0.9504,-4.53193E-05,14.256,0
0.9513,-1.107805E-05,14.2695,0,0.9513,-2.18204E-05,14.2695,0
0.9522,-2.014191E-06,14.283,0,0.9522,-5.236896E-05,14.283,0
0.9531,2.24918E-05,14.2965,0,0.9531,-5.539025E-05,14.2965,0
0.954,3.726253E-05,14.31,0,0.954,2.383459E-05,14.31,0
0.9549,3.860533E-05,14.3235,0,0.9549,1.141375E-05,14.3235,0
0.9558,3.189136E-05,14.337,0,0.9558,-2.584878E-05,14.337,0
0.9567,-1.644922E-05,14.3505,0,0.9567,3.356985E-07,14.3505,0
0.9576,-4.599069E-05,14.364,0,0.9576,1.712062E-05,14.364,0
0.9585,-3.793393E-05,14.3775,0,0.9585,-1.409934E-05,14.3775,0
0.9594,-3.256275E-05,14.391,0,0.9594,-3.457694E-05,14.391,0
0.9603,1.980621E-05,14.4045,0,0.9603,-6.210422E-05,14.4045,0
0.9612,3.256275E-05,14.418,0,0.9612,-3.289845E-05,14.418,0
0.9621,2.450599E-05,14.4315,0,0.9621,-1.007095E-05,14.4315,0
0.963,1.007095E-05,14.445,0,0.963,-2.24918E-05,14.445,0
0.9639,2.1149E-05,14.4585,0,0.9639,-4.666209E-05,14.4585,0
0.9648,1.812772E-05,14.472,0,0.9648,-1.812772E-05,14.472,0
0.9657,9.399558E-06,14.4855,0,0.9657,-2.719158E-05,14.4855,0
0.9666,2.21561E-05,14.499,0,0.9666,-3.155566E-05,14.499,0
0.9675,-3.323415E-05,14.5125,0,0.9675,4.263371E-05,14.5125,0
0.9684,-2.18204E-05,14.526,0,0.9684,-7.385367E-06,14.526,0
0.9693,-3.692683E-06,14.5395,0,0.9693,-5.337606E-05,14.5395,0
0.9702,-3.994812E-05,14.553,0,0.9702,9.399558E-06,14.553,0
0.9711,-4.867628E-05,14.5665,0,0.9711,1.342794E-05,14.5665,0
0.972,-5.069047E-05,14.58,0,0.972,-7.150377E-05,14.58,0
0.9729,-5.001907E-05,14.5935,0,0.9729,-6.411841E-05,14.5935,0
0.9738,-3.256275E-05,14.607,0,0.9738,-3.424125E-05,14.607,0
0.9747,0,14.6205,0,0.9747,1.409934E-05,14.6205,0
0.9756,3.054856E-05,14.634,0,0.9756,-7.049668E-06,14.634,0
0.9765,3.927672E-05,14.6475,0,0.9765,1.846342E-05,14.6475,0
0.9774,6.076142E-05,14.661,0,0.9774,4.766919E-05,14.661,0
0.9783,1.309224E-05,14.6745,0,0.9783,6.64683E-05,14.6745,0
0.9792,-2.920577E-05,14.688,0,0.9792,-8.392462E-06,14.688,0
0.9801,3.356985E-06,14.7015,0,0.9801,-7.855344E-05,14.7015,0
0.981,1.947051E-05,14.715,0,0.981,-5.471885E-05,14.715,0
0.9819,-2.719158E-05,14.7285,0,0.9819,-4.263371E-05,14.7285,0
0.9828,-1.242084E-05,14.742,0,0.9828,-6.78111E-05,14.742,0
0.9837,-2.484169E-05,14.7555,0,0.9837,-4.46479E-05,14.7555,0
0.9846,-2.752728E-05,14.769,0,0.9846,4.39765E-05,14.769,0
0.9855,-2.584878E-05,14.7825,0,0.9855,2.652018E-05,14.7825,0
0.9864,-3.021286E-06,14.796,0,0.9864,1.007095E-06,14.796,0
0.9873,6.378271E-06,14.8095,0,0.9873,-1.510643E-05,14.8095,0
0.9882,-1.309224E-05,14.823,0,0.9882,-1.007095E-05,14.823,0
0.9891,-4.129091E-05,14.8365,0,0.9891,1.342794E-06,14.8365,0
0.99,-3.994812E-05,14.85,0,0.99,-2.047761E-05,14.85,0
0.9909,-1.779202E-05,14.8635,0,0.9909,-4.29694E-05,14.8635,0
0.9918,-3.826963E-05,14.877,0,0.9918,-3.356985E-07,14.877,0
0.9927,-2.887007E-05,14.8905,0,0.9927,-2.014191E-06,14.8905,0
0.9936,-1.980621E-05,14.904,0,0.9936,-3.826963E-05,14.904,0
0.9945,-2.517739E-05,14.9175,0,0.9945,-4.699779E-06,14.9175,0
0.9954,7.721065E-06,14.931,0,0.9954,-3.121996E-05,14.931,0
0.9963,2.853437E-05,14.9445,0,0.9963,-5.572595E-05,14.9445,0
0.9972,-1.376364E-05,14.958,0,0.9972,-3.323415E-05,14.958,0
0.9981,1.040665E-05,14.9715,0,0.9981,1.846342E-05,14.9715,0
0.999,5.203327E-05,14.985,0,0.999,1.678492E-06,14.985,0
0.9999,0,14.9985,0,0.9999,-3.524834E-05,14.9985,0
1.0008,-2.517739E-05,15.012,0,1.0008,-3.155566E-05,15.012,0
1.0017,-3.356985E-07,15.0255,0,1.0017,-3.390555E-05,15.0255,0
1.0026,-3.356985E-07,15.039,0,1.0026,-2.652018E-05,15.039,0
1.0035,3.659113E-05,15.0525,0,1.0035,-3.927672E-05,15.0525,0
1.0044,2.517739E-05,15.066,0,1.0044,-4.263371E-05,15.066,0
1.0053,-2.517739E-05,15.0795,0,1.0053,-1.174945E-05,15.0795,0
1.0062,-1.913481E-05,15.093,0,1.0062,-2.887007E-05,15.093,0
1.0071,-1.947051E-05,15.1065,0,1.0071,-3.155566E-05,15.1065,0
1.008,-3.994812E-05,15.12,0,1.008,-1.342794E-06,15.12,0
1.0089,8.392462E-06,15.1335,0,1.0089,1.443504E-05,15.1335,0
1.0098,2.517739E-05,15.147,0,1.0098,-1.913481E-05,15.147,0
1.0107,6.713969E-07,15.1605,0,1.0107,-1.745632E-05,15.1605,0
1.0116,-2.618448E-05,15.174,0,1.0116,-3.256275E-05,15.174,0
1.0125,-6.042573E-06,15.1875,0,1.0125,-4.33051E-05,15.1875,0
1.0134,-5.203327E-05,15.201,0,1.0134,-7.150377E-05,15.201,0
1.0143,-4.934768E-05,15.2145,0,1.0143,-0.0001080949,15.2145,0
1.0152,-5.706874E-06,15.228,0,1.0152,-7.821774E-05,15.228,0
1.0161,-1.309224E-05,15.2415,0,1.0161,-4.36408E-06,15.2415,0
1.017,-1.510643E-05,15.255,0,1.017,8.090334E-05,15.255,0
1.0179,9.063859E-06,15.2685,0,1.0179,0.0001315938,15.2685,0
1.0188,1.980621E-05,15.282,0,1.0188,7.284657E-05,15.282,0
1.0197,7.721065E-06,15.2955,0,1.0197,5.706874E-06,15.2955,0
1.0206,9.063859E-06,15.309,0,1.0206,-2.786297E-05,15.309,0
1.0215,7.049668E-06,15.3225,0,1.0215,-2.014191E-06,15.3225,0
1.0224,1.040665E-05,15.336,0,1.0224,-3.994812E-05,15.336,0
1.0233,5.035477E-06,15.3495,0,1.0233,-0.0001185016,15.3495,0
1.0242,-1.342794E-05,15.363,0,1.0242,-7.754635E-05,15.363,0
1.0251,-2.551309E-05,15.3765,0,1.0251,-1.443504E-05,15.3765,0
1.026,-3.121996E-05,15.39,0,1.026,6.713969E-06,15.39,0
1.0269,-4.129091E-05,15.4035,0,1.0269,3.088426E-05,15.4035,0
1.0278,-9.063859E-06,15.417,0,1.0278,4.599069E-05,15.417,0
1.0287,1.577783E-05,15.4305,0,1.0287,2.047761E-05,15.4305,0
1.0296,4.196231E-05,15.444,0,1.0296,-1.812772E-05,15.444,0
1.0305,-3.356985E-07,15.4575,0,1.0305,-7.418937E-05,15.4575,0
1.0314,-2.719158E-05,15.471,0,1.0314,-0.0001252155,15.471,0
1.0323,-3.793393E-05,15.4845,0,1.0323,-0.0001080949,15.4845,0
1.0332,-1.141375E-05,15.498,0,1.0332,-8.493171E-05,15.498,0
1.0341,1.174945E-05,15.5115,0,1.0341,3.625543E-05,15.5115,0
1.035,-1.779202E-05,15.525,0,1.035,9.735256E-05,15.525,0
1.0359,4.36408E-06,15.5385,0,1.0359,1.678492E-05,15.5385,0
1.0368,2.383459E-05,15.552,0,1.0368,-8.023193E-05,15.552,0
1.0377,1.141375E-05,15.5655,0,1.0377,-5.069047E-05,15.5655,0
1.0386,-3.692683E-06,15.579,0,1.0386,-1.510643E-05,15.579,0
1.0395,-9.399558E-06,15.5925,0,1.0395,-3.222705E-05,15.5925,0
1.0404,-9.735256E-06,15.606,0,1.0404,-2.450599E-05,15.606,0
1.0413,2.24918E-05,15.6195,0,1.0413,-3.894102E-05,15.6195,0
1.0422,5.035477E-05,15.633,0,1.0422,-7.049668E-06,15.633,0
1.0431,-1.678492E-06,15.6465,0,1.0431,2.21561E-05,15.6465,0
1.044,-3.692683E-06,15.66,0,1.044,-3.256275E-05,15.66,0
1.0449,3.323415E-05,15.6735,0,1.0449,-3.961242E-05,15.6735,0
1.0458,-2.081331E-05,15.687,0,1.0458,1.712062E-05,15.687,0
1.0467,-6.881819E-05,15.7005,0,1.0467,7.385367E-06,15.7005,0
1.0476,2.316319E-05,15.714,0,1.0476,-4.29694E-05,15.714,0
1.0485,3.189136E-05,15.7275,0,1.0485,-3.021286E-06,15.7275,0
1.0494,-2.920577E-05,15.741,0,1.0494,-1.779202E-05,15.741,0
1.0503,-1.141375E-05,15.7545,0,1.0503,-4.33051E-05,15.7545,0
1.0512,-2.21561E-05,15.768,0,1.0512,-4.699779E-06,15.768,0
1.0521,-3.793393E-05,15.7815,0,1.0521,-7.721065E-06,15.7815,0
1.053,-2.450599E-05,15.795,0,1.053,-4.934768E-05,15.795,0
1.0539,-2.819867E-05,15.8085,0,1.0539,-9.298848E-05,15.8085,0
1.0548,-2.987716E-05,15.822,0,1.0548,-0.000105745,15.822,0
1.0557,-1.107805E-05,15.8355,0,1.0557,-6.64683E-05,15.8355,0
1.0566,-2.786297E-05,15.849,0,1.0566,-3.390555E-05,15.849,0
1.0575,-3.256275E-05,15.8625,0,1.0575,2.786297E-05,15.8625,0
1.0584,-2.786297E-05,15.876,0,1.0584,7.754635E-05,15.876,0
1.0593,-1.913481E-05,15.8895,0,1.0593,8.358892E-05,15.8895,0
1.0602,-5.706874E-06,15.903,0,1.0602,4.33051E-05,15.903,0
1.0611,1.275654E-05,15.9165,0,1.0611,-5.035477E-06,15.9165,0
1.062,-5.035477E-06,15.93,0,1.062,3.692683E-06,15.93,0
1.0629,1.812772E-05,15.9435,0,1.0629,1.712062E-05,15.9435,0
1.0638,3.256275E-05,15.957,0,1.0638,-2.819867E-05,15.957,0
1.0647,-6.713969E-07,15.9705,0,1.0647,-2.383459E-05,15.9705,0
1.0656,-1.409934E-05,15.984,0,1.0656,-1.678492E-06,15.984,0
1.0665,-1.477073E-05,15.9975,0,1.0665,-1.678492E-06,15.9975,0
1.0674,-1.007095E-06,16.011,0,1.0674,-1.712062E-05,16.011,0
1.0683,-3.356985E-07,16.0245,0,1.0683,-3.256275E-05,16.0245,0
1.0692,4.36408E-06,16.038,0,1.0692,-1.812772E-05,16.038,0
1.0701,-2.349889E-06,16.0515,0,1.0701,-5.035477E-06,16.0515,0
1.071,5.706874E-06,16.065,0,1.071,-2.18204E-05,16.065,0
1.0719,-8.728161E-06,16.0785,0,1.0719,-4.699779E-05,16.0785,0
1.0728,-6.076142E-05,16.092,0,1.0728,-9.735256E-06,16.092,0
1.0737,-6.210422E-05,16.1055,0,1.0737,-2.517739E-05,16.1055,0
1.0746,-3.994812E-05,16.119,0,1.0746,-7.956054E-05,16.119,0
1.0755,-4.867628E-05,16.1325,0,1.0755,-1.644922E-05,16.1325,0
1.0764,-7.016098E-05,16.146,0,1.0764,-1.443504E-05,16.146,0
1.0773,2.685588E-06,16.1595,0,1.0773,-1.879912E-05,16.1595,0
1.0782,4.46479E-05,16.173,0,1.0782,-1.577783E-05,16.173,0
1.0791,1.242084E-05,16.1865,0,1.0791,-2.014191E-06,16.1865,0
1.08,3.323415E-05,16.2,0,1.08,5.371176E-06,16.2,0
1.0809,1.208515E-05,16.2135,0,1.0809,-1.678492E-06,16.2135,0
1.0818,3.457694E-05,16.227,0,1.0818,-2.383459E-05,16.227,0
1.0827,2.853437E-05,16.2405,0,1.0827,-6.042573E-06,16.2405,0
1.0836,1.510643E-05,16.254,0,1.0836,-2.887007E-05,16.254,0
1.0845,2.517739E-05,16.2675,0,1.0845,-6.009003E-05,16.2675,0
1.0854,5.203327E-05,16.281,0,1.0854,-4.867628E-05,16.281,0
1.0863,4.46479E-05,16.2945,0,1.0863,-1.510643E-05,16.2945,0
1.0872,3.692683E-06,16.308,0,1.0872,-2.316319E-05,16.308,0
1.0881,-9.735256E-06,16.3215,0,1.0881,-6.814679E-05,16.3215,0
1.089,-2.987716E-05,16.335,0,1.089,-3.054856E-05,16.335,0
1.0899,-7.486076E-05,16.3485,0,1.0899,-8.392462E-06,16.3485,0
1.0908,-7.217517E-05,16.362,0,1.0908,-4.028382E-05,16.362,0
1.0917,-4.061952E-05,16.3755,0,1.0917,-2.853437E-05,16.3755,0
1.0926,-2.349889E-05,16.389,0,1.0926,7.721065E-06,16.389,0
1.0935,-1.141375E-05,16.4025,0,1.0935,5.035477E-06,16.4025,0
1.0944,-1.107805E-05,16.416,0,1.0944,1.644922E-05,16.416,0
1.0953,-2.584878E-05,16.4295,0,1.0953,3.356985E-06,16.4295,0
1.0962,3.356985E-07,16.443,0,1.0962,2.1149E-05,16.443,0
1.0971,4.162661E-05,16.4565,0,1.0971,1.510643E-05,16.4565,0
1.098,-2.047761E-05,16.47,0,1.098,-3.927672E-05,16.47,0
1.0989,4.36408E-06,16.4835,0,1.0989,-8.426032E-05,16.4835,0
1.0998,4.867628E-05,16.497,0,1.0998,-6.478981E-05,16.497,0
1.1007,1.577783E-05,16.5105,0,1.1007,-3.289845E-05,16.5105,0
1.1016,1.577783E-05,16.524,0,1.1016,-7.486076E-05,16.524,0
1.1025,-2.349889E-06,16.5375,0,1.1025,-4.565499E-05,16.5375,0
1.1034,1.342794E-06,16.551,0,1.1034,-1.007095E-06,16.551,0
1.1043,3.356985E-07,16.5645,0,1.1043,5.203327E-05,16.5645,0
1.1052,-2.719158E-05,16.578,0,1.1052,2.484169E-05,16.578,0
1.1061,-4.162661E-05,16.5915,0,1.1061,1.007095E-05,16.5915,0
1.107,-4.229801E-05,16.605,0,1.107,-1.779202E-05,16.605,0
1.1079,-3.155566E-05,16.6185,0,1.1079,-2.719158E-05,16.6185,0
1.1088,-1.812772E-05,16.632,0,1.1088,-5.471885E-05,16.632,0
1.1097,-1.174945E-05,16.6455,0,1.1097,-2.450599E-05,16.6455,0
1.1106,-4.196231E-05,16.659,0,1.1106,-2.920577E-05,16.659,0
1.1115,-3.256275E-05,16.6725,0,1.1115,-5.001907E-05,16.6725,0
1.1124,-2.349889E-05,16.686,0,1.1124,-6.74754E-05,16.686,0
1.1133,-2.618448E-05,16.6995,0,1.1133,-2.786297E-05,16.6995,0
1.1142,-1.678492E-05,16.713,0,1.1142,-4.36408E-06,16.713,0
1.1151,1.947051E-05,16.7265,0,1.1151,-2.316319E-05,16.7265,0
1.116,1.107805E-05,16.74,0,1.116,2.887007E-05,16.74,0
1.1169,-8.728161E-06,16.7535,0,1.1169,3.356985E-06,16.7535,0
1.1178,-4.36408E-06,16.767,0,1.1178,-3.591974E-05,16.767,0
1.1187,6.042573E-06,16.7805,0,1.1187,-1.947051E-05,16.7805,0
1.1196,-2.719158E-05,16.794,0,1.1196,-2.853437E-05,16.794,0
1.1205,-2.920577E-05,16.8075,0,1.1205,-3.457694E-05,16.8075,0
1.1214,-2.18204E-05,16.821,0,1.1214,-3.591974E-05,16.821,0
1.1223,2.349889E-06,16.8345,0,1.1223,-6.814679E-05,16.8345,0
1.1232,1.376364E-05,16.848,0,1.1232,-4.36408E-05,16.848,0
1.1241,-5.706874E-06,16.8615,0,1.1241,-3.021286E-06,16.8615,0
1.125,4.36408E-06,16.875,0,1.125,-7.049668E-06,16.875,0
1.1259,-3.021286E-06,16.8885,0,1.1259,-2.450599E-05,16.8885,0
1.1268,-3.054856E-05,16.902,0,1.1268,1.712062E-05,16.902,0
1.1277,-4.867628E-05,16.9155,0,1.1277,-6.713969E-06,16.9155,0
1.1286,-5.069047E-05,16.929,0,1.1286,-4.061952E-05,16.929,0
1.1295,-5.740444E-05,16.9425,0,1.1295,5.035477E-06,16.9425,0
1.1304,-1.309224E-05,16.956,0,1.1304,2.920577E-05,16.956,0
1.1313,1.040665E-05,16.9695,0,1.1313,-7.385367E-06,16.9695,0
1.1322,1.309224E-05,16.983,0,1.1322,-2.18204E-05,16.983,0
1.1331,3.894102E-05,16.9965,0,1.1331,2.349889E-05,16.9965,0
1.134,8.358892E-05,17.01,0,1.134,1.678492E-05,17.01,0
1.1349,9.265278E-05,17.0235,0,1.1349,3.356985E-07,17.0235,0
1.1358,5.539025E-05,17.037,0,1.1358,-4.263371E-05,17.037,0
1.1367,5.874724E-05,17.0505,0,1.1367,-2.853437E-05,17.0505,0
1.1376,3.390555E-05,17.064,0,1.1376,-1.409934E-05,17.064,0
1.1385,2.18204E-05,17.0775,0,1.1385,-3.323415E-05,17.0775,0
1.1394,2.047761E-05,17.091,0,1.1394,-6.74754E-05,17.091,0
1.1403,2.752728E-05,17.1045,0,1.1403,-1.107805E-05,17.1045,0
1.1412,3.994812E-05,17.118,0,1.1412,1.174945E-05,17.118,0
1.1421,3.591974E-05,17.1315,0,1.1421,-1.846342E-05,17.1315,0
1.143,3.356985E-07,17.145,0,1.143,1.678492E-06,17.145,0
1.1439,-3.356985E-06,17.1585,0,1.1439,1.577783E-05,17.1585,0
1.1448,-5.270466E-05,17.172,0,1.1448,-2.450599E-05,17.172,0
1.1457,-5.404745E-05,17.1855,0,1.1457,-2.618448E-05,17.1855,0
1.1466,-4.162661E-05,17.199,0,1.1466,-1.879912E-05,17.199,0
1.1475,-8.358892E-05,17.2125,0,1.1475,-4.46479E-05,17.2125,0
1.1484,-8.996719E-05,17.226,0,1.1484,-1.980621E-05,17.226,0
1.1493,-5.069047E-05,17.2395,0,1.1493,-4.33051E-05,17.2395,0
1.1502,-9.063859E-06,17.253,0,1.1502,-7.721065E-06,17.253,0
1.1511,-1.980621E-05,17.2665,0,1.1511,1.376364E-05,17.2665,0
1.152,-4.46479E-05,17.28,0,1.152,-1.644922E-05,17.28,0
1.1529,-1.980621E-05,17.2935,0,1.1529,-2.920577E-05,17.2935,0
1.1538,-4.162661E-05,17.307,0,1.1538,1.040665E-05,17.307,0
1.1547,-4.766919E-05,17.3205,0,1.1547,-4.36408E-06,17.3205,0
1.1556,-4.129091E-05,17.334,0,1.1556,-6.478981E-05,17.334,0
1.1565,-3.457694E-05,17.3475,0,1.1565,-8.056763E-06,17.3475,0
1.1574,9.735256E-06,17.361,0,1.1574,-1.107805E-05,17.361,0
1.1583,6.411841E-05,17.3745,0,1.1583,-5.706874E-05,17.3745,0
1.1592,4.49836E-05,17.388,0,1.1592,-5.673304E-05,17.388,0
1.1601,1.779202E-05,17.4015,0,1.1601,-5.572595E-05,17.4015,0
1.161,2.786297E-05,17.415,0,1.161,-7.855344E-05,17.415,0
1.1619,1.980621E-05,17.4285,0,1.1619,-5.874724E-05,17.4285,0
1.1628,-8.392462E-06,17.442,0,1.1628,1.275654E-05,17.442,0
1.1637,-2.484169E-05,17.4555,0,1.1637,5.337606E-05,17.4555,0
1.1646,-1.174945E-05,17.469,0,1.1646,4.061952E-05,17.469,0
1.1655,-3.894102E-05,17.4825,0,1.1655,-1.342794E-06,17.4825,0
1.1664,-3.054856E-05,17.496,0,1.1664,-3.256275E-05,17.496,0
1.1673,-1.174945E-05,17.5095,0,1.1673,-2.685588E-06,17.5095,0
1.1682,-6.009003E-05,17.523,0,1.1682,-7.049668E-06,17.523,0
1.1691,-1.174945E-05,17.5365,0,1.1691,-3.558404E-05,17.5365,0
1.17,9.735256E-06,17.55,0,1.17,1.342794E-06,17.55,0
1.1709,9.735256E-06,17.5635,0,1.1709,7.721065E-06,17.5635,0
1.1718,2.047761E-05,17.577,0,1.1718,-1.107805E-05,17.577,0
1.1727,-5.203327E-05,17.5905,0,1.1727,3.692683E-06,17.5905,0
1.1736,-0.0001185016,17.604,0,1.1736,-1.779202E-05,17.604,0
1.1745,-0.0001084306,17.6175,0,1.1745,-3.289845E-05,17.6175,0
1.1754,-5.136187E-05,17.631,0,1.1754,-4.46479E-05,17.631,0
1.1763,-3.155566E-05,17.6445,0,1.1763,-8.96315E-05,17.6445,0
1.1772,-3.323415E-05,17.658,0,1.1772,-0.0001295796,17.658,0
1.1781,-1.712062E-05,17.6715,0,1.1781,-0.0001054093,17.6715,0
1.179,-1.678492E-06,17.685,0,1.179,-1.644922E-05,17.685,0
1.1799,6.344701E-05,17.6985,0,1.1799,0.0001121233,17.6985,0
1.1808,0.000102388,17.712,0,1.1808,0.0001285725,17.712,0
1.1817,8.023193E-05,17.7255,0,1.1817,2.819867E-05,17.7255,0
1.1826,7.083238E-05,17.739,0,1.1826,-7.049668E-06,17.739,0
1.1835,4.901198E-05,17.7525,0,1.1835,1.779202E-05,17.7525,0
1.1844,4.968337E-05,17.766,0,1.1844,2.987716E-05,17.766,0
1.1853,6.243992E-05,17.7795,0,1.1853,-1.309224E-05,17.7795,0
1.1862,1.812772E-05,17.793,0,1.1862,-4.36408E-05,17.793,0
1.1871,1.040665E-05,17.8065,0,1.1871,-4.46479E-05,17.8065,0
1.188,-4.33051E-05,17.82,0,1.188,-5.404745E-05,17.82,0
1.1889,-6.210422E-05,17.8335,0,1.1889,-3.121996E-05,17.8335,0
1.1898,-1.376364E-05,17.847,0,1.1898,-3.121996E-05,17.847,0
1.1907,5.706874E-06,17.8605,0,1.1907,-1.107805E-05,17.8605,0
1.1916,3.356985E-06,17.874,0,1.1916,-1.879912E-05,17.874,0
1.1925,3.390555E-05,17.8875,0,1.1925,-5.203327E-05,17.8875,0
1.1934,-1.275654E-05,17.901,0,1.1934,-5.572595E-05,17.901,0
1.1943,-4.39765E-05,17.9145,0,1.1943,-1.779202E-05,17.9145,0
1.1952,-2.24918E-05,17.928,0,1.1952,-2.652018E-05,17.928,0
1.1961,-1.443504E-05,17.9415,0,1.1961,-5.774014E-05,17.9415,0
1.197,-8.392462E-06,17.955,0,1.197,-7.721065E-06,17.955,0
1.1979,-4.33051E-05,17.9685,0,1.1979,5.035477E-06,17.9685,0
1.1988,-4.196231E-05,17.982,0,1.1988,-4.733349E-05,17.982,0
1.1997,1.846342E-05,17.9955,0,1.1997,-5.001907E-05,17.9955,0
1.2006,2.28275E-05,18.009,0,1.2006,5.035477E-06,18.009,0
1.2015,1.678492E-05,18.0225,0,1.2015,-4.028382E-06,18.0225,0
1.2024,9.735256E-06,18.036,0,1.2024,-5.706874E-06,18.036,0
1.2033,-1.678492E-06,18.0495,0,1.2033,-4.46479E-05,18.0495,0
1.2042,7.721065E-06,18.063,0,1.2042,-2.24918E-05,18.063,0
1.2051,2.18204E-05,18.0765,0,1.2051,-6.713969E-07,18.0765,0
1.206,-5.706874E-06,18.09,0,1.206,-1.779202E-05,18.09,0
1.2069,-5.606165E-05,18.1035,0,1.2069,-6.076142E-05,18.1035,0
1.2078,-7.385367E-05,18.117,0,1.2078,-2.752728E-05,18.117,0
1.2087,-5.203327E-05,18.1305,0,1.2087,-6.378271E-06,18.1305,0
1.2096,-3.860533E-05,18.144,0,1.2096,-3.256275E-05,18.144,0
1.2105,-4.129091E-05,18.1575,0,1.2105,1.342794E-05,18.1575,0
1.2114,-5.706874E-05,18.171,0,1.2114,3.860533E-05,18.171,0
1.2123,-5.807584E-05,18.1845,0,1.2123,-5.706874E-06,18.1845,0
1.2132,-6.881819E-05,18.198,0,1.2132,-2.517739E-05,18.198,0
1.2141,-1.007095E-05,18.2115,0,1.2141,-4.36408E-06,18.2115,0
1.215,3.189136E-05,18.225,0,1.215,-1.510643E-05,18.225,0
1.2159,5.001907E-05,18.2385,0,1.2159,-1.879912E-05,18.2385,0
1.2168,5.001907E-05,18.252,0,1.2168,-2.349889E-05,18.252,0
1.2177,3.189136E-05,18.2655,0,1.2177,-2.047761E-05,18.2655,0
1.2186,4.36408E-06,18.279,0,1.2186,-1.376364E-05,18.279,0
1.2195,-1.510643E-05,18.2925,0,1.2195,-2.18204E-05,18.2925,0
1.2204,-1.107805E-05,18.306,0,1.2204,-4.39765E-05,18.306,0
1.2213,-1.879912E-05,18.3195,0,1.2213,-7.385367E-06,18.3195,0
1.2222,-1.712062E-05,18.333,0,1.2222,-1.980621E-05,18.333,0
1.2231,1.846342E-05,18.3465,0,1.2231,-7.049668E-05,18.3465,0
1.224,1.712062E-05,18.36,0,1.224,-3.121996E-05,18.36,0
1.2249,1.712062E-05,18.3735,0,1.2249,-7.385367E-06,18.3735,0
1.2258,-1.275654E-05,18.387,0,1.2258,-4.129091E-05,18.387,0
1.2267,-4.46479E-05,18.4005,0,1.2267,-2.786297E-05,18.4005,0
1.2276,-5.874724E-05,18.414,0,1.2276,3.256275E-05,18.414,0
1.2285,-8.358892E-05,18.4275,0,1.2285,1.040665E-05,18.4275,0
1.2294,-3.524834E-05,18.441,0,1.2294,-3.356985E-06,18.441,0
1.2303,3.021286E-06,18.4545,0,1.2303,-1.779202E-05,18.4545,0
1.2312,1.544213E-05,18.468,0,1.2312,-8.392462E-06,18.468,0
1.2321,1.980621E-05,18.4815,0,1.2321,5.035477E-06,18.4815,0
1.233,1.510643E-05,18.495,0,1.233,-2.618448E-05,18.495,0
1.2339,2.450599E-05,18.5085,0,1.2339,-3.256275E-05,18.5085,0
1.2348,-2.920577E-05,18.522,0,1.2348,-3.692683E-06,18.522,0
1.2357,-3.424125E-05,18.5355,0,1.2357,-3.121996E-05,18.5355,0
1.2366,-9.063859E-06,18.549,0,1.2366,-5.941863E-05,18.549,0
1.2375,-2.047761E-05,18.5625,0,1.2375,-1.309224E-05,18.5625,0
1.2384,-5.706874E-06,18.576,0,1.2384,5.035477E-06,18.576,0
1.2393,-1.208515E-05,18.5895,0,1.2393,-3.894102E-05,18.5895,0
1.2402,3.793393E-05,18.603,0,1.2402,-3.088426E-05,18.603,0
1.2411,4.901198E-05,18.6165,0,1.2411,3.692683E-06,18.6165,0
1.242,3.659113E-05,18.63,0,1.242,-1.644922E-05,18.63,0
1.2429,2.014191E-05,18.6435,0,1.2429,-1.376364E-05,18.6435,0
1.2438,3.054856E-05,18.657,0,1.2438,-2.484169E-05,18.657,0
1.2447,5.572595E-05,18.6705,0,1.2447,1.678492E-06,18.6705,0
1.2456,2.551309E-05,18.684,0,1.2456,1.040665E-05,18.684,0
1.2465,-8.056763E-06,18.6975,0,1.2465,-7.385367E-06,18.6975,0
1.2474,1.007095E-05,18.711,0,1.2474,-4.632639E-05,18.711,0
1.2483,9.735256E-06,18.7245,0,1.2483,-2.517739E-05,18.7245,0
1.2492,5.035477E-06,18.738,0,1.2492,-6.915389E-05,18.738,0
1.2501,-1.443504E-05,18.7515,0,1.2501,-0.0001228656,18.7515,0
1.251,-9.063859E-06,18.765,0,1.251,-4.800488E-05,18.765,0
1.2519,1.040665E-05,18.7785,0,1.2519,-3.356985E-06,18.7785,0
1.2528,-1.342794E-05,18.792,0,1.2528,-3.088426E-05,18.792,0
1.2537,-1.107805E-05,18.8055,0,1.2537,-3.793393E-05,18.8055,0
1.2546,-2.719158E-05,18.819,0,1.2546,-1.644922E-05,18.819,0
1.2555,-2.450599E-05,18.8325,0,1.2555,-1.577783E-05,18.8325,0
1.2564,-4.028382E-06,18.846,0,1.2564,-7.721065E-06,18.846,0
1.2573,1.544213E-05,18.8595,0,1.2573,-1.779202E-05,18.8595,0
1.2582,2.383459E-05,18.873,0,1.2582,1.141375E-05,18.873,0
1.2591,-2.887007E-05,18.8865,0,1.2591,1.007095E-05,18.8865,0
1.26,-4.666209E-05,18.9,0,1.26,-1.846342E-05,18.9,0
1.2609,-2.719158E-05,18.9135,0,1.2609,-3.994812E-05,18.9135,0
1.2618,-2.887007E-05,18.927,0,1.2618,1.409934E-05,18.927,0
1.2627,-2.584878E-05,18.9405,0,1.2627,-1.644922E-05,18.9405,0
1.2636,-3.155566E-05,18.954,0,1.2636,-5.203327E-05,18.954,0
1.2645,-1.443504E-05,18.9675,0,1.2645,-5.706874E-06,18.9675,0
1.2654,4.53193E-05,18.981,0,1.2654,3.927672E-05,18.981,0
1.2663,3.994812E-05,18.9945,0,1.2663,1.007095E-06,18.9945,0
1.2672,2.417029E-05,19.008,0,1.2672,-7.721065E-06,19.008,0
1.2681,1.712062E-05,19.0215,0,1.2681,1.510643E-05,19.0215,0
1.269,1.712062E-05,19.035,0,1.269,-1.376364E-05,19.035,0
1.2699,3.692683E-06,19.0485,0,1.2699,-1.309224E-05,19.0485,0
1.2708,-1.443504E-05,19.062,0,1.2708,-1.477073E-05,19.062,0
1.2717,-3.189136E-05,19.0755,0,1.2717,-4.129091E-05,19.0755,0
1.2726,-3.457694E-05,19.089,0,1.2726,-2.853437E-05,19.089,0
1.2735,-1.208515E-05,19.1025,0,1.2735,-1.846342E-05,19.1025,0
1.2744,-4.699779E-05,19.116,0,1.2744,-3.390555E-05,19.116,0
1.2753,-8.426032E-05,19.1295,0,1.2753,-1.812772E-05,19.1295,0
1.2762,-5.471885E-05,19.143,0,1.2762,-2.987716E-05,19.143,0
1.2771,-3.256275E-05,19.1565,0,1.2771,-5.975433E-05,19.1565,0
1.278,-3.457694E-05,19.17,0,1.278,-2.316319E-05,19.17,0
1.2789,-3.356985E-05,19.1835,0,1.2789,1.040665E-05,19.1835,0
1.2798,3.692683E-06,19.197,0,1.2798,-1.141375E-05,19.197,0
1.2807,7.486076E-05,19.2105,0,1.2807,-2.349889E-05,19.2105,0
1.2816,2.28275E-05,19.224,0,1.2816,3.692683E-06,19.224,0
1.2825,2.24918E-05,19.2375,0,1.2825,3.323415E-05,19.2375,0
1.2834,2.719158E-05,19.251,0,1.2834,3.390555E-05,19.251,0
1.2843,8.056763E-06,19.2645,0,1.2843,-1.812772E-05,19.2645,0
1.2852,-3.356985E-06,19.278,0,1.2852,-2.584878E-05,19.278,0
1.2861,-1.174945E-05,19.2915,0,1.2861,-1.443504E-05,19.2915,0
1.287,-5.706874E-06,19.305,0,1.287,-4.49836E-05,19.305,0
1.2879,3.021286E-06,19.3185,0,1.2879,-4.666209E-05,19.3185,0
1.2888,-9.399558E-06,19.332,0,1.2888,2.349889E-06,19.332,0
1.2897,-2.047761E-05,19.3455,0,1.2897,-1.980621E-05,19.3455,0
1.2906,-1.678492E-06,19.359,0,1.2906,-6.076142E-05,19.359,0
1.2915,-1.376364E-05,19.3725,0,1.2915,-2.450599E-05,19.3725,0
1.2924,-3.054856E-05,19.386,0,1.2924,-1.376364E-05,19.386,0
1.2933,-3.927672E-05,19.3995,0,1.2933,-5.774014E-05,19.3995,0
1.2942,-2.819867E-05,19.413,0,1.2942,-2.24918E-05,19.413,0
1.2951,-2.484169E-05,19.4265,0,1.2951,-6.042573E-06,19.4265,0
1.296,6.713969E-07,19.44,0,1.296,-8.728161E-06,19.44,0
1.2969,-1.174945E-05,19.4535,0,1.2969,-2.417029E-05,19.4535,0
1.2978,-2.954147E-05,19.467,0,1.2978,-5.001907E-05,19.467,0
1.2987,-2.24918E-05,19.4805,0,1.2987,-2.18204E-05,19.4805,0
1.2996,3.356985E-07,19.494,0,1.2996,-6.042573E-06,19.494,0
1.3005,-3.356985E-07,19.5075,0,1.3005,-1.644922E-05,19.5075,0
1.3014,-9.735256E-06,19.521,0,1.3014,-3.256275E-05,19.521,0
1.3023,3.021286E-06,19.5345,0,1.3023,1.510643E-05,19.5345,0
1.3032,-1.242084E-05,19.548,0,1.3032,3.356985E-06,19.548,0
1.3041,1.678492E-06,19.5615,0,1.3041,-3.659113E-05,19.5615,0
1.305,-9.399558E-06,19.575,0,1.305,-5.706874E-06,19.575,0
1.3059,-4.061952E-05,19.5885,0,1.3059,-1.309224E-05,19.5885,0
1.3068,-5.706874E-06,19.602,0,1.3068,-4.33051E-05,19.602,0
1.3077,-3.088426E-05,19.6155,0,1.3077,-3.189136E-05,19.6155,0
1.3086,-2.1149E-05,19.629,0,1.3086,3.356985E-07,19.629,0
1.3095,6.713969E-07,19.6425,0,1.3095,9.399558E-06,19.6425,0
1.3104,7.721065E-06,19.656,0,1.3104,1.040665E-05,19.656,0
1.3113,-1.779202E-05,19.6695,0,1.3113,-5.169757E-05,19.6695,0
1.3122,-5.337606E-05,19.683,0,1.3122,-3.558404E-05,19.683,0
1.3131,-4.800488E-05,19.6965,0,1.3131,2.316319E-05,19.6965,0
1.314,-3.793393E-05,19.71,0,1.314,-6.713969E-07,19.71,0
1.3149,-1.779202E-05,19.7235,0,1.3149,-1.678492E-05,19.7235,0
1.3158,1.577783E-05,19.737,0,1.3158,2.014191E-05,19.737,0
1.3167,3.860533E-05,19.7505,0,1.3167,-7.721065E-06,19.7505,0
1.3176,5.673304E-05,19.764,0,1.3176,-5.136187E-05,19.764,0
1.3185,5.606165E-05,19.7775,0,1.3185,1.342794E-06,19.7775,0
1.3194,3.054856E-05,19.791,0,1.3194,1.544213E-05,19.791,0
1.3203,6.713969E-06,19.8045,0,1.3203,-3.457694E-05,19.8045,0
1.3212,-1.980621E-05,19.818,0,1.3212,-4.33051E-05,19.818,0
1.3221,-2.1149E-05,19.8315,0,1.3221,-1.577783E-05,19.8315,0
1.323,3.021286E-06,19.845,0,1.323,-2.014191E-05,19.845,0
1.3239,1.913481E-05,19.8585,0,1.3239,-5.874724E-05,19.8585,0
1.3248,3.021286E-05,19.872,0,1.3248,-9.332418E-05,19.872,0
1.3257,3.591974E-05,19.8855,0,1.3257,-5.807584E-05,19.8855,0
1.3266,1.040665E-05,19.899,0,1.3266,-2.349889E-05,19.899,0
1.3275,-5.706874E-06,19.9125,0,1.3275,-2.517739E-05,19.9125,0
1.3284,-1.644922E-05,19.926,0,1.3284,-4.36408E-06,19.926,0
1.3293,-4.196231E-05,19.9395,0,1.3293,4.800488E-05,19.9395,0
1.3302,-2.987716E-05,19.953,0,1.3302,1.275654E-05,19.953,0
1.3311,-1.376364E-05,19.9665,0,1.3311,-5.136187E-05,19.9665,0
1.332,-4.36408E-06,19.98,0,1.332,-6.378271E-06,19.98,0
1.3329,-1.678492E-06,19.9935,0,1.3329,-1.376364E-05,19.9935,0
1.3338,-5.438316E-05,20.007,0,1.3338,-4.33051E-05,20.007,0
1.3347,-6.57969E-05,20.0205,0,1.3347,-2.450599E-05,20.0205,0
1.3356,-3.189136E-05,20.034,0,1.3356,2.24918E-05,20.034,0
1.3365,-9.063859E-06,20.0475,0,1.3365,1.611353E-05,20.0475,0
1.3374,3.356985E-07,20.061,0,1.3374,6.713969E-07,20.061,0
1.3383,2.853437E-05,20.0745,0,1.3383,-2.652018E-05,20.0745,0
1.3392,4.699779E-06,20.088,0,1.3392,-2.014191E-05,20.088,0
1.3401,2.1149E-05,20.1015,0,1.3401,-2.920577E-05,20.1015,0
1.341,6.411841E-05,20.115,0,1.341,-4.666209E-05,20.115,0
1.3419,6.076142E-05,20.1285,0,1.3419,-4.39765E-05,20.1285,0
1.3428,2.014191E-05,20.142,0,1.3428,-3.524834E-05,20.142,0
1.3437,1.678492E-06,20.1555,0,1.3437,-4.263371E-05,20.1555,0
1.3446,9.735256E-06,20.169,0,1.3446,-7.251087E-05,20.169,0
1.3455,-1.577783E-05,20.1825,0,1.3455,-3.524834E-05,20.1825,0
1.3464,-3.894102E-05,20.196,0,1.3464,9.063859E-06,20.196,0
1.3473,-5.539025E-05,20.2095,0,1.3473,-8.728161E-06,20.2095,0
1.3482,-4.800488E-05,20.223,0,1.3482,2.450599E-05,20.223,0
1.3491,-5.069047E-05,20.2365,0,1.3491,3.659113E-05,20.2365,0
1.35,2.1149E-05,20.25,0,1.35,1.208515E-05,20.25,0
1.3509,2.618448E-05,20.2635,0,1.3509,-9.063859E-06,20.2635,0
1.3518,-5.673304E-05,20.277,0,1.3518,-6.54612E-05,20.277,0
1.3527,-4.733349E-05,20.2905,0,1.3527,-6.378271E-06,20.2905,0
1.3536,-3.927672E-05,20.304,0,1.3536,1.980621E-05,20.304,0
1.3545,-2.920577E-05,20.3175,0,1.3545,-3.088426E-05,20.3175,0
1.3554,7.721065E-06,20.331,0,1.3554,-4.632639E-05,20.331,0
1.3563,-1.745632E-05,20.3445,0,1.3563,-2.081331E-05,20.3445,0
1.3572,-2.987716E-05,20.358,0,1.3572,-3.121996E-05,20.358,0
1.3581,2.383459E-05,20.3715,0,1.3581,-5.404745E-05,20.3715,0
1.359,-5.035477E-06,20.385,0,1.359,-1.477073E-05,20.385,0
1.3599,-3.021286E-06,20.3985,0,1.3599,5.035477E-06,20.3985,0
1.3608,2.954147E-05,20.412,0,1.3608,-2.450599E-05,20.412,0
1.3617,1.846342E-05,20.4255,0,1.3617,-2.316319E-05,20.4255,0
1.3626,-1.309224E-05,20.439,0,1.3626,-4.028382E-06,20.439,0
1.3635,-4.699779E-06,20.4525,0,1.3635,-2.383459E-05,20.4525,0
1.3644,4.36408E-06,20.466,0,1.3644,-5.975433E-05,20.466,0
1.3653,-2.18204E-05,20.4795,0,1.3653,-7.922484E-05,20.4795,0
1.3662,-4.229801E-05,20.493,0,1.3662,-4.49836E-05,20.493,0
1.3671,-3.524834E-05,20.5065,0,1.3671,-1.275654E-05,20.5065,0
1.368,1.040665E-05,20.52,0,1.368,8.392462E-06,20.52,0
1.3689,1.577783E-05,20.5335,0,1.3689,4.53193E-05,20.5335,0
1.3698,-7.721065E-06,20.547,0,1.3698,8.325322E-05,20.547,0
1.3707,-3.021286E-06,20.5605,0,1.3707,-1.242084E-05,20.5605,0
1.3716,2.014191E-06,20.574,0,1.3716,-4.36408E-05,20.574,0
1.3725,-7.721065E-06,20.5875,0,1.3725,-6.713969E-06,20.5875,0
1.3734,2.24918E-05,20.601,0,1.3734,-1.812772E-05,20.601,0
1.3743,2.1149E-05,20.6145,0,1.3743,-5.169757E-05,20.6145,0
1.3752,-1.443504E-05,20.628,0,1.3752,-6.64683E-05,20.628,0
1.3761,-2.349889E-06,20.6415,0,1.3761,-8.392462E-06,20.6415,0
1.377,9.735256E-06,20.655,0,1.377,-1.678492E-05,20.655,0
1.3779,-3.692683E-06,20.6685,0,1.3779,-2.652018E-05,20.6685,0
1.3788,-6.378271E-06,20.682,0,1.3788,-4.33051E-05,20.682,0
1.3797,4.028382E-06,20.6955,0,1.3797,-1.644922E-05,20.6955,0
1.3806,7.049668E-06,20.709,0,1.3806,1.443504E-05,20.709,0
1.3815,-6.378271E-06,20.7225,0,1.3815,-2.24918E-05,20.7225,0
1.3824,1.443504E-05,20.736,0,1.3824,-3.021286E-05,20.736,0
1.3833,-1.107805E-05,20.7495,0,1.3833,1.678492E-06,20.7495,0
1.3842,-2.18204E-05,20.763,0,1.3842,-3.356985E-06,20.763,0
1.3851,-7.049668E-06,20.7765,0,1.3851,-3.826963E-05,20.7765,0
1.386,-3.659113E-05,20.79,0,1.386,-1.577783E-05,20.79,0
1.3869,-5.069047E-05,20.8035,0,1.3869,-7.721065E-06,20.8035,0
1.3878,-4.49836E-05,20.817,0,1.3878,-3.793393E-05,20.817,0
1.3887,-4.599069E-05,20.8305,0,1.3887,-2.081331E-05,20.8305,0
1.3896,-6.61326E-05,20.844,0,1.3896,7.721065E-06,20.844,0
1.3905,-1.712062E-05,20.8575,0,1.3905,-6.042573E-06,20.8575,0
1.3914,1.107805E-05,20.871,0,1.3914,-2.14847E-05,20.871,0
1.3923,2.1149E-05,20.8845,0,1.3923,-2.014191E-05,20.8845,0
1.3932,2.517739E-05,20.898,0,1.3932,-1.107805E-05,20.898,0
1.3941,3.356985E-06,20.9115,0,1.3941,-1.980621E-05,20.9115,0
1.395,-8.392462E-06,20.925,0,1.395,-4.867628E-05,20.925,0
1.3959,2.28275E-05,20.9385,0,1.3959,-5.236896E-05,20.9385,0
1.3968,1.275654E-05,20.952,0,1.3968,-8.728161E-06,20.952,0
1.3977,-5.136187E-05,20.9655,0,1.3977,-5.270466E-05,20.9655,0
1.3986,-2.1149E-05,20.979,0,1.3986,-8.291753E-05,20.979,0
1.3995,-3.121996E-05,20.9925,0,1.3995,-3.726253E-05,20.9925,0
1.4004,-7.385367E-06,21.006,0,1.4004,1.712062E-05,21.006,0
1.4013,1.947051E-05,21.0195,0,1.4013,-1.040665E-05,21.0195,0
1.4022,6.64683E-05,21.033,0,1.4022,0,21.033,0
1.4031,1.913481E-05,21.0465,0,1.4031,9.399558E-06,21.0465,0
1.404,1.174945E-05,21.06,0,1.404,1.007095E-06,21.06,0
1.4049,4.36408E-06,21.0735,0,1.4049,-3.021286E-06,21.0735,0
1.4058,-3.054856E-05,21.087,0,1.4058,-1.141375E-05,21.087,0
1.4067,-5.304036E-05,21.1005,0,1.4067,7.721065E-06,21.1005,0
1.4076,-2.987716E-05,21.114,0,1.4076,2.383459E-05,21.114,0
1.4085,-1.980621E-05,21.1275,0,1.4085,1.007095E-06,21.1275,0
1.4094,-1.745632E-05,21.141,0,1.4094,-2.18204E-05,21.141,0
1.4103,-4.36408E-06,21.1545,0,1.4103,-4.36408E-06,21.1545,0
1.4112,9.735256E-06,21.168,0,1.4112,-2.752728E-05,21.168,0
1.4121,1.242084E-05,21.1815,0,1.4121,-4.867628E-05,21.1815,0
1.413,7.721065E-06,21.195,0,1.413,-3.356985E-06,21.195,0
1.4139,-5.035477E-06,21.2085,0,1.4139,-4.867628E-05,21.2085,0
1.4148,1.275654E-05,21.222,0,1.4148,-9.466698E-05,21.222,0
1.4157,1.745632E-05,21.2355,0,1.4157,-6.54612E-05,21.2355,0
1.4166,-1.745632E-05,21.249,0,1.4166,-4.028382E-06,21.249,0
1.4175,-3.625543E-05,21.2625,0,1.4175,1.678492E-06,21.2625,0
1.4184,-2.18204E-05,21.276,0,1.4184,3.021286E-06,21.276,0
1.4193,1.242084E-05,21.2895,0,1.4193,-2.014191E-05,21.2895,0
1.4202,-1.779202E-05,21.303,0,1.4202,1.174945E-05,21.303,0
1.4211,-4.229801E-05,21.3165,0,1.4211,2.920577E-05,21.3165,0
1.422,-2.047761E-05,21.33,0,1.422,-2.685588E-06,21.33,0
1.4229,-2.450599E-05,21.3435,0,1.4229,-2.887007E-05,21.3435,0
1.4238,-3.726253E-05,21.357,0,1.4238,3.692683E-06,21.357,0
1.4247,-5.706874E-06,21.3705,0,1.4247,-1.477073E-05,21.3705,0
1.4256,7.049668E-06,21.384,0,1.4256,-6.814679E-05,21.384,0
1.4265,-4.29694E-05,21.3975,0,1.4265,-4.733349E-05,21.3975,0
1.4274,5.706874E-06,21.411,0,1.4274,-2.450599E-05,21.411,0
1.4283,4.599069E-05,21.4245,0,1.4283,-3.860533E-05,21.4245,0
1.4292,3.356985E-05,21.438,0,1.4292,-3.692683E-06,21.438,0
1.4301,1.779202E-05,21.4515,0,1.4301,4.061952E-05,21.4515,0
1.431,2.047761E-05,21.465,0,1.431,-7.049668E-06,21.465,0
1.4319,-7.721065E-06,21.4785,0,1.4319,-2.450599E-05,21.4785,0
1.4328,-1.443504E-05,21.492,0,1.4328,-4.129091E-05,21.492,0
1.4337,-1.007095E-05,21.5055,0,1.4337,-3.692683E-05,21.5055,0
1.4346,-1.040665E-05,21.519,0,1.4346,-2.719158E-05,21.519,0
1.4355,-6.713969E-06,21.5325,0,1.4355,-4.699779E-05,21.5325,0
1.4364,2.349889E-06,21.546,0,1.4364,-5.471885E-05,21.546,0
1.4373,6.713969E-07,21.5595,0,1.4373,-1.678492E-06,21.5595,0
1.4382,-2.652018E-05,21.573,0,1.4382,-1.477073E-05,21.573,0
1.4391,2.349889E-06,21.5865,0,1.4391,-4.934768E-05,21.5865,0
1.44,1.309224E-05,21.6,0,1.44,3.054856E-05,21.6,0
1.4409,2.383459E-05,21.6135,0,1.4409,4.632639E-05,21.6135,0
1.4418,-2.819867E-05,21.627,0,1.4418,-1.577783E-05,21.627,0
1.4427,-6.311131E-05,21.6405,0,1.4427,-5.706874E-06,21.6405,0
1.4436,-3.726253E-05,21.654,0,1.4436,7.385367E-06,21.654,0
1.4445,-2.853437E-05,21.6675,0,1.4445,-4.49836E-05,21.6675,0
1.4454,1.712062E-05,21.681,0,1.4454,-3.961242E-05,21.681,0
1.4463,5.001907E-05,21.6945,0,1.4463,-4.36408E-05,21.6945,0
1.4472,4.36408E-06,21.708,0,1.4472,-3.390555E-05,21.708,0
1.4481,1.309224E-05,21.7215,0,1.4481,-9.735256E-06,21.7215,0
1.449,1.040665E-05,21.735,0,1.449,-2.786297E-05,21.735,0
1.4499,5.035477E-06,21.7485,0,1.4499,-1.913481E-05,21.7485,0
1.4508,-9.063859E-06,21.762,0,1.4508,3.356985E-06,21.762,0
1.4517,-3.021286E-06,21.7755,0,1.4517,-9.399558E-06,21.7755,0
1.4526,2.719158E-05,21.789,0,1.4526,-2.887007E-05,21.789,0
1.4535,3.826963E-05,21.8025,0,1.4535,1.779202E-05,21.8025,0
1.4544,5.706874E-06,21.816,0,1.4544,-2.517739E-05,21.816,0
1.4553,-2.920577E-05,21.8295,0,1.4553,-5.136187E-05,21.8295,0
1.4562,-1.947051E-05,21.843,0,1.4562,6.042573E-06,21.843,0
1.4571,-1.510643E-05,21.8565,0,1.4571,1.409934E-05,21.8565,0
1.458,-2.450599E-05,21.87,0,1.458,-4.632639E-05,21.87,0
1.4589,-3.726253E-05,21.8835,0,1.4589,-4.49836E-05,21.8835,0
1.4598,-3.088426E-05,21.897,0,1.4598,-6.411841E-05,21.897,0
1.4607,-2.584878E-05,21.9105,0,1.4607,-6.478981E-05,21.9105,0
1.4616,-3.692683E-05,21.924,0,1.4616,-3.860533E-05,21.924,0
1.4625,-2.450599E-05,21.9375,0,1.4625,-8.728161E-06,21.9375,0
1.4634,2.652018E-05,21.951,0,1.4634,-1.745632E-05,21.951,0
1.4643,3.021286E-06,21.9645,0,1.4643,-3.021286E-06,21.9645,0
1.4652,6.378271E-06,21.978,0,1.4652,-1.107805E-05,21.978,0
1.4661,1.712062E-05,21.9915,0,1.4661,-4.36408E-05,21.9915,0
1.467,-3.121996E-05,22.005,0,1.467,-1.644922E-05,22.005,0
1.4679,-4.36408E-05,22.0185,0,1.4679,1.174945E-05,22.0185,0
1.4688,-2.316319E-05,22.032,0,1.4688,-9.735256E-06,22.032,0
1.4697,-8.056763E-06,22.0455,0,1.4697,-1.107805E-05,22.0455,0
1.4706,-9.399558E-06,22.059,0,1.4706,-3.021286E-06,22.059,0
1.4715,-2.014191E-06,22.0725,0,1.4715,2.349889E-06,22.0725,0
1.4724,-9.063859E-06,22.086,0,1.4724,6.378271E-06,22.086,0
1.4733,-3.088426E-05,22.0995,0,1.4733,-9.735256E-06,22.0995,0
1.4742,-3.088426E-05,22.113,0,1.4742,7.049668E-06,22.113,0
1.4751,-7.385367E-06,22.1265,0,1.4751,1.779202E-05,22.1265,0
1.476,-4.36408E-06,22.14,0,1.476,2.349889E-06,22.14,0
1.4769,-4.36408E-05,22.1535,0,1.4769,-5.841154E-05,22.1535,0
1.4778,-4.263371E-05,22.167,0,1.4778,-1.309224E-05,22.167,0
1.4787,-2.887007E-05,22.1805,0,1.4787,-3.054856E-05,22.1805,0
1.4796,2.349889E-06,22.194,0,1.4796,-9.600977E-05,22.194,0
1.4805,6.713969E-07,22.2075,0,1.4805,-5.069047E-05,22.2075,0
1.4814,-3.659113E-05,22.221,0,1.4814,-1.712062E-05,22.221,0
1.4823,-3.558404E-05,22.2345,0,1.4823,-4.867628E-05,22.2345,0
1.4832,5.035477E-06,22.248,0,1.4832,-4.229801E-05,22.248,0
1.4841,-1.577783E-05,22.2615,0,1.4841,-2.047761E-05,22.2615,0
1.485,1.107805E-05,22.275,0,1.485,-2.517739E-05,22.275,0
1.4859,4.129091E-05,22.2885,0,1.4859,-1.208515E-05,22.2885,0
1.4868,3.021286E-06,22.302,0,1.4868,-2.786297E-05,22.302,0
1.4877,-1.174945E-05,22.3155,0,1.4877,1.107805E-05,22.3155,0
1.4886,1.846342E-05,22.329,0,1.4886,3.390555E-05,22.329,0
1.4895,1.309224E-05,22.3425,0,1.4895,9.399558E-06,22.3425,0
1.4904,7.721065E-06,22.356,0,1.4904,-2.719158E-05,22.356,0
1.4913,-1.644922E-05,22.3695,0,1.4913,-1.644922E-05,22.3695,0
1.4922,-1.342794E-06,22.383,0,1.4922,-3.659113E-05,22.383,0
1.4931,2.047761E-05,22.3965,0,1.4931,-2.081331E-05,22.3965,0
1.494,-2.21561E-05,22.41,0,1.494,-1.678492E-06,22.41,0
1.4949,5.706874E-06,22.4235,0,1.4949,-1.812772E-05,22.4235,0
1.4958,3.524834E-05,22.437,0,1.4958,-2.21561E-05,22.437,0
1.4967,2.987716E-05,22.4505,0,1.4967,-1.879912E-05,22.4505,0
1.4976,4.095522E-05,22.464,0,1.4976,-1.007095E-06,22.464,0
1.4985,3.793393E-05,22.4775,0,1.4985,-1.477073E-05,22.4775,0
1.4994,4.36408E-06,22.491,0,1.4994,-1.644922E-05,22.491,0
1.5003,1.779202E-05,22.5045,0,1.5003,-3.121996E-05,22.5045,0
1.5012,-8.728161E-06,22.518,0,1.5012,-1.980621E-05,22.518,0
1.5021,-8.493171E-05,22.5315,0,1.5021,0,22.5315,0
1.503,-6.6804E-05,22.545,0,1.503,-2.887007E-05,22.545,0
1.5039,-2.24918E-05,22.5585,0,1.5039,-3.692683E-05,22.5585,0
1.5048,-5.807584E-05,22.572,0,1.5048,-4.36408E-06,22.572,0
1.5057,-2.584878E-05,22.5855,0,1.5057,-1.644922E-05,22.5855,0
1.5066,2.584878E-05,22.599,0,1.5066,-3.524834E-05,22.599,0
1.5075,-1.644922E-05,22.6125,0,1.5075,1.846342E-05,22.6125,0
1.5084,-2.383459E-05,22.626,0,1.5084,2.014191E-05,22.626,0
1.5093,6.713969E-07,22.6395,0,1.5093,-1.443504E-05,22.6395,0
1.5102,-2.349889E-06,22.653,0,1.5102,-1.107805E-05,22.653,0
1.5111,-3.356985E-07,22.6665,0,1.5111,7.721065E-06,22.6665,0
1.512,2.383459E-05,22.68,0,1.512,6.378271E-06,22.68,0
1.5129,4.867628E-05,22.6935,0,1.5129,-6.042573E-06,22.6935,0
1.5138,4.39765E-05,22.707,0,1.5138,-1.779202E-05,22.707,0
1.5147,2.584878E-05,22.7205,0,1.5147,-8.392462E-06,22.7205,0
1.5156,-9.063859E-06,22.734,0,1.5156,-6.378271E-06,22.734,0
1.5165,-4.33051E-05,22.7475,0,1.5165,-1.409934E-05,22.7475,0
1.5174,1.174945E-05,22.761,0,1.5174,-2.517739E-05,22.761,0
1.5183,-2.24918E-05,22.7745,0,1.5183,-2.316319E-05,22.7745,0
1.5192,-2.987716E-05,22.788,0,1.5192,-7.855344E-05,22.788,0
1.5201,-1.846342E-05,22.8015,0,1.5201,-7.553216E-05,22.8015,0
1.521,-2.24918E-05,22.815,0,1.521,-1.309224E-05,22.815,0
1.5219,-7.049668E-06,22.8285,0,1.5219,-1.007095E-06,22.8285,0
1.5228,-1.376364E-05,22.842,0,1.5228,-3.524834E-05,22.842,0
1.5237,6.378271E-06,22.8555,0,1.5237,-2.584878E-05,22.8555,0
1.5246,9.063859E-06,22.869,0,1.5246,-7.721065E-06,22.869,0
1.5255,-1.879912E-05,22.8825,0,1.5255,-8.056763E-06,22.8825,0
1.5264,-3.457694E-05,22.896,0,1.5264,-3.524834E-05,22.896,0
1.5273,-1.409934E-05,22.9095,0,1.5273,-5.706874E-05,22.9095,0
1.5282,-3.457694E-05,22.923,0,1.5282,-2.954147E-05,22.923,0
1.5291,-4.666209E-05,22.9365,0,1.5291,-1.678492E-05,22.9365,0
1.53,-1.242084E-05,22.95,0,1.53,-3.927672E-05,22.95,0
1.5309,1.107805E-05,22.9635,0,1.5309,-4.699779E-05,22.9635,0
1.5318,1.174945E-05,22.977,0,1.5318,1.544213E-05,22.977,0
1.5327,-8.392462E-06,22.9905,0,1.5327,9.063859E-06,22.9905,0
1.5336,-1.309224E-05,23.004,0,1.5336,-1.745632E-05,23.004,0
1.5345,-2.383459E-05,23.0175,0,1.5345,-9.063859E-06,23.0175,0
1.5354,-4.39765E-05,23.031,0,1.5354,-2.24918E-05,23.031,0
1.5363,1.678492E-06,23.0445,0,1.5363,-3.591974E-05,23.0445,0
1.5372,2.24918E-05,23.058,0,1.5372,-2.047761E-05,23.058,0
1.5381,-2.853437E-05,23.0715,0,1.5381,-2.047761E-05,23.0715,0
1.539,1.007095E-06,23.085,0,1.539,-5.740444E-05,23.085,0
1.5399,6.076142E-05,23.0985,0,1.5399,-4.733349E-05,23.0985,0
1.5408,2.517739E-05,23.112,0,1.5408,-9.030289E-05,23.112,0
1.5417,4.46479E-05,23.1255,0,1.5417,-4.36408E-05,23.1255,0
1.5426,1.074235E-05,23.139,0,1.5426,4.36408E-05,23.139,0
1.5435,-1.779202E-05,23.1525,0,1.5435,5.471885E-05,23.1525,0
1.5444,5.706874E-06,23.166,0,1.5444,2.652018E-05,23.166,0
1.5453,-9.735256E-06,23.1795,0,1.5453,4.43122E-05,23.1795,0
1.5462,-2.752728E-05,23.193,0,1.5462,1.242084E-05,23.193,0
1.5471,-8.728161E-06,23.2065,0,1.5471,-3.256275E-05,23.2065,0
1.548,-2.349889E-06,23.22,0,1.548,1.040665E-05,23.22,0
1.5489,-2.1149E-05,23.2335,0,1.5489,-2.349889E-06,23.2335,0
1.5498,2.349889E-06,23.247,0,1.5498,-4.36408E-05,23.247,0
1.5507,-2.24918E-05,23.2605,0,1.5507,-4.565499E-05,23.2605,0
1.5516,-4.061952E-05,23.274,0,1.5516,-8.392462E-06,23.274,0
1.5525,3.692683E-06,23.2875,0,1.5525,-1.577783E-05,23.2875,0
1.5534,-4.36408E-06,23.301,0,1.5534,-2.28275E-05,23.301,0
1.5543,-2.752728E-05,23.3145,0,1.5543,-6.210422E-05,23.3145,0
1.5552,-2.081331E-05,23.328,0,1.5552,-3.054856E-05,23.328,0
1.5561,-8.728161E-06,23.3415,0,1.5561,-1.007095E-06,23.3415,0
1.557,1.174945E-05,23.355,0,1.557,-2.316319E-05,23.355,0
1.5579,1.040665E-05,23.3685,0,1.5579,-4.129091E-05,23.3685,0
1.5588,1.376364E-05,23.382,0,1.5588,2.014191E-06,23.382,0
1.5597,-1.409934E-05,23.3955,0,1.5597,1.342794E-06,23.3955,0
1.5606,-2.819867E-05,23.409,0,1.5606,-5.673304E-05,23.409,0
1.5615,-1.947051E-05,23.4225,0,1.5615,-5.706874E-06,23.4225,0
1.5624,-2.920577E-05,23.436,0,1.5624,-5.706874E-06,23.436,0
1.5633,-4.095522E-05,23.4495,0,1.5633,-4.867628E-05,23.4495,0
1.5642,-7.049668E-06,23.463,0,1.5642,-5.606165E-05,23.463,0
1.5651,2.1149E-05,23.4765,0,1.5651,-1.443504E-05,23.4765,0
1.566,-1.913481E-05,23.49,0,1.566,-2.920577E-05,23.49,0
1.5669,-2.786297E-05,23.5035,0,1.5669,-3.524834E-05,23.5035,0
1.5678,-3.356985E-06,23.517,0,1.5678,-9.735256E-06,23.517,0
1.5687,-1.443504E-05,23.5305,0,1.5687,3.793393E-05,23.5305,0
1.5696,2.920577E-05,23.544,0,1.5696,2.920577E-05,23.544,0
1.5705,-6.378271E-06,23.5575,0,1.5705,-4.901198E-05,23.5575,0
1.5714,-2.786297E-05,23.571,0,1.5714,-7.553216E-05,23.571,0
1.5723,-1.174945E-05,23.5845,0,1.5723,-1.342794E-05,23.5845,0
1.5732,1.879912E-05,23.598,0,1.5732,-9.063859E-06,23.598,0
1.5741,2.920577E-05,23.6115,0,1.5741,-3.927672E-05,23.6115,0
1.575,-3.021286E-06,23.625,0,1.575,-5.035477E-06,23.625,0
1.5759,-2.18204E-05,23.6385,0,1.5759,-1.107805E-05,23.6385,0
1.5768,-1.376364E-05,23.652,0,1.5768,-4.46479E-05,23.652,0
1.5777,-5.841154E-05,23.6655,0,1.5777,-2.987716E-05,23.6655,0
1.5786,-5.404745E-05,23.679,0,1.5786,-9.735256E-06,23.679,0
1.5795,-3.491264E-05,23.6925,0,1.5795,-1.779202E-05,23.6925,0
1.5804,-3.424125E-05,23.706,0,1.5804,-9.399558E-06,23.706,0
1.5813,-1.644922E-05,23.7195,0,1.5813,-1.007095E-06,23.7195,0
1.5822,1.443504E-05,23.733,0,1.5822,-1.980621E-05,23.733,0
1.5831,2.014191E-05,23.7465,0,1.5831,-6.009003E-05,23.7465,0
1.584,1.812772E-05,23.76,0,1.584,-6.915389E-05,23.76,0
1.5849,1.879912E-05,23.7735,0,1.5849,-4.733349E-05,23.7735,0
1.5858,-7.385367E-06,23.787,0,1.5858,-6.713969E-06,23.787,0
1.5867,6.378271E-06,23.8005,0,1.5867,-1.577783E-05,23.8005,0
1.5876,3.659113E-05,23.814,0,1.5876,-5.136187E-05,23.814,0
1.5885,4.46479E-05,23.8275,0,1.5885,4.36408E-06,23.8275,0
1.5894,3.356985E-07,23.841,0,1.5894,1.980621E-05,23.841,0
1.5903,-7.385367E-06,23.8545,0,1.5903,-1.477073E-05,23.8545,0
1.5912,-1.107805E-05,23.868,0,1.5912,-1.376364E-05,23.868,0
1.5921,-5.706874E-05,23.8815,0,1.5921,4.699779E-06,23.8815,0
1.593,-1.040665E-05,23.895,0,1.593,-3.692683E-06,23.895,0
1.5939,1.309224E-05,23.9085,0,1.5939,-1.040665E-05,23.9085,0
1.5948,-5.706874E-06,23.922,0,1.5948,-6.076142E-05,23.922,0
1.5957,-2.081331E-05,23.9355,0,1.5957,-3.021286E-05,23.9355,0
1.5966,-1.644922E-05,23.949,0,1.5966,-3.323415E-05,23.949,0
1.5975,-2.450599E-05,23.9625,0,1.5975,-2.047761E-05,23.9625,0
1.5984,-3.759823E-05,23.976,0,1.5984,-2.450599E-05,23.976,0
1.5993,-3.927672E-05,23.9895,0,1.5993,7.721065E-06,23.9895,0
1.6002,-7.721065E-06,24.003,0,1.6002,2.014191E-06,24.003,0
1.6011,3.692683E-06,24.0165,0,1.6011,-3.793393E-05,24.0165,0
1.602,1.577783E-05,24.03,0,1.602,5.706874E-06,24.03,0
1.6029,5.673304E-05,24.0435,0,1.6029,1.913481E-05,24.0435,0
1.6038,5.337606E-05,24.057,0,1.6038,-1.980621E-05,24.057,0
1.6047,2.819867E-05,24.0705,0,1.6047,-2.719158E-05,24.0705,0
1.6056,1.376364E-05,24.084,0,1.6056,7.721065E-06,24.084,0
1.6065,1.409934E-05,24.0975,0,1.6065,5.706874E-06,24.0975,0
1.6074,1.007095E-06,24.111,0,1.6074,1.309224E-05,24.111,0
1.6083,1.712062E-05,24.1245,0,1.6083,4.36408E-06,24.1245,0
1.6092,-1.879912E-05,24.138,0,1.6092,-5.706874E-06,24.138,0
1.6101,-8.023193E-05,24.1515,0,1.6101,1.443504E-05,24.1515,0
1.611,-5.941863E-05,24.165,0,1.611,1.007095E-06,24.165,0
1.6119,-3.356985E-06,24.1785,0,1.6119,-2.047761E-05,24.1785,0
1.6128,-8.392462E-06,24.192,0,1.6128,1.007095E-06,24.192,0
1.6137,-5.035477E-06,24.2055,0,1.6137,-2.719158E-05,24.2055,0
1.6146,3.356985E-06,24.219,0,1.6146,-7.217517E-05,24.219,0
1.6155,-2.719158E-05,24.2325,0,1.6155,-4.229801E-05,24.2325,0
1.6164,-1.409934E-05,24.246,0,1.6164,-3.659113E-05,24.246,0
1.6173,1.443504E-05,24.2595,0,1.6173,-3.256275E-05,24.2595,0
1.6182,-3.356985E-06,24.273,0,1.6182,-2.719158E-05,24.273,0
1.6191,-6.713969E-07,24.2865,0,1.6191,-2.517739E-05,24.2865,0
1.62,3.155566E-05,24.3,0,1.62,-2.719158E-05,24.3,0
1.6209,2.014191E-06,24.3135,0,1.6209,-4.36408E-06,24.3135,0
1.6218,-8.728161E-06,24.327,0,1.6218,-1.342794E-06,24.327,0
1.6227,3.356985E-06,24.3405,0,1.6227,-2.786297E-05,24.3405,0
1.6236,-2.18204E-05,24.354,0,1.6236,-2.1149E-05,24.354,0
1.6245,-1.510643E-05,24.3675,0,1.6245,-1.040665E-05,24.3675,0
1.6254,-4.061952E-05,24.381,0,1.6254,-3.524834E-05,24.381,0
1.6263,-3.994812E-05,24.3945,0,1.6263,1.678492E-06,24.3945,0
1.6272,-6.378271E-06,24.408,0,1.6272,9.063859E-06,24.408,0
1.6281,3.021286E-06,24.4215,0,1.6281,-3.121996E-05,24.4215,0
1.629,-1.174945E-05,24.435,0,1.629,-1.409934E-05,24.435,0
1.6299,-2.551309E-05,24.4485,0,1.6299,-9.735256E-06,24.4485,0
1.6308,-2.349889E-06,24.462,0,1.6308,-2.987716E-05,24.462,0
1.6317,3.692683E-06,24.4755,0,1.6317,-1.275654E-05,24.4755,0
1.6326,-3.927672E-05,24.489,0,1.6326,1.107805E-05,24.489,0
1.6335,-4.095522E-05,24.5025,0,1.6335,-1.678492E-06,24.5025,0
1.6344,3.692683E-06,24.516,0,1.6344,-3.021286E-05,24.516,0
1.6353,1.275654E-05,24.5295,0,1.6353,-5.304036E-05,24.5295,0
1.6362,2.551309E-05,24.543,0,1.6362,-2.24918E-05,24.543,0
1.6371,5.236896E-05,24.5565,0,1.6371,-2.014191E-05,24.5565,0
1.638,2.987716E-05,24.57,0,1.638,-3.591974E-05,24.57,0
1.6389,-3.021286E-06,24.5835,0,1.6389,-5.304036E-05,24.5835,0
1.6398,7.721065E-06,24.597,0,1.6398,-4.36408E-06,24.597,0
1.6407,6.378271E-06,24.6105,0,1.6407,-3.021286E-05,24.6105,0
1.6416,-1.644922E-05,24.624,0,1.6416,-5.505455E-05,24.624,0
1.6425,-2.652018E-05,24.6375,0,1.6425,-1.242084E-05,24.6375,0
1.6434,-2.584878E-05,24.651,0,1.6434,0,24.651,0
1.6443,-3.659113E-05,24.6645,0,1.6443,-5.136187E-05,24.6645,0
1.6452,-2.450599E-05,24.678,0,1.6452,-2.719158E-05,24.678,0
1.6461,-2.652018E-05,24.6915,0,1.6461,-6.042573E-06,24.6915,0
1.647,-1.644922E-05,24.705,0,1.647,-2.652018E-05,24.705,0
1.6479,-3.189136E-05,24.7185,0,1.6479,-3.323415E-05,24.7185,0
1.6488,-2.719158E-05,24.732,0,1.6488,-5.337606E-05,24.732,0
1.6497,-6.042573E-06,24.7455,0,1.6497,-5.136187E-05,24.7455,0
1.6506,-5.069047E-05,24.759,0,1.6506,7.049668E-06,24.759,0
1.6515,-3.793393E-05,24.7725,0,1.6515,1.712062E-05,24.7725,0
1.6524,1.040665E-05,24.786,0,1.6524,-2.887007E-05,24.786,0
1.6533,-1.409934E-05,24.7995,0,1.6533,3.894102E-05,24.7995,0
1.6542,-4.632639E-05,24.813,0,1.6542,6.814679E-05,24.813,0
1.6551,-1.309224E-05,24.8265,0,1.6551,-2.517739E-05,24.8265,0
1.656,-3.021286E-06,24.84,0,1.656,5.706874E-06,24.84,0
1.6569,4.867628E-05,24.8535,0,1.6569,1.947051E-05,24.8535,0
1.6578,8.224613E-05,24.867,0,1.6578,-1.644922E-05,24.867,0
1.6587,-5.035477E-06,24.8805,0,1.6587,-3.994812E-05,24.8805,0
1.6596,-3.793393E-05,24.894,0,1.6596,-1.644922E-05,24.894,0
1.6605,-1.208515E-05,24.9075,0,1.6605,-2.014191E-05,24.9075,0
1.6614,1.275654E-05,24.921,0,1.6614,-4.196231E-05,24.921,0
1.6623,3.457694E-05,24.9345,0,1.6623,-4.46479E-05,24.9345,0
1.6632,2.1149E-05,24.948,0,1.6632,-2.517739E-05,24.948,0
1.6641,1.376364E-05,24.9615,0,1.6641,-2.24918E-05,24.9615,0
1.665,1.577783E-05,24.975,0,1.665,-4.699779E-05,24.975,0
1.6659,-3.356985E-07,24.9885,0,1.6659,-5.673304E-05,24.9885,0
1.6668,-1.174945E-05,25.002,0,1.6668,1.007095E-06,25.002,0
1.6677,-1.376364E-05,25.0155,0,1.6677,1.007095E-06,25.0155,0
1.6686,1.846342E-05,25.029,0,1.6686,-3.558404E-05,25.029,0
1.6695,-3.692683E-06,25.0425,0,1.6695,3.356985E-07,25.0425,0
1.6704,-1.913481E-05,25.056,0,1.6704,-1.644922E-05,25.056,0
1.6713,-2.484169E-05,25.0695,0,1.6713,-4.39765E-05,25.0695,0
1.6722,-3.793393E-05,25.083,0,1.6722,-3.256275E-05,25.083,0
1.6731,-2.081331E-05,25.0965,0,1.6731,-3.088426E-05,25.0965,0
1.674,-4.934768E-05,25.11,0,1.674,-2.417029E-05,25.11,0
1.6749,-3.356985E-05,25.1235,0,1.6749,-5.673304E-05,25.1235,0
1.6758,9.399558E-06,25.137,0,1.6758,-6.109713E-05,25.137,0
1.6767,-1.376364E-05,25.1505,0,1.6767,-1.980621E-05,25.1505,0
1.6776,-2.987716E-05,25.164,0,1.6776,-6.713969E-06,25.164,0
1.6785,-3.054856E-05,25.1775,0,1.6785,-3.323415E-05,25.1775,0
1.6794,-1.376364E-05,25.191,0,1.6794,-3.927672E-05,25.191,0
1.6803,-2.484169E-05,25.2045,0,1.6803,-3.356985E-07,25.2045,0
1.6812,-1.510643E-05,25.218,0,1.6812,-1.678492E-06,25.218,0
1.6821,1.443504E-05,25.2315,0,1.6821,-4.53193E-05,25.2315,0
1.683,2.349889E-06,25.245,0,1.683,-1.107805E-05,25.245,0
1.6839,-2.349889E-06,25.2585,0,1.6839,4.028382E-06,25.2585,0
1.6848,1.242084E-05,25.272,0,1.6848,-2.047761E-05,25.272,0
1.6857,-3.692683E-06,25.2855,0,1.6857,-1.678492E-05,25.2855,0
1.6866,-2.316319E-05,25.299,0,1.6866,1.577783E-05,25.299,0
1.6875,1.040665E-05,25.3125,0,1.6875,1.309224E-05,25.3125,0
1.6884,1.141375E-05,25.326,0,1.6884,1.007095E-06,25.326,0
1.6893,2.383459E-05,25.3395,0,1.6893,-1.074235E-05,25.3395,0
1.6902,-9.399558E-06,25.353,0,1.6902,-1.443504E-05,25.353,0
1.6911,-1.510643E-05,25.3665,0,1.6911,5.035477E-06,25.3665,0
1.692,5.706874E-06,25.38,0,1.692,-2.28275E-05,25.38,0
1.6929,3.323415E-05,25.3935,0,1.6929,-3.256275E-05,25.3935,0
1.6938,1.577783E-05,25.407,0,1.6938,1.040665E-05,25.407,0
1.6947,-1.443504E-05,25.4205,0,1.6947,1.242084E-05,25.4205,0
1.6956,-1.846342E-05,25.434,0,1.6956,4.699779E-06,25.434,0
1.6965,-2.517739E-05,25.4475,0,1.6965,4.968337E-05,25.4475,0
1.6974,-6.713969E-06,25.461,0,1.6974,2.484169E-05,25.461,0
1.6983,-1.309224E-05,25.4745,0,1.6983,-3.121996E-05,25.4745,0
1.6992,-2.752728E-05,25.488,0,1.6992,-3.524834E-05,25.488,0
1.7001,-3.927672E-05,25.5015,0,1.7001,-3.894102E-05,25.5015,0
1.701,-3.726253E-05,25.515,0,1.701,-7.452507E-05,25.515,0
1.7019,3.692683E-06,25.5285,0,1.7019,-6.54612E-05,25.5285,0
1.7028,-1.812772E-05,25.542,0,1.7028,-8.459602E-05,25.542,0
1.7037,-1.107805E-05,25.5555,0,1.7037,-5.572595E-05,25.5555,0
1.7046,2.752728E-05,25.569,0,1.7046,-2.920577E-05,25.569,0
1.7055,2.383459E-05,25.5825,0,1.7055,-3.021286E-05,25.5825,0
1.7064,4.263371E-05,25.596,0,1.7064,-2.349889E-06,25.596,0
1.7073,3.692683E-05,25.6095,0,1.7073,4.49836E-05,25.6095,0
1.7082,1.779202E-05,25.623,0,1.7082,-6.713969E-07,25.623,0
1.7091,-7.049668E-06,25.6365,0,1.7091,-7.687495E-05,25.6365,0
1.71,-3.659113E-05,25.65,0,1.71,-1.644922E-05,25.65,0
1.7109,-2.920577E-05,25.6635,0,1.7109,-6.042573E-06,25.6635,0
1.7118,-5.471885E-05,25.677,0,1.7118,-4.699779E-05,25.677,0
1.7127,-9.735256E-06,25.6905,0,1.7127,-1.208515E-05,25.6905,0
1.7136,1.846342E-05,25.704,0,1.7136,3.256275E-05,25.704,0
1.7145,-2.450599E-05,25.7175,0,1.7145,-2.1149E-05,25.7175,0
1.7154,-2.987716E-05,25.731,0,1.7154,-2.484169E-05,25.731,0
1.7163,2.652018E-05,25.7445,0,1.7163,-3.558404E-05,25.7445,0
1.7172,1.980621E-05,25.758,0,1.7172,-3.021286E-06,25.758,0
1.7181,-1.879912E-05,25.7715,0,1.7181,-1.879912E-05,25.7715,0
1.719,3.692683E-06,25.785,0,1.719,-5.270466E-05,25.785,0
1.7199,9.063859E-06,25.7985,0,1.7199,-4.800488E-05,25.7985,0
1.7208,-7.385367E-06,25.812,0,1.7208,1.409934E-05,25.812,0
1.7217,-9.735256E-06,25.8255,0,1.7217,-7.385367E-06,25.8255,0
1.7226,-2.887007E-05,25.839,0,1.7226,-4.49836E-05,25.839,0
1.7235,-5.539025E-05,25.8525,0,1.7235,-2.014191E-06,25.8525,0
1.7244,1.510643E-05,25.866,0,1.7244,9.399558E-06,25.866,0
1.7253,4.33051E-05,25.8795,0,1.7253,-1.846342E-05,25.8795,0
1.7262,-2.081331E-05,25.893,0,1.7262,-2.014191E-05,25.893,0
1.7271,-3.726253E-05,25.9065,0,1.7271,7.721065E-06,25.9065,0
1.728,-1.544213E-05,25.92,0,1.728,-1.275654E-05,25.92,0
1.7289,-2.014191E-05,25.9335,0,1.7289,2.954147E-05,25.9335,0
1.7298,-1.510643E-05,25.947,0,1.7298,1.007095E-05,25.947,0
1.7307,-8.728161E-06,25.9605,0,1.7307,-9.063859E-06,25.9605,0
1.7316,9.735256E-06,25.974,0,1.7316,1.040665E-05,25.974,0
1.7325,-1.342794E-06,25.9875,0,1.7325,-1.242084E-05,25.9875,0
1.7334,-1.577783E-05,26.001,0,1.7334,-4.733349E-05,26.001,0
1.7343,-6.713969E-07,26.0145,0,1.7343,-9.063859E-06,26.0145,0
1.7352,5.706874E-06,26.028,0,1.7352,-1.846342E-05,26.028,0
1.7361,-4.028382E-06,26.0415,0,1.7361,-5.337606E-05,26.0415,0
1.737,-1.342794E-06,26.055,0,1.737,-5.706874E-06,26.055,0
1.7379,-1.107805E-05,26.0685,0,1.7379,-1.107805E-05,26.0685,0
1.7388,4.699779E-06,26.082,0,1.7388,-4.901198E-05,26.082,0
1.7397,9.399558E-06,26.0955,0,1.7397,-2.786297E-05,26.0955,0
1.7406,-7.385367E-06,26.109,0,1.7406,-6.378271E-06,26.109,0
1.7415,-6.378271E-06,26.1225,0,1.7415,-6.042573E-06,26.1225,0
1.7424,-7.721065E-06,26.136,0,1.7424,-2.24918E-05,26.136,0
1.7433,-2.887007E-05,26.1495,0,1.7433,-4.46479E-05,26.1495,0
1.7442,-2.450599E-05,26.163,0,1.7442,-3.323415E-05,26.163,0
1.7451,-2.316319E-05,26.1765,0,1.7451,-3.323415E-05,26.1765,0
1.746,-1.409934E-05,26.19,0,1.746,-3.894102E-05,26.19,0
1.7469,-2.484169E-05,26.2035,0,1.7469,-4.599069E-05,26.2035,0
1.7478,-3.121996E-05,26.217,0,1.7478,-2.047761E-05,26.217,0
1.7487,9.063859E-06,26.2305,0,1.7487,-2.920577E-05,26.2305,0
1.7496,4.129091E-05,26.244,0,1.7496,-4.49836E-05,26.244,0
1.7505,1.980621E-05,26.2575,0,1.7505,-1.644922E-05,26.2575,0
1.7514,5.102617E-05,26.271,0,1.7514,1.007095E-06,26.271,0
1.7523,6.61326E-05,26.2845,0,1.7523,-3.457694E-05,26.2845,0
1.7532,3.390555E-05,26.298,0,1.7532,-2.21561E-05,26.298,0
1.7541,-1.980621E-05,26.3115,0,1.7541,2.014191E-06,26.3115,0
1.755,-4.39765E-05,26.325,0,1.755,-1.544213E-05,26.325,0
1.7559,-6.109713E-05,26.3385,0,1.7559,-6.713969E-06,26.3385,0
1.7568,-2.819867E-05,26.352,0,1.7568,-4.29694E-05,26.352,0
1.7577,-6.64683E-05,26.3655,0,1.7577,-7.620356E-05,26.3655,0
1.7586,-7.284657E-05,26.379,0,1.7586,-2.618448E-05,26.379,0
1.7595,-3.121996E-05,26.3925,0,1.7595,-2.28275E-05,26.3925,0
1.7604,6.378271E-06,26.406,0,1.7604,-9.735256E-06,26.406,0
1.7613,-1.510643E-05,26.4195,0,1.7613,5.706874E-05,26.4195,0
1.7622,-2.047761E-05,26.433,0,1.7622,6.076142E-05,26.433,0
1.7631,-1.107805E-05,26.4465,0,1.7631,-1.107805E-05,26.4465,0
1.764,-3.793393E-05,26.46,0,1.764,3.356985E-06,26.46,0
1.7649,-8.728161E-06,26.4735,0,1.7649,1.577783E-05,26.4735,0
1.7658,2.18204E-05,26.487,0,1.7658,-2.987716E-05,26.487,0
1.7667,2.551309E-05,26.5005,0,1.7667,-2.719158E-05,26.5005,0
1.7676,3.692683E-06,26.514,0,1.7676,-9.063859E-06,26.514,0
1.7685,1.510643E-05,26.5275,0,1.7685,-9.063859E-06,26.5275,0
1.7694,-6.713969E-07,26.541,0,1.7694,-1.745632E-05,26.541,0
1.7703,-1.174945E-05,26.5545,0,1.7703,-3.323415E-05,26.5545,0
1.7712,2.349889E-06,26.568,0,1.7712,-2.652018E-05,26.568,0
1.7721,-1.443504E-05,26.5815,0,1.7721,-8.728161E-06,26.5815,0
1.773,-2.719158E-05,26.595,0,1.773,-5.136187E-05,26.595,0
1.7739,-3.356985E-07,26.6085,0,1.7739,-8.72816E-05,26.6085,0
1.7748,1.342794E-06,26.622,0,1.7748,-5.203327E-05,26.622,0
1.7757,-1.510643E-05,26.6355,0,1.7757,-1.644922E-05,26.6355,0
1.7766,7.721065E-06,26.649,0,1.7766,-3.054856E-05,26.649,0
1.7775,-2.014191E-06,26.6625,0,1.7775,1.040665E-05,26.6625,0
1.7784,3.994812E-05,26.676,0,1.7784,-7.721065E-06,26.676,0
1.7793,5.001907E-05,26.6895,0,1.7793,-3.021286E-05,26.6895,0
1.7802,1.309224E-05,26.703,0,1.7802,2.349889E-06,26.703,0
1.7811,-6.378271E-06,26.7165,0,1.7811,-4.36408E-06,26.7165,0
1.782,-1.443504E-05,26.73,0,1.782,-1.242084E-05,26.73,0
1.7829,-2.786297E-05,26.7435,0,1.7829,-7.721065E-06,26.7435,0
1.7838,-1.309224E-05,26.757,0,1.7838,-3.994812E-05,26.757,0
1.7847,-3.021286E-05,26.7705,0,1.7847,-2.853437E-05,26.7705,0
1.7856,-4.53193E-05,26.784,0,1.7856,-1.947051E-05,26.784,0
1.7865,-4.53193E-05,26.7975,0,1.7865,-2.450599E-05,26.7975,0
1.7874,-3.424125E-05,26.811,0,1.7874,-2.584878E-05,26.811,0
1.7883,-2.920577E-05,26.8245,0,1.7883,7.049668E-06,26.8245,0
1.7892,-1.174945E-05,26.838,0,1.7892,-1.007095E-06,26.838,0
1.7901,-4.699779E-06,26.8515,0,1.7901,-5.270466E-05,26.8515,0
1.791,2.349889E-05,26.865,0,1.791,-3.054856E-05,26.865,0
1.7919,3.726253E-05,26.8785,0,1.7919,-4.229801E-05,26.8785,0
1.7928,4.36408E-06,26.892,0,1.7928,-6.344701E-05,26.892,0
1.7937,2.987716E-05,26.9055,0,1.7937,-4.46479E-05,26.9055,0
1.7946,-3.692683E-06,26.919,0,1.7946,9.063859E-06,26.919,0
1.7955,-1.443504E-05,26.9325,0,1.7955,4.095522E-05,26.9325,0
1.7964,7.721065E-06,26.946,0,1.7964,3.155566E-05,26.946,0
1.7973,4.46479E-05,26.9595,0,1.7973,-1.779202E-05,26.9595,0
1.7982,3.088426E-05,26.973,0,1.7982,-4.43122E-05,26.973,0
1.7991,-4.901198E-05,26.9865,0,1.7991,-5.438316E-05,26.9865,0
1.8,-4.766919E-05,27,0,1.8,-4.29694E-05,27,0
1.8009,-2.618448E-05,27.0135,0,1.8009,-4.46479E-05,27.0135,0
1.8018,-4.43122E-05,27.027,0,1.8018,-5.035477E-06,27.027,0
1.8027,-2.1149E-05,27.0405,0,1.8027,-5.706874E-06,27.0405,0
1.8036,2.484169E-05,27.054,0,1.8036,-4.196231E-05,27.054,0
1.8045,-3.356985E-06,27.0675,0,1.8045,3.524834E-05,27.0675,0
1.8054,-5.035477E-06,27.081,0,1.8054,7.016098E-05,27.081,0
1.8063,1.040665E-05,27.0945,0,1.8063,-9.735256E-06,27.0945,0
1.8072,-5.035477E-06,27.108,0,1.8072,-6.042573E-06,27.108,0
1.8081,-5.874724E-05,27.1215,0,1.8081,-2.18204E-05,27.1215,0
1.809,-2.21561E-05,27.135,0,1.809,-1.544213E-05,27.135,0
1.8099,-1.342794E-05,27.1485,0,1.8099,-3.021286E-06,27.1485,0
1.8108,-3.356985E-07,27.162,0,1.8108,-2.853437E-05,27.162,0
1.8117,9.735256E-06,27.1755,0,1.8117,-1.443504E-05,27.1755,0
1.8126,-1.141375E-05,27.189,0,1.8126,1.678492E-06,27.189,0
1.8135,-9.735256E-06,27.2025,0,1.8135,-8.392462E-06,27.2025,0
1.8144,1.242084E-05,27.216,0,1.8144,-5.001907E-05,27.216,0
1.8153,-2.517739E-05,27.2295,0,1.8153,-1.812772E-05,27.2295,0
1.8162,-2.316319E-05,27.243,0,1.8162,1.275654E-05,27.243,0
1.8171,-7.385367E-06,27.2565,0,1.8171,-2.685588E-05,27.2565,0
1.818,-2.21561E-05,27.27,0,1.818,-7.049668E-06,27.27,0
