X[s],"Trigno IM sensor 3: EMG 3 (IM)",X[s],"Trigno IM sensor 3: Mag 3.Z (IM)",X[s],"Trigno IM sensor 4: EMG 4 (IM)",X[s],"Trigno IM sensor 4: Mag 4.Z (IM)"
0.000000,0.0001050736,0.000000,123,0.000000,3.994812E-05,0.000000,-3
0.0009,7.922484E-05,0.0135,124,0.0009,8.493171E-05,0.0135,0
0.0018,1.980621E-05,0.027,124,0.0018,7.888914E-05,0.027,-3
0.0027,-4.666209E-05,0.0405,124,0.0027,0.0001084306,0.0405,-2
0.0036,-0.0001644923,0.054,123,0.0036,0.0001352865,0.054,0
0.0045,-2.551309E-05,0.0675,123,0.0045,6.311131E-05,0.0675,-3
0.0054,0.0001493858,0.081,124,0.0054,2.920577E-05,0.081,-1
0.0063,0.0001426719,0.0945,124,0.0063,2.517739E-05,0.0945,-3
0.0072,6.411841E-05,0.108,125,0.0072,-2.685588E-06,0.108,-4
0.0081,9.970245E-05,0.1215,123,0.0081,-5.471885E-05,0.1215,-2
0.009000001,0.0001168231,0.135,123,0.009000001,-0.0001554284,0.135,-4
0.0099,3.021286E-06,0.1485,123,0.0099,-0.0001876554,0.1485,1
0.0108,-6.74754E-05,0.162,123,0.0108,-0.0001926909,0.162,-4
0.0117,-0.0001430075,0.1755,122,0.0117,-0.0001198444,0.1755,-1
0.0126,-0.0003685969,0.189,123,0.0126,-1.007095E-05,0.189,0
0.0135,-0.0003917601,0.2025,124,0.0135,0.0001550927,0.2025,-3
0.0144,-0.0002108186,0.216,124,0.0144,0.0001497215,0.216,-2
0.0153,-0.0001567712,0.2295,123,0.0153,6.881819E-05,0.2295,-4
0.0162,-7.989624E-05,0.243,124,0.0162,4.46479E-05,0.243,-2
0.0171,-0.0001037308,0.2565,123,0.0171,1.779202E-05,0.2565,-3
0.018,-2.28275E-05,0.27,123,0.018,-2.752728E-05,0.27,-2
0.0189,2.517739E-05,0.2835,124,0.0189,-8.392462E-06,0.2835,0
0.0198,3.793393E-05,0.297,124,0.0198,-1.745632E-05,0.297,0
0.0207,7.183947E-05,0.3105,123,0.0207,-3.659113E-05,0.3105,-1
0.0216,6.411841E-05,0.324,124,0.0216,-4.229801E-05,0.324,-1
0.0225,6.143282E-05,0.3375,123,0.0225,-4.733349E-05,0.3375,-1
0.0234,2.383459E-05,0.351,124,0.0234,-6.64683E-05,0.351,-1
0.0243,-5.337606E-05,0.3645,124,0.0243,-0.000115816,0.3645,-2
0.0252,-5.706874E-06,0.378,124,0.0252,-0.0001604639,0.378,-1
0.0261,1.812772E-05,0.3915,123,0.0261,-0.0001524071,0.3915,-3
0.027,5.874724E-05,0.405,122,0.027,-0.0001205158,0.405,-1
0.0279,9.701686E-05,0.4185,123,0.0279,-7.183947E-05,0.4185,-2
0.0288,9.097429E-05,0.432,124,0.0288,1.678492E-06,0.432,0
0.0297,9.063859E-05,0.4455,122,0.0297,9.903105E-05,0.4455,-1
0.0306,6.6804E-05,0.459,123,0.0306,0.0001010452,0.459,0
0.0315,1.913481E-05,0.4725,124,0.0315,-4.699779E-06,0.4725,-1
0.0324,7.687495E-05,0.486,124,0.0324,-1.309224E-05,0.486,0
0.0333,0.0001178302,0.4995,125,0.0333,1.577783E-05,0.4995,-4
0.0342,0.0001117876,0.513,124,0.0342,-1.409934E-05,0.513,-1
0.0351,6.64683E-05,0.5265,124,0.0351,-2.383459E-05,0.5265,-2
0.036,-4.263371E-05,0.54,124,0.036,4.800488E-05,0.54,-2
0.0369,-0.0001279011,0.5535,124,0.0369,3.155566E-05,0.5535,-2
0.0378,-7.083238E-05,0.567,123,0.0378,-6.210422E-05,0.567,-1
0.0387,-3.356985E-07,0.5805,125,0.0387,-5.236896E-05,0.5805,-4
0.0396,1.208515E-05,0.594,124,0.0396,-1.007095E-06,0.594,-1
0.0405,4.061952E-05,0.6075,124,0.0405,-9.399558E-06,0.6075,-4
0.0414,-2.786297E-05,0.621,124,0.0414,-1.879912E-05,0.621,0
0.0423,-8.157473E-05,0.6345,124,0.0423,-8.392462E-05,0.6345,-2
0.0432,-3.659113E-05,0.648,123,0.0432,-3.390555E-05,0.648,-1
0.0441,-4.699779E-05,0.6615,123,0.0441,-1.409934E-05,0.6615,-5
0.045,-1.644922E-05,0.675,124,0.045,-0.0001010452,0.675,-4
0.0459,1.309224E-05,0.6885,123,0.0459,-0.0001211871,0.6885,-2
0.0468,-1.644922E-05,0.702,124,0.0468,-6.076142E-05,0.702,0
0.0477,-2.24918E-05,0.7155,124,0.0477,-4.229801E-05,0.7155,-2
0.0486,-4.36408E-06,0.729,124,0.0486,-4.196231E-05,0.729,-1
0.0495,-1.007095E-06,0.7425,124,0.0495,3.323415E-05,0.7425,-4
0.0504,2.517739E-05,0.756,124,0.0504,0.0001352865,0.756,0
0.0513,7.888914E-05,0.7695,124,0.0513,0.0001064164,0.7695,-1
0.0522,1.342794E-06,0.783,124,0.0522,2.047761E-05,0.783,-5
0.0531,-3.826963E-05,0.7965,123,0.0531,-1.074235E-05,0.7965,-2
0.054,-2.920577E-05,0.81,125,0.054,-6.478981E-05,0.81,-2
0.0549,-6.411841E-05,0.8235,123,0.0549,-9.567407E-05,0.8235,-4
0.0558,-9.970245E-05,0.837,122,0.0558,-8.258183E-05,0.837,-2
0.0567,-8.82887E-05,0.8505,122,0.0567,-7.016098E-05,0.8505,-5
0.0576,-4.565499E-05,0.864,123,0.0576,-2.24918E-05,0.864,-3
0.0585,-1.242084E-05,0.8775,121,0.0585,-5.639734E-05,0.8775,-6
0.0594,-4.36408E-06,0.891,122,0.0594,-4.061952E-05,0.891,-3
0.0603,1.477073E-05,0.9045,121,0.0603,7.653925E-05,0.9045,-5
0.0612,2.24918E-05,0.918,120,0.0612,1.678492E-06,0.918,-4
0.0621,7.049668E-06,0.9315,122,0.0621,-5.471885E-05,0.9315,-6
0.063,0,0.945,123,0.063,1.846342E-05,0.945,-5
0.0639,4.263371E-05,0.9585,121,0.0639,0.0001037308,0.9585,-7
0.0648,2.1149E-05,0.972,122,0.0648,0.0001050736,0.972,-5
0.0657,-3.860533E-05,0.9855,122,0.0657,5.673304E-05,0.9855,-3
0.0666,-1.510643E-05,0.999,122,0.0666,-1.678492E-05,0.999,-1
0.0675,8.728161E-06,1.0125,122,0.0675,-0.0001067521,1.0125,-1
0.0684,1.309224E-05,1.026,120,0.0684,-0.0001144732,1.026,-1
0.0693,1.342794E-06,1.0395,121,0.0693,-0.0001426719,1.0395,-4
0.0702,3.457694E-05,1.053,120,0.0702,-0.000102388,1.053,0
0.0711,5.069047E-05,1.0665,120,0.0711,-2.752728E-05,1.0665,-2
0.072,4.43122E-05,1.08,120,0.072,4.229801E-05,1.08,0
0.0729,5.874724E-05,1.0935,120,0.0729,7.620356E-05,1.0935,-4
0.07380001,7.049668E-06,1.107,120,0.07380001,5.069047E-05,1.107,-3
0.07470001,-2.014191E-06,1.1205,120,0.07470001,6.814679E-05,1.1205,-2
0.0756,3.558404E-05,1.134,120,0.0756,3.189136E-05,1.134,-3
0.0765,1.007095E-06,1.1475,121,0.0765,4.095522E-05,1.1475,-5
0.0774,-2.652018E-05,1.161,120,0.0774,5.941863E-05,1.161,-1
0.0783,0.0001050736,1.1745,120,0.0783,-7.385367E-06,1.1745,-2
0.0792,0.000112459,1.188,120,0.0792,-5.673304E-05,1.188,-4
0.0801,5.136187E-05,1.2015,120,0.0801,-0.0001185016,1.2015,-3
0.081,0.000144686,1.215,120,0.081,-0.0001309224,1.215,-4
0.0819,0.0002762798,1.2285,121,0.0819,-0.0001339437,1.2285,-1
0.0828,0.0001305867,1.242,120,0.0828,-0.000161471,1.242,-3
0.0837,-9.970245E-05,1.2555,120,0.0837,-9.903105E-05,1.2555,-5
0.0846,-0.0003837034,1.269,120,0.0846,3.390555E-05,1.269,-4
0.0855,-0.0006129854,1.2825,120,0.0855,-7.888914E-05,1.2825,-2
0.0864,-0.0002970932,1.296,120,0.0864,-6.814679E-05,1.296,-3
0.0873,-0.0001379721,1.3095,119,0.0873,5.606165E-05,1.3095,-4
0.0882,-9.735256E-06,1.323,120,0.0882,0.000126894,1.323,-3
0.0891,0.0001242084,1.3365,121,0.0891,0.0001916838,1.3365,-2
0.09,3.323415E-05,1.35,121,0.09,0.0001111162,1.35,-5
0.0909,1.007095E-05,1.3635,120,0.0909,7.620356E-05,1.3635,-5
0.0918,3.189136E-05,1.377,120,0.0918,1.040665E-05,1.377,-2
0.0927,-2.920577E-05,1.3905,120,0.0927,-7.385367E-05,1.3905,0
0.0936,-0.0001312581,1.404,121,0.0936,-6.277562E-05,1.404,-3
0.09450001,-0.0002111543,1.4175,119,0.09450001,-6.881819E-05,1.4175,-6
0.09540001,-3.088426E-05,1.431,121,0.09540001,-0.0001017166,1.431,-5
0.09630001,8.123904E-05,1.4445,121,0.09630001,-0.0001185016,1.4445,-6
0.0972,2.24918E-05,1.458,121,0.0972,-4.39765E-05,1.458,-2
0.0981,1.174945E-05,1.4715,121,0.0981,7.821774E-05,1.4715,-3
0.099,-3.961242E-05,1.485,121,0.099,7.586786E-05,1.485,-2
0.0999,-8.728161E-06,1.4985,120,0.0999,2.450599E-05,1.4985,-6
0.1008,-2.24918E-05,1.512,119,0.1008,3.591974E-05,1.512,-3
0.1017,-4.263371E-05,1.5255,119,0.1017,-3.021286E-06,1.5255,-1
0.1026,9.701686E-05,1.539,120,0.1026,-6.478981E-05,1.539,-2
0.1035,0.0001883268,1.5525,120,0.1035,-2.081331E-05,1.5525,-3
0.1044,0.0002192111,1.566,120,0.1044,-2.618448E-05,1.566,-3
0.1053,0.0001453574,1.5795,121,0.1053,-6.6804E-05,1.5795,-5
0.1062,-5.539025E-05,1.593,120,0.1062,-5.706874E-05,1.593,-3
0.1071,-0.0001534142,1.6065,120,0.1071,-3.021286E-05,1.6065,-2
0.108,-0.0001453574,1.62,121,0.108,-3.054856E-05,1.62,-1
0.1089,-5.606165E-05,1.6335,120,0.1089,-4.867628E-05,1.6335,-2
0.1098,-2.484169E-05,1.647,119,0.1098,-7.754635E-05,1.647,-3
0.1107,-1.913481E-05,1.6605,120,0.1107,-6.344701E-05,1.6605,-3
0.1116,-1.342794E-05,1.674,120,0.1116,-4.36408E-06,1.674,-1
0.1125,-4.699779E-06,1.6875,120,0.1125,-1.745632E-05,1.6875,-5
0.1134,-1.376364E-05,1.701,121,0.1134,-6.344701E-05,1.701,-2
0.1143,-3.591974E-05,1.7145,120,0.1143,-6.881819E-05,1.7145,-2
0.1152,-6.042573E-06,1.728,120,0.1152,-0.0001171588,1.728,-2
0.1161,7.721065E-05,1.7415,119,0.1161,-0.0001406577,1.7415,-2
0.117,7.486076E-05,1.755,121,0.117,-7.821774E-05,1.755,-3
0.1179,6.176852E-05,1.7685,120,0.1179,-7.016098E-05,1.7685,-2
0.1188,-2.316319E-05,1.782,119,0.1188,-3.256275E-05,1.782,0
0.1197,-1.174945E-05,1.7955,120,0.1197,-4.36408E-06,1.7955,-1
0.1206,-4.800488E-05,1.809,121,0.1206,4.36408E-06,1.809,-2
0.1215,-3.424125E-05,1.8225,119,0.1215,2.954147E-05,1.8225,-2
0.1224,-2.349889E-06,1.836,119,0.1224,0.0001050736,1.836,-3
0.1233,8.056763E-06,1.8495,120,0.1233,0.0001215228,1.8495,-1
0.1242,2.819867E-05,1.863,120,0.1242,7.251087E-05,1.863,-4
0.1251,3.860533E-05,1.8765,119,0.1251,1.712062E-05,1.8765,-5
0.126,3.659113E-05,1.89,120,0.126,-7.922484E-05,1.89,-1
0.1269,6.143282E-05,1.9035,119,0.1269,-0.0001443503,1.9035,-2
0.1278,8.023193E-05,1.917,120,0.1278,-0.0001070878,1.917,-1
0.1287,8.761731E-05,1.9305,119,0.1287,-6.78111E-05,1.9305,0
0.1296,1.443504E-05,1.944,119,0.1296,-6.881819E-05,1.944,-1
0.1305,4.565499E-05,1.9575,120,0.1305,3.054856E-05,1.9575,-1
0.1314,6.478981E-05,1.971,120,0.1314,0.0001299153,1.971,-1
0.1323,-8.82887E-05,1.9845,120,0.1323,0.0001299153,1.9845,-1
0.1332,-0.0002259251,1.998,120,0.1332,6.74754E-05,1.998,-1
0.1341,-0.0001413291,2.0115,119,0.1341,3.726253E-05,2.0115,-2
0.135,-2.484169E-05,2.025,119,0.135,1.141375E-05,2.025,-3
0.1359,-1.812772E-05,2.0385,118,0.1359,-1.376364E-05,2.0385,-4
0.1368,-1.040665E-05,2.052,119,0.1368,-1.712062E-05,2.052,-2
0.1377,1.510643E-05,2.0655,119,0.1377,-4.699779E-06,2.0655,-4
0.1386,1.007095E-06,2.079,119,0.1386,-2.383459E-05,2.079,-4
0.1395,-2.047761E-05,2.0925,120,0.1395,-1.745632E-05,2.0925,-2
0.1404,-1.947051E-05,2.106,118,0.1404,-3.591974E-05,2.106,-4
0.1413,4.699779E-06,2.1195,119,0.1413,-2.887007E-05,2.1195,-5
0.1422,3.054856E-05,2.133,119,0.1422,-0.000102388,2.133,-1
0.1431,4.43122E-05,2.1465,119,0.1431,-0.0001453574,2.1465,-4
0.144,-2.047761E-05,2.16,118,0.144,-7.989624E-05,2.16,-4
0.1449,-5.706874E-05,2.1735,119,0.1449,-5.136187E-05,2.1735,-4
0.1458,-4.129091E-05,2.187,117,0.1458,-7.620356E-05,2.187,-3
0.1467,-1.779202E-05,2.2005,120,0.1467,-4.766919E-05,2.2005,-5
0.1476,1.980621E-05,2.214,119,0.1476,4.800488E-05,2.214,-3
0.1485,0.0001050736,2.2275,120,0.1485,7.956054E-05,2.2275,-4
0.1494,0.0001326009,2.241,119,0.1494,6.277562E-05,2.241,-2
0.1503,0.0001900053,2.2545,119,0.1503,-1.812772E-05,2.2545,-3
0.1512,0.0002380102,2.268,119,0.1512,-1.947051E-05,2.268,-2
0.1521,-2.752728E-05,2.2815,119,0.1521,1.577783E-05,2.2815,-2
0.153,-0.0001557641,2.295,119,0.153,-7.049668E-06,2.295,0
0.1539,-9.399558E-06,2.3085,118,0.1539,-0.0001131304,2.3085,0
0.1548,-9.735256E-06,2.322,119,0.1548,-0.0001530785,2.322,-1
0.1557,-9.365987E-05,2.3355,118,0.1557,-0.0001883268,2.3355,-2
0.1566,-5.807584E-05,2.349,119,0.1566,-0.0001587854,2.349,-2
0.1575,-5.941863E-05,2.3625,119,0.1575,-8.795301E-05,2.3625,-2
0.1584,-0.0001560998,2.376,119,0.1584,-3.424125E-05,2.376,-1
0.1593,-0.0002601663,2.3895,119,0.1593,8.023193E-05,2.3895,-3
0.1602,-8.392462E-05,2.403,120,0.1602,0.000102388,2.403,0
0.1611,-5.136187E-05,2.4165,118,0.1611,0.0001728847,2.4165,-2
0.162,-6.210422E-05,2.43,119,0.162,0.0001171588,2.43,-1
0.1629,4.733349E-05,2.4435,118,0.1629,7.217517E-05,2.4435,-3
0.1638,2.652018E-05,2.457,118,0.1638,9.903105E-05,2.457,-1
0.1647,6.713969E-06,2.4705,120,0.1647,3.793393E-05,2.4705,0
0.1656,4.162661E-05,2.484,118,0.1656,-3.189136E-05,2.484,-3
0.1665,9.063859E-06,2.4975,119,0.1665,-9.399557E-05,2.4975,-4
0.1674,-0.0001010452,2.511,119,0.1674,-0.0001255512,2.511,-2
0.1683,-0.000115816,2.5245,119,0.1683,-4.129091E-05,2.5245,-1
0.1692,-0.0001000381,2.538,118,0.1692,1.812772E-05,2.538,-4
0.1701,2.887007E-05,2.5515,120,0.1701,4.229801E-05,2.5515,-3
0.171,9.164568E-05,2.565,118,0.171,7.754635E-05,2.565,-5
0.1719,5.203327E-05,2.5785,120,0.1719,9.332418E-05,2.5785,0
0.1728,-2.652018E-05,2.592,119,0.1728,3.256275E-05,2.592,-2
0.1737,-1.712062E-05,2.6055,119,0.1737,3.356985E-07,2.6055,-2
0.1746,-2.887007E-05,2.619,120,0.1746,-6.713969E-06,2.619,0
0.1755,-2.551309E-05,2.6325,118,0.1755,-0.0001540856,2.6325,0
0.1764,6.51255E-05,2.646,120,0.1764,-0.0002474098,2.646,-4
0.1773,0.0001362936,2.6595,119,0.1773,-0.0002265965,2.6595,-4
0.1782,9.030289E-05,2.673,118,0.1782,-0.0001701991,2.673,-1
0.1791,1.040665E-05,2.6865,120,0.1791,-0.000102388,2.6865,-2
0.18,5.539025E-05,2.7,119,0.18,-1.510643E-05,2.7,-3
0.1809,-7.721065E-06,2.7135,119,0.1809,9.970245E-05,2.7135,-5
0.1818,-9.063859E-05,2.727,119,0.1818,0.0002396887,2.727,-3
0.1827,-1.242084E-05,2.7405,120,0.1827,0.0001983978,2.7405,-3
0.1836,-1.107805E-05,2.754,119,0.1836,5.807584E-05,2.754,-3
0.1845,2.24918E-05,2.7675,118,0.1845,1.712062E-05,2.7675,-3
0.1854,-1.208515E-05,2.781,118,0.1854,2.685588E-06,2.781,-2
0.1863,-7.754635E-05,2.7945,119,0.1863,-7.855344E-05,2.7945,-8
0.1872,-8.728161E-06,2.808,119,0.1872,-9.164568E-05,2.808,-5
0.1881,1.309224E-05,2.8215,119,0.1881,-8.89601E-05,2.8215,-3
0.189,1.577783E-05,2.835,119,0.189,-7.620356E-05,2.835,-4
0.1899,-1.779202E-05,2.8485,118,0.1899,-6.848249E-05,2.8485,-6
0.1908,-3.356985E-07,2.862,119,0.1908,-5.941863E-05,2.862,-3
0.1917,-1.544213E-05,2.8755,118,0.1917,5.706874E-06,2.8755,-1
0.1926,-9.265278E-05,2.889,118,0.1926,1.040665E-05,2.889,-5
0.1935,-0.0001383078,2.9025,119,0.1935,-3.524834E-05,2.9025,-2
0.1944,-4.599069E-05,2.916,120,0.1944,-1.644922E-05,2.916,-4
0.1953,-3.356985E-07,2.9295,119,0.1953,3.390555E-05,2.9295,-2
0.1962,-1.644922E-05,2.943,118,0.1962,-6.378271E-06,2.943,-3
0.1971,2.081331E-05,2.9565,118,0.1971,-5.236896E-05,2.9565,-1
0.198,6.378271E-06,2.97,118,0.198,-3.793393E-05,2.97,-1
0.1989,6.210422E-05,2.9835,119,0.1989,-3.524834E-05,2.9835,-2
0.1998,0.0001188373,2.997,119,0.1998,-7.553216E-05,2.997,-2
0.2007,0.0001520714,3.0105,119,0.2007,-5.169757E-05,3.0105,0
0.2016,9.903105E-05,3.024,118,0.2016,-3.793393E-05,3.024,-1
0.2025,6.277562E-05,3.0375,118,0.2025,-3.289845E-05,3.0375,0
0.2034,3.659113E-05,3.051,120,0.2034,-3.390555E-05,3.051,0
0.2043,-6.378271E-05,3.0645,119,0.2043,-5.304036E-05,3.0645,-5
0.2052,-1.141375E-05,3.078,0,0.2052,-3.826963E-05,3.078,0
0.2061,1.644922E-05,3.0915,0,0.2061,-3.021286E-05,3.0915,0
0.207,-1.577783E-05,3.105,0,0.207,-5.606165E-05,3.105,0
0.2079,-6.076142E-05,3.1185,0,0.2079,-0.0001107805,3.1185,0
0.2088,4.196231E-05,3.132,0,0.2088,-6.478981E-05,3.132,0
0.2097,0.0001567712,3.1455,0,0.2097,-4.766919E-05,3.1455,0
0.2106,0.0001030594,3.159,0,0.2106,-5.337606E-05,3.159,0
0.2115,5.069047E-05,3.1725,0,0.2115,3.793393E-05,3.1725,0
0.2124,-1.678492E-06,3.186,0,0.2124,3.726253E-05,3.186,0
0.2133,-0.0002547952,3.1995,0,0.2133,-5.001907E-05,3.1995,0
0.2142,-0.0001943694,3.213,0,0.2142,-3.155566E-05,3.213,0
0.2151,-0.0001161517,3.2265,0,0.2151,3.860533E-05,3.2265,0
0.216,-0.0001383078,3.24,0,0.216,6.143282E-05,3.24,0
0.2169,-0.0001685206,3.2535,0,0.2169,4.162661E-05,3.2535,0
0.2178,-9.768826E-05,3.267,0,0.2178,1.879912E-05,3.267,0
0.2187,-0.0001050736,3.2805,0,0.2187,3.256275E-05,3.2805,0
0.2196,-7.049668E-05,3.294,0,0.2196,5.404745E-05,3.294,0
0.2205,-4.867628E-05,3.3075,0,0.2205,-4.36408E-06,3.3075,0
0.2214,-2.719158E-05,3.321,0,0.2214,-1.644922E-05,3.321,0
0.2223,3.692683E-06,3.3345,0,0.2223,1.309224E-05,3.3345,0
0.2232,4.699779E-05,3.348,0,0.2232,-3.356985E-06,3.348,0
0.2241,9.030289E-05,3.3615,0,0.2241,-6.478981E-05,3.3615,0
0.225,4.49836E-05,3.375,0,0.225,-2.987716E-05,3.375,0
0.2259,4.46479E-05,3.3885,0,0.2259,-2.24918E-05,3.3885,0
0.2268,4.733349E-05,3.402,0,0.2268,-4.36408E-05,3.402,0
0.2277,8.291753E-05,3.4155,0,0.2277,-1.040665E-05,3.4155,0
0.2286,6.948959E-05,3.429,0,0.2286,-5.706874E-06,3.429,0
0.2295,3.994812E-05,3.4425,0,0.2295,-6.881819E-05,3.4425,0
0.2304,5.371176E-06,3.456,0,0.2304,-0.0001930266,3.456,0
0.2313,4.33051E-05,3.4695,0,0.2313,-0.0003524834,3.4695,0
0.2322,1.040665E-05,3.483,0,0.2322,-0.0003743038,3.483,0
0.2331,4.666209E-05,3.4965,0,0.2331,-0.0002994431,3.4965,0
0.234,9.231708E-05,3.51,0,0.234,-0.000154757,3.51,0
0.2349,2.349889E-06,3.5235,0,0.2349,9.298848E-05,3.5235,0
0.2358,-0.0001947051,3.537,0,0.2358,0.0003219348,3.537,0
0.2367,-0.0002262608,3.5505,0,0.2367,0.0004105592,3.5505,0
0.2376,-7.821774E-05,3.564,0,0.2376,0.0004401007,3.564,0
0.2385,-2.853437E-05,3.5775,0,0.2385,0.0003185779,3.5775,0
0.2394,1.007095E-06,3.591,0,0.2394,0.0001735561,3.591,0
0.2403,-2.417029E-05,3.6045,0,0.2403,7.251087E-05,3.6045,0
0.2412,-3.356985E-05,3.618,0,0.2412,2.652018E-05,3.618,0
0.2421,-4.028382E-06,3.6315,0,0.2421,1.242084E-05,3.6315,0
0.243,6.378271E-06,3.645,0,0.243,-1.477073E-05,3.645,0
0.2439,3.054856E-05,3.6585,0,0.2439,-3.726253E-05,3.6585,0
0.2448,1.443504E-05,3.672,0,0.2448,-8.560311E-05,3.672,0
0.2457,2.652018E-05,3.6855,0,0.2457,-9.835965E-05,3.6855,0
0.2466,5.069047E-05,3.699,0,0.2466,-6.478981E-05,3.699,0
0.2475,4.53193E-05,3.7125,0,0.2475,-6.948959E-05,3.7125,0
0.2484,2.920577E-05,3.726,0,0.2484,-7.049668E-05,3.726,0
0.2493,1.242084E-05,3.7395,0,0.2493,-5.908293E-05,3.7395,0
0.2502,5.203327E-05,3.753,0,0.2502,-0.0001138018,3.753,0
0.2511,4.36408E-05,3.7665,0,0.2511,-0.0001631495,3.7665,0
0.252,5.706874E-06,3.78,0,0.252,-0.0001050736,3.78,0
0.2529,-4.36408E-06,3.7935,0,0.2529,-0.0001221943,3.7935,0
0.2538,-1.275654E-05,3.807,0,0.2538,-0.0001319295,3.807,0
0.2547,2.349889E-05,3.8205,0,0.2547,-7.284657E-05,3.8205,0
0.2556,6.277562E-05,3.834,0,0.2556,4.36408E-06,3.834,0
0.2565,7.083238E-05,3.8475,0,0.2565,1.007095E-05,3.8475,0
0.2574,4.263371E-05,3.861,0,0.2574,-1.510643E-05,3.861,0
0.2583,3.726253E-05,3.8745,0,0.2583,1.980621E-05,3.8745,0
0.2592,-9.231708E-05,3.888,0,0.2592,4.263371E-05,3.888,0
0.2601,-0.0001201801,3.9015,0,0.2601,2.316319E-05,3.9015,0
0.261,-4.33051E-05,3.915,0,0.261,3.289845E-05,3.915,0
0.2619,-1.107805E-05,3.9285,0,0.2619,1.477073E-05,3.9285,0
0.2628,-2.1149E-05,3.942,0,0.2628,1.980621E-05,3.942,0
0.2637,-3.894102E-05,3.9555,0,0.2637,1.342794E-06,3.9555,0
0.2646,-1.712062E-05,3.969,0,0.2646,-5.169757E-05,3.969,0
0.2655,3.692683E-06,3.9825,0,0.2655,-2.517739E-05,3.9825,0
0.2664,6.378271E-06,3.996,0,0.2664,1.678492E-06,3.996,0
0.2673,1.644922E-05,4.0095,0,0.2673,-4.263371E-05,4.0095,0
0.2682,3.356985E-05,4.023,0,0.2682,-5.203327E-05,4.023,0
0.2691,-2.316319E-05,4.0365,0,0.2691,-3.558404E-05,4.0365,0
0.27,1.040665E-05,4.05,0,0.27,-0.0001299153,4.05,0
0.2709,4.46479E-05,4.0635,0,0.2709,-0.0001889983,4.0635,0
0.2718,-3.424125E-05,4.077,0,0.2718,-0.0002269322,4.077,0
0.2727,5.035477E-06,4.0905,0,0.2727,-0.0002145113,4.0905,0
0.2736,5.169757E-05,4.104,0,0.2736,-0.0001554284,4.104,0
0.2745,1.409934E-05,4.1175,0,0.2745,-3.860533E-05,4.1175,0
0.2754,-4.733349E-05,4.131,0,0.2754,0.0001154803,4.131,0
0.2763,-6.814679E-05,4.1445,0,0.2763,0.0002225681,4.1445,0
0.2772,-9.399558E-06,4.158,0,0.2772,0.0001574426,4.158,0
0.2781,4.36408E-06,4.1715,0,0.2781,0.0001628138,4.1715,0
0.279,2.383459E-05,4.185,0,0.279,0.0001698634,4.185,0
0.2799,1.040665E-05,4.1985,0,0.2799,9.634547E-05,4.1985,0
0.2808,-1.544213E-05,4.212,0,0.2808,1.779202E-05,4.212,0
0.2817,-3.860533E-05,4.2255,0,0.2817,-2.517739E-05,4.2255,0
0.2826,-3.558404E-05,4.239,0,0.2826,-2.987716E-05,4.239,0
0.2835,-0.0002027619,4.2525,0,0.2835,-2.954147E-05,4.2525,0
0.2844,-0.0001930266,4.266,0,0.2844,-2.484169E-05,4.266,0
0.2853,-5.807584E-05,4.2795,0,0.2853,-2.618448E-05,4.2795,0
0.2862,-4.061952E-05,4.293,0,0.2862,-2.047761E-05,4.293,0
0.2871,1.208515E-05,4.3065,0,0.2871,-1.309224E-05,4.3065,0
0.288,1.846342E-05,4.32,0,0.288,-3.390555E-05,4.32,0
0.2889,-7.721065E-06,4.3335,0,0.2889,-5.706874E-05,4.3335,0
0.2898,-2.450599E-05,4.347,0,0.2898,-2.652018E-05,4.347,0
0.2907,2.752728E-05,4.3605,0,0.2907,-4.800488E-05,4.3605,0
0.2916,5.740444E-05,4.374,0,0.2916,-0.0001114519,4.374,0
0.2925,8.526741E-05,4.3875,0,0.2925,-7.418937E-05,4.3875,0
0.2934,0.0001151446,4.401,0,0.2934,-6.143282E-05,4.401,0
0.2943,4.834058E-05,4.4145,0,0.2943,-7.754635E-05,4.4145,0
0.2952,3.356985E-07,4.428,0,0.2952,-3.927672E-05,4.428,0
0.2961,-4.263371E-05,4.4415,0,0.2961,1.342794E-05,4.4415,0
0.297,-4.599069E-05,4.455,0,0.297,3.659113E-05,4.455,0
0.2979,6.713969E-06,4.4685,0,0.2979,2.047761E-05,4.4685,0
0.2988,3.356985E-07,4.482,0,0.2988,-1.409934E-05,4.482,0
0.2997,-4.800488E-05,4.4955,0,0.2997,-8.728161E-06,4.4955,0
0.3006,-9.600977E-05,4.509,0,0.3006,1.376364E-05,4.509,0
0.3015,-7.016098E-05,4.5225,0,0.3015,6.713969E-07,4.5225,0
0.3024,5.706874E-06,4.536,0,0.3024,-1.309224E-05,4.536,0
0.3033,6.51255E-05,4.5495,0,0.3033,-5.706874E-06,4.5495,0
0.3042,8.023193E-05,4.563,0,0.3042,-4.632639E-05,4.563,0
0.3051,8.560311E-05,4.5765,0,0.3051,-7.183947E-05,4.5765,0
0.306,7.049668E-06,4.59,0,0.306,-3.256275E-05,4.59,0
0.3069,-4.129091E-05,4.6035,0,0.3069,-3.390555E-05,4.6035,0
0.3078,-3.256275E-05,4.617,0,0.3078,-4.867628E-05,4.617,0
0.3087,-3.524834E-05,4.6305,0,0.3087,-3.491264E-05,4.6305,0
0.3096,-0.0001346151,4.644,0,0.3096,-3.826963E-05,4.644,0
0.3105,-0.0001064164,4.6575,0,0.3105,-4.934768E-05,4.6575,0
0.3114,-4.699779E-06,4.671,0,0.3114,-4.028382E-05,4.671,0
0.3123,4.196231E-05,4.6845,0,0.3123,-3.256275E-05,4.6845,0
0.3132,2.987716E-05,4.698,0,0.3132,-2.081331E-05,4.698,0
0.3141,-2.987716E-05,4.7115,0,0.3141,-1.678492E-05,4.7115,0
0.315,-6.378271E-06,4.725,0,0.315,-2.081331E-05,4.725,0
0.3159,9.735256E-06,4.7385,0,0.3159,-3.256275E-05,4.7385,0
0.3168,-3.356985E-06,4.752,0,0.3168,1.007095E-05,4.752,0
0.3177,-3.793393E-05,4.7655,0,0.3177,-2.719158E-05,4.7655,0
0.3186,-2.18204E-05,4.779,0,0.3186,-5.941863E-05,4.779,0
0.3195,9.063859E-06,4.7925,0,0.3195,-5.035477E-06,4.7925,0
0.3204,-2.450599E-05,4.806,0,0.3204,1.040665E-05,4.806,0
0.3213,-7.049668E-06,4.8195,0,0.3213,1.040665E-05,4.8195,0
0.3222,0.0001433432,4.833,0,0.3222,-2.786297E-05,4.833,0
0.3231,0.000112459,4.8465,0,0.3231,-9.668116E-05,4.8465,0
0.324,3.189136E-05,4.86,0,0.324,-0.0001554284,4.86,0
0.3249,3.793393E-05,4.8735,0,0.3249,-0.0001557641,4.8735,0
0.3258,5.270466E-05,4.887,0,0.3258,-9.198138E-05,4.887,0
0.3267,0.0001044022,4.9005,0,0.3267,3.491264E-05,4.9005,0
0.3276,7.888914E-05,4.914,0,0.3276,0.0001769131,4.914,0
0.3285,-5.572595E-05,4.9275,0,0.3285,0.0001661708,4.9275,0
0.3294,-6.915389E-05,4.941,0,0.3294,6.948959E-05,4.941,0
0.3303,-0.0001148089,4.9545,0,0.3303,5.740444E-05,4.9545,0
0.3312,-0.0001346151,4.968,0,0.3312,1.644922E-05,4.968,0
0.3321,-0.0001171588,4.9815,0,0.3321,-3.155566E-05,4.9815,0
0.333,-6.009003E-05,4.995,0,0.333,2.1149E-05,4.995,0
0.3339,-7.016098E-05,5.0085,0,0.3339,4.36408E-05,5.0085,0
0.3348,-5.136187E-05,5.022,0,0.3348,2.987716E-05,5.022,0
0.3357,1.712062E-05,5.0355,0,0.3357,1.846342E-05,5.0355,0
0.3366,1.040665E-05,5.049,0,0.3366,1.644922E-05,5.049,0
0.3375,1.208515E-05,5.0625,0,0.3375,-2.517739E-05,5.0625,0
0.3384,6.176852E-05,5.076,0,0.3384,-9.768826E-05,5.076,0
0.3393,0.0001258869,5.0895,0,0.3393,-0.0003081712,5.0895,0
0.3402,0.0001060807,5.103,0,0.3402,-0.0004031739,5.103,0
0.3411,0.0001607996,5.1165,0,0.3411,-0.0003471122,5.1165,0
0.342,0.0001769131,5.13,0,0.342,-0.0002752728,5.13,0
0.3429,0.0001493858,5.1435,0,0.3429,-1.477073E-05,5.1435,0
0.3438,6.6804E-05,5.157,0,0.3438,0.0003608759,5.157,0
0.3447,-3.826963E-05,5.1705,0,0.3447,0.000428687,5.1705,0
0.3456,-0.0002410315,5.184,0,0.3456,0.0002558022,5.184,0
0.3465,-0.0004743419,5.1975,0,0.3465,0.0001500572,5.1975,0
0.3474,-0.0003135424,5.211,0,0.3474,0.0001242084,5.211,0
0.3483,-6.848249E-05,5.2245,0,0.3483,4.733349E-05,5.2245,0
0.3492,-1.980621E-05,5.238,0,0.3492,1.846342E-05,5.238,0
0.3501,-3.323415E-05,5.2515,0,0.3501,2.786297E-05,5.2515,0
0.351,8.392462E-06,5.265,0,0.351,1.141375E-05,5.265,0
0.3519,1.947051E-05,5.2785,0,0.3519,-1.376364E-05,5.2785,0
0.3528,2.21561E-05,5.292,0,0.3528,-2.920577E-05,5.292,0
0.3537,2.887007E-05,5.3055,0,0.3537,-3.591974E-05,5.3055,0
0.3546,-1.947051E-05,5.319,0,0.3546,-3.189136E-05,5.319,0
0.3555,-1.242084E-05,5.3325,0,0.3555,-7.452507E-05,5.3325,0
0.3564,7.721065E-06,5.346,0,0.3564,-0.0001117876,5.346,0
0.3573,-1.309224E-05,5.3595,0,0.3573,-0.0001030594,5.3595,0
0.3582,-3.021286E-06,5.373,0,0.3582,-0.0001252155,5.373,0
0.3591,2.652018E-05,5.3865,0,0.3591,-0.0001490501,5.3865,0
0.36,2.887007E-05,5.4,0,0.36,-6.6804E-05,5.4,0
0.3609,4.196231E-05,5.4135,0,0.3609,-1.174945E-05,5.4135,0
0.3618,3.457694E-05,5.427,0,0.3618,-3.927672E-05,5.427,0
0.3627,2.517739E-05,5.4405,0,0.3627,-2.18204E-05,5.4405,0
0.3636,3.021286E-06,5.454,0,0.3636,3.994812E-05,5.454,0
0.3645,-7.049668E-06,5.4675,0,0.3645,3.390555E-05,5.4675,0
0.3654,9.063859E-06,5.481,0,0.3654,-1.812772E-05,5.481,0
0.3663,7.721065E-06,5.4945,0,0.3663,-5.975433E-05,5.4945,0
0.3672,1.947051E-05,5.508,0,0.3672,-2.047761E-05,5.508,0
0.3681,-4.36408E-06,5.5215,0,0.3681,-4.028382E-06,5.5215,0
0.369,1.376364E-05,5.535,0,0.369,-2.819867E-05,5.535,0
0.3699,4.129091E-05,5.5485,0,0.3699,-4.36408E-05,5.5485,0
0.3708,-2.349889E-06,5.562,0,0.3708,-1.577783E-05,5.562,0
0.3717,-1.644922E-05,5.5755,0,0.3717,-2.685588E-05,5.5755,0
0.3726,-8.392462E-06,5.589,0,0.3726,-5.505455E-05,5.589,0
0.3735,3.692683E-06,5.6025,0,0.3735,-5.706874E-06,5.6025,0
0.3744,8.023193E-05,5.616,0,0.3744,3.356985E-07,5.616,0
0.3753,0.0001198444,5.6295,0,0.3753,-8.426032E-05,5.6295,0
0.3762,9.365987E-05,5.643,0,0.3762,-8.69459E-05,5.643,0
0.3771,4.095522E-05,5.6565,0,0.3771,-5.035477E-05,5.6565,0
0.378,2.1149E-05,5.67,0,0.378,-6.54612E-05,5.67,0
0.3789,3.457694E-05,5.6835,0,0.3789,-4.46479E-05,5.6835,0
0.3798,0.0001554284,5.697,0,0.3798,-4.934768E-05,5.697,0
0.3807,0.0002286107,5.7105,0,0.3807,-2.316319E-05,5.7105,0
0.3816,4.666209E-05,5.724,0,0.3816,6.378271E-06,5.724,0
0.3825,-2.316319E-05,5.7375,0,0.3825,-2.584878E-05,5.7375,0
0.3834,-1.409934E-05,5.751,0,0.3834,-6.6804E-05,5.751,0
0.3843,-0.0001540856,5.7645,0,0.3843,-4.733349E-05,5.7645,0
0.3852,-0.0004639353,5.778,0,0.3852,-6.009003E-05,5.778,0
0.3861,-0.000383032,5.7915,0,0.3861,-7.620356E-05,5.7915,0
0.387,-9.701686E-05,5.805,0,0.387,4.36408E-06,5.805,0
0.3879,-8.627451E-05,5.8185,0,0.3879,6.948959E-05,5.8185,0
0.3888,-9.970245E-05,5.832,0,0.3888,9.903105E-05,5.832,0
0.3897,-8.82887E-05,5.8455,0,0.3897,8.224613E-05,5.8455,0
0.3906,-5.807584E-05,5.859,0,0.3906,6.344701E-05,5.859,0
0.3915,-3.524834E-05,5.8725,0,0.3915,4.129091E-05,5.8725,0
0.3924,1.040665E-05,5.886,0,0.3924,2.28275E-05,5.886,0
0.3933,0.0001527428,5.8995,0,0.3933,-6.378271E-06,5.8995,0
0.3942,0.0003085069,5.913,0,0.3942,-2.417029E-05,5.913,0
0.3951,0.0002829938,5.9265,0,0.3951,-0.0001178302,5.9265,0
0.396,0.0001688563,5.94,0,0.396,-0.0003118639,5.94,0
0.3969,1.980621E-05,5.9535,0,0.3969,-0.000562295,5.9535,0
0.3978,-0.000115816,5.967,0,0.3978,-0.0006139925,5.967,0
0.3987,-0.0002789654,5.9805,0,0.3987,-0.0006126497,5.9805,0
0.3996,-0.0002373388,5.994,0,0.3996,-0.0003884031,5.994,0
0.4005,-0.0001373007,6.0075,0,0.4005,0.000144686,6.0075,0
0.4014,-2.21561E-05,6.021,0,0.4014,0.0006438697,6.021,0
0.4023,-4.263371E-05,6.0345,0,0.4023,0.0008624094,6.0345,0
0.4032,-0.0001292439,6.048,0,0.4032,0.0006831464,6.048,0
0.4041,-6.814679E-05,6.0615,0,0.4041,0.0005408102,6.0615,0
0.405,1.107805E-05,6.075,0,0.405,0.0003252918,6.075,0
0.4059,-5.035477E-06,6.0885,0,0.4059,0.0001574426,6.0885,0
0.4068,6.378271E-06,6.102,0,0.4068,4.263371E-05,6.102,0
0.4077,3.692683E-06,6.1155,0,0.4077,4.061952E-05,6.1155,0
0.4086,-1.007095E-05,6.129,0,0.4086,1.812772E-05,6.129,0
0.4095,1.712062E-05,6.1425,0,0.4095,-2.584878E-05,6.1425,0
0.4104,1.040665E-05,6.156,0,0.4104,-5.203327E-05,6.156,0
0.4113,-3.424125E-05,6.1695,0,0.4113,-4.901198E-05,6.1695,0
0.4122,-6.713969E-07,6.183,0,0.4122,-7.821774E-05,6.183,0
0.4131,9.231708E-05,6.1965,0,0.4131,-0.0001305867,6.1965,0
0.414,7.687495E-05,6.21,0,0.414,-0.0001171588,6.21,0
0.4149,1.242084E-05,6.2235,0,0.4149,-0.0001279011,6.2235,0
0.4158,2.517739E-05,6.237,0,0.4158,-0.000203769,6.237,0
0.4167,1.913481E-05,6.2505,0,0.4167,-0.0002098116,6.2505,0
0.4176,-3.759823E-05,6.264,0,0.4176,-0.0001963836,6.264,0
0.4185,-1.947051E-05,6.2775,0,0.4185,-0.0001671778,6.2775,0
0.4194,7.049668E-06,6.291,0,0.4194,-0.0001040665,6.291,0
0.4203,3.323415E-05,6.3045,0,0.4203,-5.035477E-05,6.3045,0
0.4212,3.625543E-05,6.318,0,0.4212,1.342794E-05,6.318,0
0.4221,3.524834E-05,6.3315,0,0.4221,4.43122E-05,6.3315,0
0.423,1.712062E-05,6.345,0,0.423,1.644922E-05,6.345,0
0.4239,1.947051E-05,6.3585,0,0.4239,-3.659113E-05,6.3585,0
0.4248,3.323415E-05,6.372,0,0.4248,1.544213E-05,6.372,0
0.4257,5.270466E-05,6.3855,0,0.4257,-1.678492E-06,6.3855,0
0.4266,8.157473E-05,6.399,0,0.4266,-8.72816E-05,6.399,0
0.4275,6.61326E-05,6.4125,0,0.4275,-7.687495E-05,6.4125,0
0.4284,5.136187E-05,6.426,0,0.4284,-5.673304E-05,6.426,0
0.4293,2.584878E-05,6.4395,0,0.4293,-0.0001500572,6.4395,0
0.4302,-3.994812E-05,6.453,0,0.4302,-0.0001540856,6.453,0
0.4311,-4.129091E-05,6.4665,0,0.4311,-9.466698E-05,6.4665,0
0.432,-9.399558E-06,6.48,0,0.432,-7.452507E-05,6.48,0
0.4329,9.231708E-05,6.4935,0,0.4329,-9.130999E-05,6.4935,0
0.4338,0.000119173,6.507,0,0.4338,-0.0001027237,6.507,0
0.4347,0.000119173,6.5205,0,0.4347,-2.853437E-05,6.5205,0
0.4356,5.673304E-05,6.534,0,0.4356,5.941863E-05,6.534,0
0.4365,-0.000185977,6.5475,0,0.4365,0.0001285725,6.5475,0
0.4374,-0.0002010834,6.561,0,0.4374,0.0001272297,6.561,0
0.4383,-0.0001963836,6.5745,0,0.4383,0.0001339437,6.5745,0
0.4392,-0.0001282368,6.588,0,0.4392,8.392462E-05,6.588,0
0.4401,-4.599069E-05,6.6015,0,0.4401,5.035477E-06,6.6015,0
0.441,-3.121996E-05,6.615,0,0.441,1.812772E-05,6.615,0
0.4419,-4.699779E-06,6.6285,0,0.4419,-1.577783E-05,6.6285,0
0.4428,-2.349889E-06,6.642,0,0.4428,-4.766919E-05,6.642,0
0.4437,3.390555E-05,6.6555,0,0.4437,-3.390555E-05,6.6555,0
0.4446,-3.356985E-07,6.669,0,0.4446,-1.242084E-05,6.669,0
0.4455,-1.510643E-05,6.6825,0,0.4455,-1.342794E-05,6.6825,0
0.4464,-2.349889E-06,6.696,0,0.4464,-2.652018E-05,6.696,0
0.4473,8.056763E-06,6.7095,0,0.4473,-4.733349E-05,6.7095,0
0.4482,2.349889E-06,6.723,0,0.4482,-3.256275E-05,6.723,0
0.4491,-6.713969E-06,6.7365,0,0.4491,-1.644922E-05,6.7365,0
0.45,5.203327E-05,6.75,0,0.45,-2.853437E-05,6.75,0
0.4509,0.0001305867,6.7635,0,0.4509,-4.800488E-05,6.7635,0
0.4518,6.51255E-05,6.777,0,0.4518,-1.980621E-05,6.777,0
0.4527,0.0001460288,6.7905,0,0.4527,3.692683E-06,6.7905,0
0.4536,0.0003591974,6.804,0,0.4536,-5.606165E-05,6.804,0
0.4545,0.000256138,6.8175,0,0.4545,-0.0001070878,6.8175,0
0.4554,6.076142E-05,6.831,0,0.4554,-0.0001722133,6.831,0
0.4563,0.0001111162,6.8445,0,0.4563,-0.0002477455,6.8445,0
0.4572,4.666209E-05,6.858,0,0.4572,-0.0002558022,6.858,0
0.4581,-0.0003894102,6.8715,0,0.4581,-0.000164828,6.8715,0
0.459,-0.0004874342,6.885,0,0.459,-7.553216E-05,6.885,0
0.4599,-0.0002756084,6.8985,0,0.4599,9.634547E-05,6.8985,0
0.4608,-0.0003608759,6.912,0,0.4608,0.0001490501,6.912,0
0.4617,-0.0003041428,6.9255,0,0.4617,0.000169192,6.9255,0
0.4626,-0.0001560998,6.939,0,0.4626,0.0001688563,6.939,0
0.4635,-3.726253E-05,6.9525,0,0.4635,8.89601E-05,6.9525,0
0.4644,1.409934E-05,6.966,0,0.4644,5.874724E-05,6.966,0
0.4653,2.450599E-05,6.9795,0,0.4653,0.0001957122,6.9795,0
0.4662,-1.947051E-05,6.993,0,0.4662,0.0001107805,6.993,0
0.4671,-3.356985E-07,7.0065,0,0.4671,-6.176852E-05,7.0065,0
0.468,-3.054856E-05,7.02,0,0.468,-3.424125E-05,7.02,0
0.4689,-9.231708E-05,7.0335,0,0.4689,-3.524834E-05,7.0335,0
0.4698,1.712062E-05,7.047,0,0.4698,-6.411841E-05,7.047,0
0.4707,4.934768E-05,7.0605,0,0.4707,-5.606165E-05,7.0605,0
0.4716,1.040665E-05,7.074,0,0.4716,4.36408E-06,7.074,0
0.4725,3.356985E-05,7.0875,0,0.4725,7.721065E-06,7.0875,0
0.4734,4.263371E-05,7.101,0,0.4734,-1.510643E-05,7.101,0
0.4743,5.270466E-05,7.1145,0,0.4743,-6.210422E-05,7.1145,0
0.4752,5.572595E-05,7.128,0,0.4752,-2.047761E-05,7.128,0
0.4761,1.040665E-05,7.1415,0,0.4761,1.174945E-05,7.1415,0
0.477,2.349889E-05,7.155,0,0.477,-9.063859E-06,7.155,0
0.4779,2.618448E-05,7.1685,0,0.4779,-1.242084E-05,7.1685,0
0.4788,1.208515E-05,7.182,0,0.4788,6.713969E-06,7.182,0
0.4797,5.438316E-05,7.1955,0,0.4797,-1.510643E-05,7.1955,0
0.4806,6.277562E-05,7.209,0,0.4806,-5.572595E-05,7.209,0
0.4815,6.881819E-05,7.2225,0,0.4815,-1.913481E-05,7.2225,0
0.4824,9.903105E-05,7.236,0,0.4824,-6.378271E-06,7.236,0
0.4833,8.761731E-05,7.2495,0,0.4833,-4.028382E-05,7.2495,0
0.4842,5.572595E-05,7.263,0,0.4842,-5.203327E-05,7.263,0
0.4851,4.39765E-05,7.2765,0,0.4851,-3.189136E-05,7.2765,0
0.486,1.980621E-05,7.29,0,0.486,-4.834058E-05,7.29,0
0.4869,7.049668E-06,7.3035,0,0.4869,-3.927672E-05,7.3035,0
0.4878,7.049668E-06,7.317,0,0.4878,-6.478981E-05,7.317,0
0.4887,1.678492E-05,7.3305,0,0.4887,-5.673304E-05,7.3305,0
0.4896,1.577783E-05,7.344,0,0.4896,-4.129091E-05,7.344,0
0.4905,-2.014191E-05,7.3575,0,0.4905,-7.083238E-05,7.3575,0
0.4914,6.076142E-05,7.371,0,0.4914,-6.51255E-05,7.371,0
0.4923,5.606165E-05,7.3845,0,0.4923,-5.371176E-06,7.3845,0
0.4932,4.666209E-05,7.398,0,0.4932,2.618448E-05,7.398,0
0.4941,1.242084E-05,7.4115,0,0.4941,-3.256275E-05,7.4115,0
0.495,-2.752728E-05,7.425,0,0.495,-2.584878E-05,7.425,0
0.4959,-2.18204E-05,7.4385,0,0.4959,-2.349889E-06,7.4385,0
0.4968,-9.399558E-06,7.452,0,0.4968,-1.644922E-05,7.452,0
0.4977,-6.713969E-07,7.4655,0,0.4977,-3.021286E-06,7.4655,0
0.4986,-1.712062E-05,7.479,0,0.4986,1.779202E-05,7.479,0
0.4995,-3.524834E-05,7.4925,0,0.4995,-2.685588E-06,7.4925,0
0.5004,-2.618448E-05,7.506,0,0.5004,1.678492E-06,7.506,0
0.5013,-2.24918E-05,7.5195,0,0.5013,-1.779202E-05,7.5195,0
0.5022,-3.927672E-05,7.533,0,0.5022,-1.107805E-05,7.533,0
0.5031,-3.323415E-05,7.5465,0,0.5031,-1.107805E-05,7.5465,0
0.504,-3.524834E-05,7.56,0,0.504,-4.29694E-05,7.56,0
0.5049,-4.968337E-05,7.5735,0,0.5049,-6.848249E-05,7.5735,0
0.5058,-5.941863E-05,7.587,0,0.5058,-3.558404E-05,7.587,0
0.5067,-6.277562E-05,7.6005,0,0.5067,-2.28275E-05,7.6005,0
0.5076,-3.659113E-05,7.614,0,0.5076,-7.116808E-05,7.614,0
0.5085,-3.289845E-05,7.6275,0,0.5085,-4.095522E-05,7.6275,0
0.5094,-3.726253E-05,7.641,0,0.5094,7.721065E-06,7.641,0
0.5103,-1.913481E-05,7.6545,0,0.5103,3.692683E-06,7.6545,0
0.5112,-3.558404E-05,7.668,0,0.5112,-1.779202E-05,7.668,0
0.5121,-1.544213E-05,7.6815,0,0.5121,1.275654E-05,7.6815,0
0.513,6.042573E-06,7.695,0,0.513,1.745632E-05,7.695,0
0.5139,-1.510643E-05,7.7085,0,0.5139,-3.457694E-05,7.7085,0
0.5148,-2.18204E-05,7.722,0,0.5148,-5.169757E-05,7.722,0
0.5157,-2.081331E-05,7.7355,0,0.5157,3.189136E-05,7.7355,0
0.5166,-7.721065E-06,7.749,0,0.5166,3.021286E-05,7.749,0
0.5175,2.819867E-05,7.7625,0,0.5175,-9.063859E-06,7.7625,0
0.5184,1.040665E-05,7.776,0,0.5184,-3.491264E-05,7.776,0
0.5193,-1.007095E-05,7.7895,0,0.5193,-5.371176E-06,7.7895,0
0.5202,-3.021286E-06,7.803,0,0.5202,-1.879912E-05,7.803,0
0.5211,-2.887007E-05,7.8165,0,0.5211,-5.841154E-05,7.8165,0
0.522,-6.61326E-05,7.83,0,0.522,-3.356985E-07,7.83,0
0.5229,-2.349889E-05,7.8435,0,0.5229,1.242084E-05,7.8435,0
0.5238,1.275654E-05,7.857,0,0.5238,-2.954147E-05,7.857,0
0.5247,-6.042573E-06,7.8705,0,0.5247,-1.107805E-05,7.8705,0
0.5256,-2.1149E-05,7.884,0,0.5256,-4.028382E-06,7.884,0
0.5265,3.692683E-06,7.8975,0,0.5265,-3.659113E-05,7.8975,0
0.5274,5.706874E-06,7.911,0,0.5274,-6.61326E-05,7.911,0
0.5283,-3.356985E-07,7.9245,0,0.5283,-8.224613E-05,7.9245,0
0.5292,-1.510643E-05,7.938,0,0.5292,-2.652018E-05,7.938,0
0.5301,-4.867628E-05,7.9515,0,0.5301,4.263371E-05,7.9515,0
0.531,-4.867628E-05,7.965,0,0.531,6.311131E-05,7.965,0
0.5319,-1.443504E-05,7.9785,0,0.5319,-7.721065E-06,7.9785,0
0.5328,-1.477073E-05,7.992,0,0.5328,3.088426E-05,7.992,0
0.5337,-1.309224E-05,8.0055,0,0.5337,-1.712062E-05,8.0055,0
0.5346,2.652018E-05,8.019,0,0.5346,-7.083238E-05,8.019,0
0.5355,4.666209E-05,8.0325,0,0.5355,-5.438316E-05,8.0325,0
0.5364,4.599069E-05,8.046,0,0.5364,-6.74754E-05,8.046,0
0.5373,4.766919E-05,8.0595,0,0.5373,-0.000126894,8.0595,0
0.5382,7.519646E-05,8.073,0,0.5382,-0.0001050736,8.073,0
0.5391,9.735256E-05,8.0865,0,0.5391,-4.49836E-05,8.0865,0
0.54,6.311131E-05,8.1,0,0.54,-4.129091E-05,8.1,0
0.5409,-1.846342E-05,8.1135,0,0.5409,-4.934768E-05,8.1135,0
0.5418,-1.107805E-05,8.127,0,0.5418,-3.189136E-05,8.127,0
0.5427,2.887007E-05,8.1405,0,0.5427,5.673304E-05,8.1405,0
0.5436,-3.155566E-05,8.154,0,0.5436,9.600977E-05,8.154,0
0.5445,2.383459E-05,8.1675,0,0.5445,6.51255E-05,8.1675,0
0.5454,8.82887E-05,8.181,0,0.5454,-1.678492E-06,8.181,0
0.5463,0.0001242084,8.1945,0,0.5463,-2.1149E-05,8.1945,0
0.5472,0.0001755703,8.208,0,0.5472,-9.735256E-05,8.208,0
0.5481,0.0002474098,8.2215,0,0.5481,-0.0002517739,8.2215,0
0.549,4.800488E-05,8.235,0,0.549,-0.0002218967,8.235,0
0.5499,-0.0002403601,8.2485,0,0.5499,-0.0002373388,8.2485,0
0.5508,-0.0002410315,8.262,0,0.5508,-0.0002222324,8.262,0
0.5517,-0.000175906,8.2755,0,0.5517,-6.277562E-05,8.2755,0
0.5526,-0.0003252918,8.289,0,0.5526,7.318227E-05,8.289,0
0.5535,-0.0005351034,8.3025,0,0.5535,0.0002135042,8.3025,0
0.5544,-0.0003598688,8.316,0,0.5544,0.0002057832,8.316,0
0.5553,-6.378271E-06,8.3295,0,0.5553,0.0002554666,8.3295,0
0.5562,1.678492E-06,8.343,0,0.5562,0.0002870222,8.343,0
0.5571,-1.275654E-05,8.3565,0,0.5571,0.000203769,8.3565,0
0.558,2.24918E-05,8.37,0,0.558,0.0001362936,8.37,0
0.5589,7.721065E-06,8.3835,0,0.5589,3.894102E-05,8.3835,0
0.5598,-3.021286E-05,8.397,0,0.5598,5.035477E-05,8.397,0
0.5607,3.289845E-05,8.4105,0,0.5607,2.652018E-05,8.4105,0
0.5616,7.754635E-05,8.424,0,0.5616,-8.82887E-05,8.424,0
0.5625,7.049668E-06,8.4375,0,0.5625,-0.0003091783,8.4375,0
0.5634,9.735256E-06,8.451,0,0.5634,-0.0005532311,8.451,0
0.5643,8.82887E-05,8.4645,0,0.5643,-0.0005770657,8.4645,0
0.5652,7.486076E-05,8.478,0,0.5652,-0.0003645686,8.478,0
0.5661,7.452507E-05,8.4915,0,0.5661,-0.0001285725,8.4915,0
0.567,3.961242E-05,8.505,0,0.567,0.0001352865,8.505,0
0.5679,5.136187E-05,8.5185,0,0.5679,0.0005804227,8.5185,0
0.5688,3.088426E-05,8.532,0,0.5688,0.0006703899,8.532,0
0.5697,1.309224E-05,8.5455,0,0.5697,0.0003837034,8.5455,0
0.5706,4.129091E-05,8.559,0,0.5706,0.0001933623,8.559,0
0.5715,1.577783E-05,8.5725,0,0.5715,8.392462E-05,8.5725,0
0.5724,3.994812E-05,8.586,0,0.5724,3.659113E-05,8.586,0
0.5733,3.793393E-05,8.5995,0,0.5733,2.1149E-05,8.5995,0
0.5742,6.78111E-05,8.613,0,0.5742,-9.735256E-06,8.613,0
0.5751,0.0002138399,8.6265,0,0.5751,-5.337606E-05,8.6265,0
0.576,0.0001188373,8.64,0,0.576,-3.323415E-05,8.64,0
0.5769,-2.584878E-05,8.6535,0,0.5769,-5.102617E-05,8.6535,0
0.5778,-4.934768E-05,8.667,0,0.5778,-8.96315E-05,8.667,0
0.5787,-7.284657E-05,8.6805,0,0.5787,-9.231708E-05,8.6805,0
0.5796,-0.0001238727,8.694,0,0.5796,-6.915389E-05,8.694,0
0.5805,-4.29694E-05,8.7075,0,0.5805,-5.908293E-05,8.7075,0
0.5814,-2.21561E-05,8.721,0,0.5814,-0.0001205158,8.721,0
0.5823,1.342794E-06,8.7345,0,0.5823,-0.0001379721,8.7345,0
0.5832,2.752728E-05,8.748,0,0.5832,-9.399557E-05,8.748,0
0.5841,-1.342794E-06,8.7615,0,0.5841,-7.049668E-05,8.7615,0
0.585,4.028382E-06,8.775,0,0.585,-8.224613E-05,8.775,0
0.5859,1.174945E-05,8.7885,0,0.5859,-9.399557E-05,8.7885,0
0.5868,-1.107805E-05,8.802,0,0.5868,-4.800488E-05,8.802,0
0.5877,-2.685588E-06,8.8155,0,0.5877,-4.632639E-05,8.8155,0
0.5886,-1.242084E-05,8.829,0,0.5886,-0.0001084306,8.829,0
0.5895,-5.706874E-06,8.8425,0,0.5895,-0.0001430075,8.8425,0
0.5904,1.577783E-05,8.856,0,0.5904,-0.000164828,8.856,0
0.5913,1.980621E-05,8.8695,0,0.5913,-0.0002088045,8.8695,0
0.5922,0.0001225299,8.883,0,0.5922,-0.0001920195,8.883,0
0.5931,0.0003138781,8.8965,0,0.5931,-0.0001651637,8.8965,0
0.594,0.0005918364,8.91,0,0.594,-9.231708E-05,8.91,0
0.5949,0.0005109331,8.9235,0,0.5949,3.088426E-05,8.9235,0
0.5958,0.0001849699,8.937,0,0.5958,6.478981E-05,8.937,0
0.5967,-0.0001587854,8.9505,0,0.5967,8.728161E-06,8.9505,0
0.5976,-0.0002725872,8.964,0,0.5976,3.726253E-05,8.964,0
0.5985,-0.000643534,8.9775,0,0.5985,8.82887E-05,8.9775,0
0.5994,-0.001080278,8.991,0,0.5994,8.89601E-05,8.991,0
0.6003,-0.0004558785,9.0045,0,0.6003,0.0001540856,9.0045,0
0.6012,-5.740444E-05,9.018,0,0.6012,0.0001326009,9.018,0
0.6021,-6.210422E-05,9.0315,0,0.6021,1.510643E-05,9.0315,0
0.603,-7.083238E-05,9.045,0,0.603,3.021286E-05,9.045,0
0.6039,9.063859E-06,9.0585,0,0.6039,1.980621E-05,9.0585,0
0.6048,7.888914E-05,9.072001,0,0.6048,-9.298848E-05,9.072001,0
0.6057,0.0001279011,9.0855,0,0.6057,-0.0001829557,9.0855,0
0.6066,0.000246067,9.099,0,0.6066,-0.000239353,9.099,0
0.6075,0.0001822843,9.1125,0,0.6075,-0.0002443885,9.1125,0
0.6084,3.692683E-06,9.126,0,0.6084,-0.0001524071,9.126,0
0.6093,-0.0001064164,9.1395,0,0.6093,-6.076142E-05,9.1395,0
0.6102,-0.0001769131,9.153,0,0.6102,0.0001238727,9.153,0
0.6111,-0.000179263,9.1665,0,0.6111,0.0003555047,9.1665,0
0.612,-2.047761E-05,9.18,0,0.612,0.0002957504,9.18,0
0.6129,3.927672E-05,9.1935,0,0.6129,0.0002319677,9.1935,0
0.6138,3.659113E-05,9.207,0,0.6138,0.0002386816,9.207,0
0.6147,2.1149E-05,9.2205,0,0.6147,8.291753E-05,9.2205,0
0.6156,8.023193E-05,9.234,0,0.6156,-2.28275E-05,9.234,0
0.6165,2.920577E-05,9.2475,0,0.6165,-2.047761E-05,9.2475,0
0.6174,0.0002789654,9.261,0,0.6174,-5.404745E-05,9.261,0
0.6183,0.0005690089,9.2745,0,0.6183,-0.0001769131,9.2745,0
0.6192,0.0004401007,9.288,0,0.6192,-0.0002178683,9.288,0
0.6201,0.0002111543,9.3015,0,0.6201,-0.0002410315,9.3015,0
0.621,8.157473E-05,9.315,0,0.621,-0.0002272679,9.315,0
0.6219,-9.533837E-05,9.3285,0,0.6219,-0.0001027237,9.3285,0
0.6228,-0.0006750897,9.342,0,0.6228,-3.256275E-05,9.342,0
0.6237,-0.0005669947,9.3555,0,0.6237,4.39765E-05,9.3555,0
0.6246,-0.0002245823,9.369,0,0.6246,0.0001245441,9.369,0
0.6255,-0.0001440146,9.3825,0,0.6255,0.0001164874,9.3825,0
0.6264,-0.0001399863,9.396,0,0.6264,8.392462E-05,9.396,0
0.6273,-0.0001228656,9.4095,0,0.6273,2.484169E-05,9.4095,0
0.6282,-3.692683E-05,9.423,0,0.6282,1.913481E-05,9.423,0
0.6291,1.242084E-05,9.4365,0,0.6291,-3.793393E-05,9.4365,0
0.63,-1.779202E-05,9.45,0,0.63,-4.129091E-05,9.45,0
0.6309,1.376364E-05,9.4635,0,0.6309,-5.740444E-05,9.4635,0
0.6318,4.061952E-05,9.477,0,0.6318,-0.0001067521,9.477,0
0.6327,-1.510643E-05,9.4905,0,0.6327,-3.793393E-05,9.4905,0
0.6336,5.136187E-05,9.504,0,0.6336,-2.819867E-05,9.504,0
0.6345,0.0002057832,9.5175,0,0.6345,-4.162661E-05,9.5175,0
0.6354,0.000263859,9.531,0,0.6354,-1.644922E-05,9.531,0
0.6363,0.0002346532,9.5445,0,0.6363,-1.107805E-05,9.5445,0
0.6372,9.970245E-05,9.558,0,0.6372,2.652018E-05,9.558,0
0.6381,1.913481E-05,9.5715,0,0.6381,2.584878E-05,9.5715,0
0.639,1.712062E-05,9.585,0,0.639,-3.256275E-05,9.585,0
0.6399,-1.409934E-05,9.5985,0,0.6399,-2.349889E-06,9.5985,0
0.6408,-0.0001215228,9.612,0,0.6408,7.016098E-05,9.612,0
0.6417,-8.761731E-05,9.6255,0,0.6417,-2.853437E-05,9.6255,0
0.6426,-4.33051E-05,9.639,0,0.6426,-0.0001574426,9.639,0
0.6435,-2.853437E-05,9.6525,0,0.6435,-0.000161471,9.6525,0
0.6444,-7.821774E-05,9.666,0,0.6444,-0.000200412,9.666,0
0.6453,9.735256E-06,9.6795,0,0.6453,-0.000330663,9.6795,0
0.6462,2.887007E-05,9.693,0,0.6462,-0.0003091783,9.693,0
0.6471,-8.728161E-06,9.7065,0,0.6471,-0.0001722133,9.7065,0
0.648,-7.385367E-06,9.72,0,0.648,3.491264E-05,9.72,0
0.6489,-8.023193E-05,9.7335,0,0.6489,6.78111E-05,9.7335,0
0.6498,-7.721065E-06,9.747,0,0.6498,0.0001534142,9.747,0
0.6507,0.0001094377,9.7605,0,0.6507,0.0002457313,9.7605,0
0.6516,0.0001292439,9.774,0,0.6516,0.0002715801,9.774,0
0.6525,8.258183E-05,9.7875,0,0.6525,0.0002487526,9.7875,0
0.6534,5.572595E-05,9.801,0,0.6534,0.000112459,9.801,0
0.6543,1.577783E-05,9.8145,0,0.6543,5.740444E-05,9.8145,0
0.6552,-7.318227E-05,9.828,0,0.6552,-4.061952E-05,9.828,0
0.6561,-8.761731E-05,9.8415,0,0.6561,-0.0002192111,9.8415,0
0.657,2.383459E-05,9.855,0,0.657,-0.0004078737,9.855,0
0.6579,0.0001205158,9.8685,0,0.6579,-0.0006374914,9.8685,0
0.6588,0.0002863508,9.882,0,0.6588,-0.0006438697,9.882,0
0.6597,0.0001849699,9.8955,0,0.6597,-0.000421973,9.8955,0
0.6606,-2.316319E-05,9.909,0,0.6606,-7.687495E-05,9.909,0
0.6615,-0.0001376364,9.9225,0,0.6615,0.0002786297,9.9225,0
0.6624,-0.0002128328,9.936,0,0.6624,0.0005938506,9.936,0
0.6633,-0.0002198825,9.9495,0,0.6633,0.0007167163,9.9495,0
0.6642,-0.0002366674,9.963,0,0.6642,0.0006549477,9.963,0
0.6651,-0.0001574426,9.976501,0,0.6651,0.0003031357,9.976501,0
0.666,-0.0001319295,9.99,0,0.666,0.0001299153,9.99,0
0.6669,1.141375E-05,10.0035,0,0.6669,0.0001634852,10.0035,0
0.6678,-1.443504E-05,10.017,0,0.6678,0.0001366293,10.017,0
0.6687,3.692683E-06,10.0305,0,0.6687,5.337606E-05,10.0305,0
0.6696,1.779202E-05,10.044,0,0.6696,-1.443504E-05,10.044,0
0.6705,-2.450599E-05,10.0575,0,0.6705,4.699779E-06,10.0575,0
0.6714,-1.174945E-05,10.071,0,0.6714,-2.719158E-05,10.071,0
0.6723,1.309224E-05,10.0845,0,0.6723,-7.888914E-05,10.0845,0
0.6732,-3.121996E-05,10.098,0,0.6732,-7.116808E-05,10.098,0
0.6741,-3.927672E-05,10.1115,0,0.6741,-8.358892E-05,10.1115,0
0.675,-2.349889E-05,10.125,0,0.675,-0.0001127947,10.125,0
0.6759,-3.021286E-06,10.1385,0,0.6759,-0.0001027237,10.1385,0
0.6768,3.021286E-05,10.152,0,0.6768,-0.0001107805,10.152,0
0.6777,4.800488E-05,10.1655,0,0.6777,-0.0001144732,10.1655,0
0.6786,4.061952E-05,10.179,0,0.6786,-9.701686E-05,10.179,0
0.6795,1.712062E-05,10.1925,0,0.6795,-0.0001141375,10.1925,0
0.6804,7.721065E-06,10.206,0,0.6804,-0.0001292439,10.206,0
0.6813,-7.385367E-06,10.2195,0,0.6813,-0.0001027237,10.2195,0
0.6822,3.356985E-06,10.233,0,0.6822,-0.0001097734,10.233,0
0.6831,1.208515E-05,10.2465,0,0.6831,-0.0001373007,10.2465,0
0.684,5.706874E-06,10.26,0,0.684,-8.627451E-05,10.26,0
0.6849,-9.063859E-06,10.2735,0,0.6849,-8.627451E-05,10.2735,0
0.6858,1.040665E-05,10.287,0,0.6858,-0.0001060807,10.287,0
0.6867,-1.040665E-05,10.3005,0,0.6867,-7.183947E-05,10.3005,0
0.6876,-5.035477E-05,10.314,0,0.6876,-4.666209E-05,10.314,0
0.6885,-5.740444E-05,10.3275,0,0.6885,-3.323415E-05,10.3275,0
0.6894,-1.644922E-05,10.341,0,0.6894,-6.277562E-05,10.341,0
0.6903,1.577783E-05,10.3545,0,0.6903,-8.191043E-05,10.3545,0
0.6912,-1.007095E-06,10.368,0,0.6912,-5.606165E-05,10.368,0
0.6921,4.028382E-06,10.3815,0,0.6921,-2.920577E-05,10.3815,0
0.693,1.779202E-05,10.395,0,0.693,-3.390555E-05,10.395,0
0.6939,2.517739E-05,10.4085,0,0.6939,-5.404745E-05,10.4085,0
0.6948,1.510643E-05,10.422,0,0.6948,-1.107805E-05,10.422,0
0.6957,1.309224E-05,10.4355,0,0.6957,-2.014191E-05,10.4355,0
0.6966,1.644922E-05,10.449,0,0.6966,-6.478981E-05,10.449,0
0.6975,1.812772E-05,10.4625,0,0.6975,-3.021286E-05,10.4625,0
0.6984,6.042573E-05,10.476,0,0.6984,-2.316319E-05,10.476,0
0.6993,8.96315E-05,10.4895,0,0.6993,-4.733349E-05,10.4895,0
0.7002,0.0001527428,10.503,0,0.7002,-2.887007E-05,10.503,0
0.7011,0.0001896696,10.5165,0,0.7011,1.007095E-06,10.5165,0
0.702,0.0001151446,10.53,0,0.702,-3.021286E-06,10.53,0
0.7029,9.030289E-05,10.5435,0,0.7029,-3.155566E-05,10.5435,0
0.7038,5.841154E-05,10.557,0,0.7038,-5.404745E-05,10.557,0
0.7047,-2.752728E-05,10.5705,0,0.7047,6.042573E-06,10.5705,0
0.7056,-0.0001272297,10.584,0,0.7056,5.404745E-05,10.584,0
0.7065,-0.0001782559,10.5975,0,0.7065,1.242084E-05,10.5975,0
0.7074,-0.0002977645,10.611,0,0.7074,3.356985E-07,10.611,0
0.7083,-0.0003642329,10.6245,0,0.7083,7.486076E-05,10.6245,0
0.7092,-0.0001775845,10.638,0,0.7092,6.210422E-05,10.638,0
0.7101,-4.867628E-05,10.6515,0,0.7101,1.577783E-05,10.6515,0
0.711,-3.860533E-05,10.665,0,0.711,2.853437E-05,10.665,0
0.7119,-6.881819E-05,10.6785,0,0.7119,2.920577E-05,10.6785,0
0.7128,-3.961242E-05,10.692,0,0.7128,-9.063859E-06,10.692,0
0.7137,-2.316319E-05,10.7055,0,0.7137,-2.652018E-05,10.7055,0
0.7146,-4.129091E-05,10.719,0,0.7146,-1.544213E-05,10.719,0
0.7155,-5.539025E-05,10.7325,0,0.7155,-2.584878E-05,10.7325,0
0.7164,-4.46479E-05,10.746,0,0.7164,-1.577783E-05,10.746,0
0.7173,-1.879912E-05,10.7595,0,0.7173,-3.692683E-05,10.7595,0
0.7182,9.735256E-06,10.773,0,0.7182,-1.107805E-05,10.773,0
0.7191,3.457694E-05,10.7865,0,0.7191,-3.356985E-07,10.7865,0
0.72,4.46479E-05,10.8,0,0.72,-2.316319E-05,10.8,0
0.7209,8.560311E-05,10.8135,0,0.7209,-2.450599E-05,10.8135,0
0.7218,6.74754E-05,10.827,0,0.7218,-1.510643E-05,10.827,0
0.7227,5.606165E-05,10.8405,0,0.7227,-2.383459E-05,10.8405,0
0.7236,9.030289E-05,10.854,0,0.7236,-3.121996E-05,10.854,0
0.7245,0.000102388,10.8675,0,0.7245,3.390555E-05,10.8675,0
0.7254,4.599069E-05,10.881,0,0.7254,6.277562E-05,10.881,0
0.7263,1.980621E-05,10.8945,0,0.7263,-2.21561E-05,10.8945,0
0.7272,3.860533E-05,10.908,0,0.7272,-5.069047E-05,10.908,0
0.7281,-2.383459E-05,10.9215,0,0.7281,1.040665E-05,10.9215,0
0.729,-7.049668E-05,10.935,0,0.729,5.304036E-05,10.935,0
0.7299,-5.471885E-05,10.9485,0,0.7299,5.606165E-05,10.9485,0
0.7308,-6.54612E-05,10.962,0,0.7308,6.076142E-05,10.962,0
0.7317,-6.143282E-05,10.9755,0,0.7317,3.860533E-05,10.9755,0
0.7326,-5.539025E-05,10.989,0,0.7326,1.678492E-05,10.989,0
0.7335,-4.36408E-05,11.0025,0,0.7335,-1.644922E-05,11.0025,0
0.7344,3.356985E-06,11.016,0,0.7344,-3.860533E-05,11.016,0
0.7353,4.599069E-05,11.0295,0,0.7353,-0.0001514,11.0295,0
0.7362,0.0001185016,11.043,0,0.7362,-0.0001960479,11.043,0
0.7371,0.0001319295,11.0565,0,0.7371,-0.0001661708,11.0565,0
0.738,6.881819E-05,11.07,0,0.738,-8.89601E-05,11.07,0
0.7389,6.74754E-05,11.0835,0,0.7389,-2.853437E-05,11.0835,0
0.7398,3.121996E-05,11.097,0,0.7398,-2.081331E-05,11.097,0
0.7407,3.021286E-05,11.1105,0,0.7407,-7.049668E-06,11.1105,0
0.7416,-3.121996E-05,11.124,0,0.7416,9.063859E-06,11.124,0
0.7425,-7.687495E-05,11.1375,0,0.7425,-2.987716E-05,11.1375,0
0.7434,-8.627451E-05,11.151,0,0.7434,-5.136187E-05,11.151,0
0.7443,-6.948959E-05,11.1645,0,0.7443,-7.855344E-05,11.1645,0
0.7452,-4.666209E-05,11.178,0,0.7452,-1.141375E-05,11.178,0
0.7461,-5.371176E-06,11.1915,0,0.7461,6.311131E-05,11.1915,0
0.747,5.337606E-05,11.205,0,0.747,4.028382E-05,11.205,0
0.7479,5.539025E-05,11.2185,0,0.7479,-3.625543E-05,11.2185,0
0.7488,3.860533E-05,11.232,0,0.7488,-1.275654E-05,11.232,0
0.7497,0.000112459,11.2455,0,0.7497,-2.920577E-05,11.2455,0
0.7506,0.0001232013,11.259,0,0.7506,-0.0001349508,11.259,0
0.7515,4.36408E-05,11.2725,0,0.7515,-1.577783E-05,11.2725,0
0.7524,-1.208515E-05,11.286,0,0.7524,7.956054E-05,11.286,0
0.7533,-2.987716E-05,11.2995,0,0.7533,3.927672E-05,11.2995,0
0.7542,-9.500267E-05,11.313,0,0.7542,2.853437E-05,11.313,0
0.7551,-7.452507E-05,11.3265,0,0.7551,3.189136E-05,11.3265,0
0.756,-7.217517E-05,11.34,0,0.756,-2.18204E-05,11.34,0
0.7569,-0.0001117876,11.3535,0,0.7569,-5.337606E-05,11.3535,0
0.7578,-5.975433E-05,11.367,0,0.7578,-5.404745E-05,11.367,0
0.7587,-6.143282E-05,11.3805,0,0.7587,-5.706874E-06,11.3805,0
0.7596,-8.761731E-05,11.394,0,0.7596,-1.007095E-06,11.394,0
0.7605,-8.123904E-05,11.4075,0,0.7605,-2.014191E-05,11.4075,0
0.7614,-5.169757E-05,11.421,0,0.7614,3.390555E-05,11.421,0
0.7623,-5.807584E-05,11.4345,0,0.7623,3.356985E-07,11.4345,0
0.7632,-4.061952E-05,11.448,0,0.7632,-8.123904E-05,11.448,0
0.7641,-1.712062E-05,11.4615,0,0.7641,-0.0001185016,11.4615,0
0.765,2.551309E-05,11.475,0,0.765,2.349889E-06,11.475,0
0.7659,5.337606E-05,11.4885,0,0.7659,0.0001456931,11.4885,0
0.7668,3.189136E-05,11.502,0,0.7668,3.256275E-05,11.502,0
0.7677,1.644922E-05,11.5155,0,0.7677,-8.358892E-05,11.5155,0
0.7686,-1.174945E-05,11.529,0,0.7686,-3.793393E-05,11.529,0
0.7695,-2.719158E-05,11.5425,0,0.7695,-3.524834E-05,11.5425,0
0.7704,-1.242084E-05,11.556,0,0.7704,-7.620356E-05,11.556,0
0.7713,1.745632E-05,11.5695,0,0.7713,-0.0001265583,11.5695,0
0.7722,5.337606E-05,11.583,0,0.7722,-6.210422E-05,11.583,0
0.7731,8.96315E-05,11.5965,0,0.7731,7.721065E-06,11.5965,0
0.774,3.994812E-05,11.61,0,0.774,-1.443504E-05,11.61,0
0.7749,-7.721065E-06,11.6235,0,0.7749,-4.49836E-05,11.6235,0
0.7758,1.443504E-05,11.637,0,0.7758,3.021286E-06,11.637,0
0.7767,1.107805E-05,11.6505,0,0.7767,1.678492E-06,11.6505,0
0.7776,-2.047761E-05,11.664,0,0.7776,-4.36408E-05,11.664,0
0.7785,-4.666209E-05,11.6775,0,0.7785,-9.399558E-06,11.6775,0
0.7794,-9.399557E-05,11.691,0,0.7794,-1.577783E-05,11.691,0
0.7803,-8.291753E-05,11.7045,0,0.7803,-7.251087E-05,11.7045,0
0.7812,-4.33051E-05,11.718,0,0.7812,-6.243992E-05,11.718,0
0.7821,-2.987716E-05,11.7315,0,0.7821,2.349889E-06,11.7315,0
0.783,1.678492E-06,11.745,0,0.783,2.417029E-05,11.745,0
0.7839,4.129091E-05,11.7585,0,0.7839,6.411841E-05,11.7585,0
0.7848,8.291753E-05,11.772,0,0.7848,6.51255E-05,11.772,0
0.7857,8.325322E-05,11.7855,0,0.7857,4.095522E-05,11.7855,0
0.7866,-3.021286E-06,11.799,0,0.7866,-9.063859E-06,11.799,0
0.7875,-3.524834E-05,11.8125,0,0.7875,-3.793393E-05,11.8125,0
0.7884,-3.390555E-05,11.826,0,0.7884,-4.53193E-05,11.826,0
0.7893,-5.035477E-05,11.8395,0,0.7893,-6.378271E-06,11.8395,0
0.7902,-1.309224E-05,11.853,0,0.7902,3.356985E-07,11.853,0
0.7911,0,11.8665,0,0.7911,-0.0001027237,11.8665,0
0.792,-1.846342E-05,11.88,0,0.792,-0.0001215228,11.88,0
0.7929,2.652018E-05,11.8935,0,0.7929,-7.318227E-05,11.8935,0
0.7938,1.510643E-05,11.907,0,0.7938,-5.404745E-05,11.907,0
0.7947,4.028382E-06,11.9205,0,0.7947,-3.524834E-05,11.9205,0
0.7956,2.786297E-05,11.934,0,0.7956,1.712062E-05,11.934,0
0.7965,2.987716E-05,11.9475,0,0.7965,6.915389E-05,11.9475,0
0.7974,-2.047761E-05,11.961,0,0.7974,0.0001017166,11.961,0
0.7983,-4.196231E-05,11.9745,0,0.7983,7.687495E-05,11.9745,0
0.7992,-6.210422E-05,11.988,0,0.7992,2.853437E-05,11.988,0
0.8001,-7.620356E-05,12.0015,0,0.8001,2.24918E-05,12.0015,0
0.801,-4.666209E-05,12.015,0,0.801,-1.544213E-05,12.015,0
0.8019,-2.551309E-05,12.0285,0,0.8019,3.692683E-06,12.0285,0
0.8028,-7.721065E-06,12.042,0,0.8028,3.021286E-05,12.042,0
0.8037,3.457694E-05,12.0555,0,0.8037,-5.270466E-05,12.0555,0
0.8046,4.934768E-05,12.069,0,0.8046,-0.0001094377,12.069,0
0.8055,-3.356985E-07,12.0825,0,0.8055,-4.028382E-06,12.0825,0
0.8064,6.042573E-06,12.096,0,0.8064,4.733349E-05,12.096,0
0.8073,3.591974E-05,12.1095,0,0.8073,-1.107805E-05,12.1095,0
0.8082,1.846342E-05,12.123,0,0.8082,-5.371176E-06,12.123,0
0.8091,-4.800488E-05,12.1365,0,0.8091,-1.141375E-05,12.1365,0
0.81,-7.351797E-05,12.15,0,0.81,-1.846342E-05,12.15,0
0.8109,-5.874724E-05,12.1635,0,0.8109,-1.309224E-05,12.1635,0
0.8118,-5.136187E-05,12.177,0,0.8118,-8.157473E-05,12.177,0
0.8127,-4.39765E-05,12.1905,0,0.8127,-0.0001087663,12.1905,0
0.8136,-5.035477E-06,12.204,0,0.8136,-5.337606E-05,12.204,0
0.8145,6.881819E-05,12.2175,0,0.8145,-2.685588E-05,12.2175,0
0.8154,7.351797E-05,12.231,0,0.8154,-4.934768E-05,12.231,0
0.8163,3.894102E-05,12.2445,0,0.8163,-2.853437E-05,12.2445,0
0.8172,3.759823E-05,12.258,0,0.8172,-7.049668E-06,12.258,0
0.8181,2.752728E-05,12.2715,0,0.8181,-3.659113E-05,12.2715,0
0.819,1.577783E-05,12.285,0,0.819,-9.063859E-06,12.285,0
0.8199,4.028382E-05,12.2985,0,0.8199,-1.007095E-05,12.2985,0
0.8208,6.74754E-05,12.312,0,0.8208,-5.136187E-05,12.312,0
0.8217,-4.733349E-05,12.3255,0,0.8217,-3.961242E-05,12.3255,0
0.8226,-0.0001104448,12.339,0,0.8226,-2.21561E-05,12.339,0
0.8235,-9.365987E-05,12.3525,0,0.8235,-3.121996E-05,12.3525,0
0.8244,-8.89601E-05,12.366,0,0.8244,-4.028382E-05,12.366,0
0.8253,-8.392462E-05,12.3795,0,0.8253,-6.915389E-05,12.3795,0
0.8262,-4.46479E-05,12.393,0,0.8262,-1.913481E-05,12.393,0
0.8271,-1.141375E-05,12.4065,0,0.8271,1.443504E-05,12.4065,0
0.828,1.779202E-05,12.42,0,0.828,-3.524834E-05,12.42,0
0.8289,8.560311E-05,12.4335,0,0.8289,-6.915389E-05,12.4335,0
0.8298,7.486076E-05,12.447,0,0.8298,9.063859E-06,12.447,0
0.8307,6.948959E-05,12.4605,0,0.8307,2.21561E-05,12.4605,0
0.8316,8.661021E-05,12.474,0,0.8316,-2.28275E-05,12.474,0
0.8325,2.18204E-05,12.4875,0,0.8325,4.666209E-05,12.4875,0
0.8334,6.378271E-06,12.501,0,0.8334,5.203327E-05,12.501,0
0.8343,3.726253E-05,12.5145,0,0.8343,1.107805E-05,12.5145,0
0.8352,-2.685588E-06,12.528,0,0.8352,-3.390555E-05,12.528,0
0.8361,3.659113E-05,12.5415,0,0.8361,6.378271E-06,12.5415,0
0.837,3.457694E-05,12.555,0,0.837,-2.349889E-06,12.555,0
0.8379,-1.846342E-05,12.5685,0,0.8379,-1.107805E-05,12.5685,0
0.8388,-2.584878E-05,12.582,0,0.8388,-1.644922E-05,12.582,0
0.8397,-3.491264E-05,12.5955,0,0.8397,-3.692683E-06,12.5955,0
0.8406,-5.035477E-05,12.609,0,0.8406,1.107805E-05,12.609,0
0.8415,-5.270466E-05,12.6225,0,0.8415,-1.846342E-05,12.6225,0
0.8424,-1.846342E-05,12.636,0,0.8424,-3.424125E-05,12.636,0
0.8433,-2.920577E-05,12.6495,0,0.8433,-3.021286E-06,12.6495,0
0.8442,-3.256275E-05,12.663,0,0.8442,5.035477E-06,12.663,0
0.8451,-6.344701E-05,12.6765,0,0.8451,-4.934768E-05,12.6765,0
0.846,-6.74754E-05,12.69,0,0.846,-1.141375E-05,12.69,0
0.8469,-2.450599E-05,12.7035,0,0.8469,1.040665E-05,12.7035,0
0.8478,-5.874724E-05,12.717,0,0.8478,-3.860533E-05,12.717,0
0.8487,-6.51255E-05,12.7305,0,0.8487,-5.740444E-05,12.7305,0
0.8496,-4.53193E-05,12.744,0,0.8496,-1.644922E-05,12.744,0
0.8505,-2.383459E-05,12.7575,0,0.8505,-4.129091E-05,12.7575,0
0.8514,1.141375E-05,12.771,0,0.8514,-3.961242E-05,12.771,0
0.8523,5.706874E-06,12.7845,0,0.8523,-1.913481E-05,12.7845,0
0.8532,-1.409934E-05,12.798,0,0.8532,1.678492E-05,12.798,0
0.8541,-1.947051E-05,12.8115,0,0.8541,-3.793393E-05,12.8115,0
0.855,4.699779E-06,12.825,0,0.855,-7.821774E-05,12.825,0
0.8559,5.874724E-05,12.8385,0,0.8559,-3.994812E-05,12.8385,0
0.8568,5.136187E-05,12.852,0,0.8568,-4.028382E-06,12.852,0
0.8577,6.378271E-05,12.8655,0,0.8577,-1.510643E-05,12.8655,0
0.8586,3.121996E-05,12.879,0,0.8586,-5.136187E-05,12.879,0
0.8595001,-1.477073E-05,12.8925,0,0.8595001,-2.652018E-05,12.8925,0
0.8604,-2.786297E-05,12.906,0,0.8604,-1.174945E-05,12.906,0
0.8613,-4.53193E-05,12.9195,0,0.8613,-3.457694E-05,12.9195,0
0.8622,-8.090334E-05,12.933,0,0.8622,-1.242084E-05,12.933,0
0.8631,-7.486076E-05,12.9465,0,0.8631,3.356985E-05,12.9465,0
0.864,-5.001907E-05,12.96,0,0.864,1.040665E-05,12.96,0
0.8649,-3.826963E-05,12.9735,0,0.8649,-1.510643E-05,12.9735,0
0.8658,3.021286E-06,12.987,0,0.8658,-2.853437E-05,12.987,0
0.8667,2.047761E-05,13.0005,0,0.8667,-1.443504E-05,13.0005,0
0.8676,-3.558404E-05,13.014,0,0.8676,-2.517739E-05,13.014,0
0.8685,-1.846342E-05,13.0275,0,0.8685,-3.927672E-05,13.0275,0
0.8694,2.1149E-05,13.041,0,0.8694,-2.484169E-05,13.041,0
0.8703,-2.987716E-05,13.0545,0,0.8703,4.061952E-05,13.0545,0
0.8712,-5.505455E-05,13.068,0,0.8712,-8.392462E-06,13.068,0
0.8721,-2.18204E-05,13.0815,0,0.8721,-4.666209E-05,13.0815,0
0.873,-2.719158E-05,13.095,0,0.873,-2.887007E-05,13.095,0
0.8739,1.409934E-05,13.1085,0,0.8739,-4.46479E-05,13.1085,0
0.8748,6.042573E-05,13.122,0,0.8748,-7.888914E-05,13.122,0
0.8757,4.061952E-05,13.1355,0,0.8757,-8.69459E-05,13.1355,0
0.8766,5.740444E-05,13.149,0,0.8766,-3.323415E-05,13.149,0
0.8775,8.89601E-05,13.1625,0,0.8775,-3.692683E-06,13.1625,0
0.8784,8.258183E-05,13.176,0,0.8784,-1.947051E-05,13.176,0
0.8793,5.069047E-05,13.1895,0,0.8793,-7.116808E-05,13.1895,0
0.8802,-7.049668E-06,13.203,0,0.8802,-4.33051E-05,13.203,0
0.8811,7.721065E-06,13.2165,0,0.8811,-1.611353E-05,13.2165,0
0.882,-3.356985E-07,13.23,0,0.882,-2.786297E-05,13.23,0
0.8829,-1.510643E-05,13.2435,0,0.8829,-3.054856E-05,13.2435,0
0.8838,-8.056763E-06,13.257,0,0.8838,1.846342E-05,13.257,0
0.8847,-2.14847E-05,13.2705,0,0.8847,8.392462E-06,13.2705,0
0.8856,-2.786297E-05,13.284,0,0.8856,-2.383459E-05,13.284,0
0.8865,-3.189136E-05,13.2975,0,0.8865,3.356985E-06,13.2975,0
0.8874,-5.874724E-05,13.311,0,0.8874,-2.047761E-05,13.311,0
0.8883,-2.853437E-05,13.3245,0,0.8883,-6.948959E-05,13.3245,0
0.8892,1.141375E-05,13.338,0,0.8892,-7.083238E-05,13.338,0
0.8901,6.713969E-06,13.3515,0,0.8901,-1.846342E-05,13.3515,0
0.891,2.786297E-05,13.365,0,0.891,-7.049668E-06,13.365,0
0.8919,2.383459E-05,13.3785,0,0.8919,5.740444E-05,13.3785,0
0.8928,2.047761E-05,13.392,0,0.8928,-2.014191E-06,13.392,0
0.8937,-2.920577E-05,13.4055,0,0.8937,-3.659113E-05,13.4055,0
0.8946,-2.047761E-05,13.419,0,0.8946,-2.349889E-06,13.419,0
0.8955,-9.063859E-06,13.4325,0,0.8955,-1.913481E-05,13.4325,0
0.8964,-8.728161E-06,13.446,0,0.8964,2.786297E-05,13.446,0
0.8973,-3.457694E-05,13.4595,0,0.8973,5.035477E-05,13.4595,0
0.8982,-3.726253E-05,13.473,0,0.8982,9.063859E-06,13.473,0
0.8991,3.356985E-07,13.4865,0,0.8991,-1.242084E-05,13.4865,0
0.9,-2.1149E-05,13.5,0,0.9,1.242084E-05,13.5,0
0.9009,-1.376364E-05,13.5135,0,0.9009,9.735256E-06,13.5135,0
0.9018,2.014191E-06,13.527,0,0.9018,3.356985E-07,13.527,0
0.9027,1.678492E-06,13.5405,0,0.9027,-2.752728E-05,13.5405,0
0.9036,-5.203327E-05,13.554,0,0.9036,-3.256275E-05,13.554,0
0.9045,-5.706874E-06,13.5675,0,0.9045,-2.920577E-05,13.5675,0
0.9054,1.141375E-05,13.581,0,0.9054,-5.841154E-05,13.581,0
0.9063,6.042573E-06,13.5945,0,0.9063,-8.291753E-05,13.5945,0
0.9072,1.376364E-05,13.608,0,0.9072,-5.539025E-05,13.608,0
0.9081,-3.826963E-05,13.6215,0,0.9081,-2.047761E-05,13.6215,0
0.909,-5.001907E-05,13.635,0,0.909,-2.987716E-05,13.635,0
0.9099,-1.174945E-05,13.6485,0,0.9099,-2.1149E-05,13.6485,0
0.9108,-3.189136E-05,13.662,0,0.9108,6.51255E-05,13.662,0
0.9117,-2.24918E-05,13.6755,0,0.9117,2.786297E-05,13.6755,0
0.9126,-5.706874E-06,13.689,0,0.9126,-5.236896E-05,13.689,0
0.9135,-2.047761E-05,13.7025,0,0.9135,-2.24918E-05,13.7025,0
0.9144,3.088426E-05,13.716,0,0.9144,-2.920577E-05,13.716,0
0.9153,6.277562E-05,13.7295,0,0.9153,-4.33051E-05,13.7295,0
0.9162,2.752728E-05,13.743,0,0.9162,-9.735256E-06,13.743,0
0.9171,-4.599069E-05,13.7565,0,0.9171,-1.443504E-05,13.7565,0
0.918,-6.378271E-05,13.77,0,0.918,8.392462E-06,13.77,0
0.9189,-5.673304E-05,13.7835,0,0.9189,-4.36408E-06,13.7835,0
0.9198,-4.934768E-05,13.797,0,0.9198,-2.719158E-05,13.797,0
0.9207,-4.800488E-05,13.8105,0,0.9207,-3.927672E-05,13.8105,0
0.9216,-1.275654E-05,13.824,0,0.9216,-2.887007E-05,13.824,0
0.9225,1.678492E-06,13.8375,0,0.9225,-3.289845E-05,13.8375,0
0.9234,3.994812E-05,13.851,0,0.9234,-3.994812E-05,13.851,0
0.9243,6.109713E-05,13.8645,0,0.9243,-2.047761E-05,13.8645,0
0.9252,4.162661E-05,13.878,0,0.9252,-2.24918E-05,13.878,0
0.9261,4.33051E-05,13.8915,0,0.9261,-4.599069E-05,13.8915,0
0.927,2.618448E-05,13.905,0,0.927,-1.242084E-05,13.905,0
0.9279,-2.316319E-05,13.9185,0,0.9279,1.342794E-06,13.9185,0
0.9288,-4.095522E-05,13.932,0,0.9288,-3.323415E-05,13.932,0
0.9297,-2.18204E-05,13.9455,0,0.9297,-2.652018E-05,13.9455,0
0.9306,2.349889E-06,13.959,0,0.9306,-1.678492E-05,13.959,0
0.9315,-1.544213E-05,13.9725,0,0.9315,-2.081331E-05,13.9725,0
0.9324,-1.510643E-05,13.986,0,0.9324,-2.484169E-05,13.986,0
0.9333,-8.392462E-06,13.9995,0,0.9333,-4.061952E-05,13.9995,0
0.9342,-1.577783E-05,14.013,0,0.9342,-1.678492E-05,14.013,0
0.9351,-2.383459E-05,14.0265,0,0.9351,-1.342794E-06,14.0265,0
0.936,9.735256E-06,14.04,0,0.936,-2.18204E-05,14.04,0
0.9369,1.846342E-05,14.0535,0,0.9369,-9.399558E-06,14.0535,0
0.9378,2.316319E-05,14.067,0,0.9378,2.349889E-05,14.067,0
0.9387,3.021286E-05,14.0805,0,0.9387,-8.056763E-06,14.0805,0
0.9396001,4.129091E-05,14.094,0,0.9396001,-4.766919E-05,14.094,0
0.9405,1.342794E-06,14.1075,0,0.9405,-7.049668E-06,14.1075,0
0.9414001,-5.035477E-06,14.121,0,0.9414001,-1.678492E-06,14.121,0
0.9423,-8.392462E-06,14.1345,0,0.9423,-2.719158E-05,14.1345,0
0.9432001,-8.224613E-05,14.148,0,0.9432001,-1.846342E-05,14.148,0
0.9441,-7.418937E-05,14.1615,0,0.9441,1.040665E-05,14.1615,0
0.9450001,-1.577783E-05,14.175,0,0.9450001,-3.021286E-06,14.175,0
0.9459,-1.376364E-05,14.1885,0,0.9459,-1.074235E-05,14.1885,0
0.9468,-1.376364E-05,14.202,0,0.9468,-2.618448E-05,14.202,0
0.9477,-1.644922E-05,14.2155,0,0.9477,-1.409934E-05,14.2155,0
0.9486,-1.678492E-06,14.229,0,0.9486,-5.706874E-06,14.229,0
0.9495,0,14.2425,0,0.9495,-2.316319E-05,14.2425,0
0.9504,-1.846342E-05,14.256,0,0.9504,-3.927672E-05,14.256,0
0.9513,-3.121996E-05,14.2695,0,0.9513,-5.706874E-06,14.2695,0
0.9522,-3.121996E-05,14.283,0,0.9522,-1.007095E-05,14.283,0
0.9531,2.014191E-05,14.2965,0,0.9531,-6.948959E-05,14.2965,0
0.954,-2.047761E-05,14.31,0,0.954,-3.759823E-05,14.31,0
0.9549,-1.779202E-05,14.3235,0,0.9549,7.049668E-06,14.3235,0
0.9558,3.054856E-05,14.337,0,0.9558,2.1149E-05,14.337,0
0.9567,4.733349E-05,14.3505,0,0.9567,3.692683E-06,14.3505,0
0.9576,2.920577E-05,14.364,0,0.9576,1.342794E-05,14.364,0
0.9585,-5.035477E-06,14.3775,0,0.9585,-3.021286E-06,14.3775,0
0.9594,3.692683E-06,14.391,0,0.9594,-3.692683E-05,14.391,0
0.9603,-9.735256E-06,14.4045,0,0.9603,-5.941863E-05,14.4045,0
0.9612,-1.443504E-05,14.418,0,0.9612,-2.652018E-05,14.418,0
0.9621,2.349889E-05,14.4315,0,0.9621,-3.356985E-07,14.4315,0
0.963,3.021286E-06,14.445,0,0.963,-3.021286E-05,14.445,0
0.9639,-2.853437E-05,14.4585,0,0.9639,-2.987716E-05,14.4585,0
0.9648,-4.263371E-05,14.472,0,0.9648,-4.36408E-06,14.472,0
0.9657,-4.196231E-05,14.4855,0,0.9657,-2.517739E-05,14.4855,0
0.9666,-3.390555E-05,14.499,0,0.9666,-5.169757E-05,14.499,0
0.9675,-1.409934E-05,14.5125,0,0.9675,-1.812772E-05,14.5125,0
0.9684,-2.652018E-05,14.526,0,0.9684,-2.719158E-05,14.526,0
0.9693,-3.927672E-05,14.5395,0,0.9693,-5.169757E-05,14.5395,0
0.9702,-1.141375E-05,14.553,0,0.9702,-3.793393E-05,14.553,0
0.9711,5.035477E-06,14.5665,0,0.9711,-1.309224E-05,14.5665,0
0.972,2.24918E-05,14.58,0,0.972,-2.551309E-05,14.58,0
0.9729,1.510643E-05,14.5935,0,0.9729,-2.987716E-05,14.5935,0
0.9738,3.121996E-05,14.607,0,0.9738,-4.46479E-05,14.607,0
0.9747,2.652018E-05,14.6205,0,0.9747,-2.517739E-05,14.6205,0
0.9756,2.719158E-05,14.634,0,0.9756,3.591974E-05,14.634,0
0.9765,1.678492E-05,14.6475,0,0.9765,4.968337E-05,14.6475,0
0.9774,2.349889E-05,14.661,0,0.9774,1.443504E-05,14.661,0
0.9783,-1.745632E-05,14.6745,0,0.9783,3.289845E-05,14.6745,0
0.9792,-4.33051E-05,14.688,0,0.9792,1.913481E-05,14.688,0
0.9801,-1.242084E-05,14.7015,0,0.9801,-5.069047E-05,14.7015,0
0.981,1.678492E-06,14.715,0,0.981,-5.807584E-05,14.715,0
0.9819,-2.484169E-05,14.7285,0,0.9819,-4.565499E-05,14.7285,0
0.9828,-1.913481E-05,14.742,0,0.9828,-6.57969E-05,14.742,0
0.9837,-4.599069E-05,14.7555,0,0.9837,-7.351797E-05,14.7555,0
0.9846,-7.318227E-05,14.769,0,0.9846,-3.659113E-05,14.769,0
0.9855,-5.941863E-05,14.7825,0,0.9855,-2.349889E-05,14.7825,0
0.9864,-4.39765E-05,14.796,0,0.9864,-2.719158E-05,14.796,0
0.9873,-1.007095E-06,14.8095,0,0.9873,-3.994812E-05,14.8095,0
0.9882,2.014191E-05,14.823,0,0.9882,-2.752728E-05,14.823,0
0.9891,1.644922E-05,14.8365,0,0.9891,-1.107805E-05,14.8365,0
0.99,7.721065E-06,14.85,0,0.99,-2.517739E-05,14.85,0
0.9909,2.1149E-05,14.8635,0,0.9909,-4.666209E-05,14.8635,0
0.9918,1.712062E-05,14.877,0,0.9918,-1.678492E-06,14.877,0
0.9927,-1.309224E-05,14.8905,0,0.9927,-1.443504E-05,14.8905,0
0.9936,1.947051E-05,14.904,0,0.9936,-3.961242E-05,14.904,0
0.9945,4.196231E-05,14.9175,0,0.9945,1.779202E-05,14.9175,0
0.9954,-3.356985E-07,14.931,0,0.9954,-1.510643E-05,14.931,0
0.9963,3.021286E-06,14.9445,0,0.9963,-5.807584E-05,14.9445,0
0.9972,-2.21561E-05,14.958,0,0.9972,-4.800488E-05,14.958,0
0.9981,-4.33051E-05,14.9715,0,0.9981,-1.275654E-05,14.9715,0
0.999,-6.109713E-05,14.985,0,0.999,4.028382E-06,14.985,0
0.9999,-2.887007E-05,14.9985,0,0.9999,2.18204E-05,14.9985,0
1.0008,-1.779202E-05,15.012,0,1.0008,7.049668E-06,15.012,0
1.0017,-1.443504E-05,15.0255,0,1.0017,1.007095E-06,15.0255,0
1.0026,-5.035477E-06,15.039,0,1.0026,-3.390555E-05,15.039,0
1.0035,-5.706874E-06,15.0525,0,1.0035,-5.304036E-05,15.0525,0
1.0044,2.484169E-05,15.066,0,1.0044,-5.001907E-05,15.066,0
1.0053,1.443504E-05,15.0795,0,1.0053,-2.18204E-05,15.0795,0
1.0062,9.735256E-06,15.093,0,1.0062,-3.793393E-05,15.093,0
1.0071,1.107805E-05,15.1065,0,1.0071,-3.256275E-05,15.1065,0
1.008,-7.049668E-06,15.12,0,1.008,1.577783E-05,15.12,0
1.0089,-3.256275E-05,15.1335,0,1.0089,4.028382E-06,15.1335,0
1.0098,-6.042573E-06,15.147,0,1.0098,2.081331E-05,15.147,0
1.0107,1.947051E-05,15.1605,0,1.0107,6.243992E-05,15.1605,0
1.0116,3.256275E-05,15.174,0,1.0116,6.61326E-05,15.174,0
1.0125,3.894102E-05,15.1875,0,1.0125,4.666209E-05,15.1875,0
1.0134,3.121996E-05,15.201,0,1.0134,2.24918E-05,15.201,0
1.0143,1.913481E-05,15.2145,0,1.0143,-4.196231E-05,15.2145,0
1.0152,-2.14847E-05,15.228,0,1.0152,-6.982528E-05,15.228,0
1.0161,-4.968337E-05,15.2415,0,1.0161,-7.016098E-05,15.2415,0
1.017,-3.994812E-05,15.255,0,1.017,-7.385367E-05,15.255,0
1.0179,-3.457694E-05,15.2685,0,1.0179,-6.78111E-05,15.2685,0
1.0188,-7.821774E-05,15.282,0,1.0188,-3.692683E-06,15.282,0
1.0197,-3.289845E-05,15.2955,0,1.0197,-1.141375E-05,15.2955,0
1.0206,-3.692683E-06,15.309,0,1.0206,-4.061952E-05,15.309,0
1.0215,-3.591974E-05,15.3225,0,1.0215,1.779202E-05,15.3225,0
1.0224,-2.28275E-05,15.336,0,1.0224,2.920577E-05,15.336,0
1.0233,-3.021286E-06,15.3495,0,1.0233,-2.517739E-05,15.3495,0
1.0242,-2.786297E-05,15.363,0,1.0242,-5.270466E-05,15.363,0
1.0251,-3.591974E-05,15.3765,0,1.0251,-5.270466E-05,15.3765,0
1.026,-9.399558E-06,15.39,0,1.026,-6.143282E-05,15.39,0
1.0269,2.28275E-05,15.4035,0,1.0269,-3.524834E-05,15.4035,0
1.0278,4.39765E-05,15.417,0,1.0278,-3.121996E-05,15.417,0
1.0287,3.289845E-05,15.4305,0,1.0287,-1.779202E-05,15.4305,0
1.0296,3.793393E-05,15.444,0,1.0296,-6.713969E-06,15.444,0
1.0305,6.378271E-06,15.4575,0,1.0305,-2.819867E-05,15.4575,0
1.0314,0,15.471,0,1.0314,-6.009003E-05,15.471,0
1.0323,-8.392462E-06,15.4845,0,1.0323,1.342794E-06,15.4845,0
1.0332,-8.728161E-06,15.498,0,1.0332,6.143282E-05,15.498,0
1.0341,1.309224E-05,15.5115,0,1.0341,9.735256E-06,15.5115,0
1.035,-3.793393E-05,15.525,0,1.035,0,15.525,0
1.0359,-1.544213E-05,15.5385,0,1.0359,3.390555E-05,15.5385,0
1.0368,4.699779E-06,15.552,0,1.0368,1.409934E-05,15.552,0
1.0377,2.349889E-06,15.5655,0,1.0377,-1.376364E-05,15.5655,0
1.0386,1.107805E-05,15.579,0,1.0386,-5.706874E-06,15.579,0
1.0395,-3.021286E-06,15.5925,0,1.0395,-1.510643E-05,15.5925,0
1.0404,5.706874E-06,15.606,0,1.0404,-8.392462E-06,15.606,0
1.0413,2.719158E-05,15.6195,0,1.0413,-4.29694E-05,15.6195,0
1.0422,-6.378271E-06,15.633,0,1.0422,-4.33051E-05,15.633,0
1.0431,-3.256275E-05,15.6465,0,1.0431,-4.39765E-05,15.6465,0
1.044,-1.040665E-05,15.66,0,1.044,-7.452507E-05,15.66,0
1.0449,4.36408E-06,15.6735,0,1.0449,-7.855344E-05,15.6735,0
1.0458,-1.309224E-05,15.687,0,1.0458,-1.510643E-05,15.687,0
1.0467,-2.484169E-05,15.7005,0,1.0467,3.457694E-05,15.7005,0
1.0476,-4.028382E-06,15.714,0,1.0476,-6.042573E-06,15.714,0
1.0485,-4.36408E-05,15.7275,0,1.0485,-9.735256E-06,15.7275,0
1.0494,-5.035477E-05,15.741,0,1.0494,-1.309224E-05,15.741,0
1.0503,-1.174945E-05,15.7545,0,1.0503,-4.196231E-05,15.7545,0
1.0512,3.424125E-05,15.768,0,1.0512,-1.712062E-05,15.768,0
1.0521,-1.678492E-05,15.7815,0,1.0521,3.692683E-06,15.7815,0
1.053,-5.203327E-05,15.795,0,1.053,-4.129091E-05,15.795,0
1.0539,-3.256275E-05,15.8085,0,1.0539,-5.337606E-05,15.8085,0
1.0548,1.544213E-05,15.822,0,1.0548,-5.807584E-05,15.822,0
1.0557,3.323415E-05,15.8355,0,1.0557,-2.081331E-05,15.8355,0
1.0566,-3.356985E-07,15.849,0,1.0566,1.309224E-05,15.849,0
1.0575,-6.378271E-06,15.8625,0,1.0575,-7.721065E-06,15.8625,0
1.0584,2.920577E-05,15.876,0,1.0584,-3.457694E-05,15.876,0
1.0593,2.1149E-05,15.8895,0,1.0593,9.063859E-06,15.8895,0
1.0602,-4.36408E-06,15.903,0,1.0602,6.713969E-07,15.903,0
1.0611,2.349889E-06,15.9165,0,1.0611,-4.867628E-05,15.9165,0
1.062,2.786297E-05,15.93,0,1.062,-1.611353E-05,15.93,0
1.0629,3.021286E-06,15.9435,0,1.0629,-2.18204E-05,15.9435,0
1.0638,-2.819867E-05,15.957,0,1.0638,-5.001907E-05,15.957,0
1.0647,-6.109713E-05,15.9705,0,1.0647,-3.323415E-05,15.9705,0
1.0656,-5.706874E-05,15.984,0,1.0656,-6.042573E-06,15.984,0
1.0665,-2.1149E-05,15.9975,0,1.0665,1.007095E-06,15.9975,0
1.0674,-8.392462E-06,16.011,0,1.0674,3.356985E-07,16.011,0
1.0683,-2.853437E-05,16.0245,0,1.0683,-2.719158E-05,16.0245,0
1.0692,-4.196231E-05,16.038,0,1.0692,-4.766919E-05,16.038,0
1.0701,2.24918E-05,16.0515,0,1.0701,-2.047761E-05,16.0515,0
1.071,3.256275E-05,16.065,0,1.071,-4.565499E-05,16.065,0
1.0719,1.376364E-05,16.0785,0,1.0719,-3.961242E-05,16.0785,0
1.0728,1.275654E-05,16.092,0,1.0728,1.712062E-05,16.092,0
1.0737,1.040665E-05,16.1055,0,1.0737,4.129091E-05,16.1055,0
1.0746,-1.107805E-05,16.119,0,1.0746,1.309224E-05,16.119,0
1.0755,-4.196231E-05,16.1325,0,1.0755,7.049668E-06,16.1325,0
1.0764,-6.78111E-05,16.146,0,1.0764,2.014191E-05,16.146,0
1.0773,-5.404745E-05,16.1595,0,1.0773,7.049668E-06,16.1595,0
1.0782,-2.719158E-05,16.173,0,1.0782,-2.853437E-05,16.173,0
1.0791,-4.196231E-05,16.1865,0,1.0791,-2.450599E-05,16.1865,0
1.08,-1.074235E-05,16.2,0,1.08,-2.719158E-05,16.2,0
1.0809,3.826963E-05,16.2135,0,1.0809,-1.309224E-05,16.2135,0
1.0818,6.344701E-05,16.227,0,1.0818,-3.457694E-05,16.227,0
1.0827,3.457694E-05,16.2405,0,1.0827,-4.699779E-05,16.2405,0
1.0836,-1.342794E-05,16.254,0,1.0836,-2.752728E-05,16.254,0
1.0845,-3.692683E-06,16.2675,0,1.0845,-6.982528E-05,16.2675,0
1.0854,2.24918E-05,16.281,0,1.0854,-8.325322E-05,16.281,0
1.0863,-5.706874E-06,16.2945,0,1.0863,-1.980621E-05,16.2945,0
1.0872,-1.678492E-06,16.308,0,1.0872,-2.853437E-05,16.308,0
1.0881,1.510643E-05,16.3215,0,1.0881,-5.471885E-05,16.3215,0
1.089,-4.699779E-06,16.335,0,1.089,1.040665E-05,16.335,0
1.0899,2.584878E-05,16.3485,0,1.0899,2.316319E-05,16.3485,0
1.0908,4.666209E-05,16.362,0,1.0908,-3.424125E-05,16.362,0
1.0917,6.713969E-06,16.3755,0,1.0917,-3.054856E-05,16.3755,0
1.0926,-1.174945E-05,16.389,0,1.0926,3.692683E-06,16.389,0
1.0935,-3.021286E-06,16.4025,0,1.0935,-1.107805E-05,16.4025,0
1.0944,2.014191E-06,16.416,0,1.0944,-1.644922E-05,16.416,0
1.0953,-8.392462E-06,16.4295,0,1.0953,-4.33051E-05,16.4295,0
1.0962,-1.779202E-05,16.443,0,1.0962,-4.867628E-05,16.443,0
1.0971,-6.478981E-05,16.4565,0,1.0971,-1.544213E-05,16.4565,0
1.098,-6.378271E-05,16.47,0,1.098,-1.242084E-05,16.47,0
1.0989,-3.927672E-05,16.4835,0,1.0989,-1.443504E-05,16.4835,0
1.0998,-5.975433E-05,16.497,0,1.0998,1.712062E-05,16.497,0
1.1007,-2.752728E-05,16.5105,0,1.1007,1.040665E-05,16.5105,0
1.1016,3.356985E-06,16.524,0,1.1016,-2.24918E-05,16.524,0
1.1025,-2.18204E-05,16.5375,0,1.1025,3.054856E-05,16.5375,0
1.1034,-5.706874E-06,16.551,0,1.1034,1.242084E-05,16.551,0
1.1043,1.409934E-05,16.5645,0,1.1043,-5.404745E-05,16.5645,0
1.1052,5.539025E-05,16.578,0,1.1052,-4.29694E-05,16.578,0
1.1061,1.913481E-05,16.5915,0,1.1061,-1.745632E-05,16.5915,0
1.107,-1.409934E-05,16.605,0,1.107,-2.18204E-05,16.605,0
1.1079,1.040665E-05,16.6185,0,1.1079,-3.021286E-06,16.6185,0
1.1088,1.208515E-05,16.632,0,1.1088,-2.047761E-05,16.632,0
1.1097,-1.242084E-05,16.6455,0,1.1097,-1.980621E-05,16.6455,0
1.1106,-5.069047E-05,16.659,0,1.1106,-2.484169E-05,16.659,0
1.1115,-3.390555E-05,16.6725,0,1.1115,-3.927672E-05,16.6725,0
1.1124,9.063859E-06,16.686,0,1.1124,-6.344701E-05,16.686,0
1.1133,2.316319E-05,16.6995,0,1.1133,3.692683E-05,16.6995,0
1.1142,1.510643E-05,16.713,0,1.1142,-1.007095E-06,16.713,0
1.1151,-9.735256E-06,16.7265,0,1.1151,-8.96315E-05,16.7265,0
1.116,-5.001907E-05,16.74,0,1.116,-2.18204E-05,16.74,0
1.1169,1.947051E-05,16.7535,0,1.1169,4.39765E-05,16.7535,0
1.1178,5.203327E-05,16.767,0,1.1178,2.014191E-06,16.767,0
1.1187,3.390555E-05,16.7805,0,1.1187,-1.443504E-05,16.7805,0
1.1196,1.007095E-05,16.794,0,1.1196,1.846342E-05,16.794,0
1.1205,-2.24918E-05,16.8075,0,1.1205,1.040665E-05,16.8075,0
1.1214,-1.913481E-05,16.821,0,1.1214,1.208515E-05,16.821,0
1.1223,1.846342E-05,16.8345,0,1.1223,-1.846342E-05,16.8345,0
1.1232,5.706874E-06,16.848,0,1.1232,-2.1149E-05,16.848,0
1.1241,-8.392462E-06,16.8615,0,1.1241,-5.606165E-05,16.8615,0
1.125,3.356985E-07,16.875,0,1.125,-8.795301E-05,16.875,0
1.1259,-1.275654E-05,16.8885,0,1.1259,-7.754635E-05,16.8885,0
1.1268,-2.18204E-05,16.902,0,1.1268,-1.443504E-05,16.902,0
1.1277,-2.652018E-05,16.9155,0,1.1277,-1.443504E-05,16.9155,0
1.1286,-1.510643E-05,16.929,0,1.1286,-6.042573E-06,16.929,0
1.1295,-2.719158E-05,16.9425,0,1.1295,1.846342E-05,16.9425,0
1.1304,-4.800488E-05,16.956,0,1.1304,7.049668E-06,16.956,0
1.1313,-4.46479E-05,16.9695,0,1.1313,-2.24918E-05,16.9695,0
1.1322,-5.136187E-05,16.983,0,1.1322,-2.21561E-05,16.983,0
1.1331,-9.164568E-05,16.9965,0,1.1331,-4.129091E-05,16.9965,0
1.134,-7.049668E-06,17.01,0,1.134,-1.409934E-05,17.01,0
1.1349,-3.692683E-06,17.0235,0,1.1349,-1.544213E-05,17.0235,0
1.1358,-1.107805E-05,17.037,0,1.1358,-1.779202E-05,17.037,0
1.1367,3.356985E-06,17.0505,0,1.1367,-8.392462E-06,17.0505,0
1.1376,3.625543E-05,17.064,0,1.1376,-1.342794E-05,17.064,0
1.1385,-4.028382E-06,17.0775,0,1.1385,-6.344701E-05,17.0775,0
1.1394,-1.242084E-05,17.091,0,1.1394,-5.136187E-05,17.091,0
1.1403,-1.174945E-05,17.1045,0,1.1403,-1.141375E-05,17.1045,0
1.1412,-1.510643E-05,17.118,0,1.1412,-1.644922E-05,17.118,0
1.1421,-1.678492E-06,17.1315,0,1.1421,-3.927672E-05,17.1315,0
1.143,1.577783E-05,17.145,0,1.143,-3.692683E-06,17.145,0
1.1439,1.678492E-06,17.1585,0,1.1439,1.409934E-05,17.1585,0
1.1448,-1.678492E-05,17.172,0,1.1448,-2.719158E-05,17.172,0
1.1457,-7.721065E-06,17.1855,0,1.1457,-3.256275E-05,17.1855,0
1.1466,-5.706874E-06,17.199,0,1.1466,-9.063859E-06,17.199,0
1.1475,1.242084E-05,17.2125,0,1.1475,2.517739E-05,17.2125,0
1.1484,-2.450599E-05,17.226,0,1.1484,-2.484169E-05,17.226,0
1.1493,-3.894102E-05,17.2395,0,1.1493,-6.311131E-05,17.2395,0
1.1502,7.049668E-06,17.253,0,1.1502,0,17.253,0
1.1511,3.356985E-07,17.2665,0,1.1511,4.699779E-06,17.2665,0
1.152,1.174945E-05,17.28,0,1.152,-4.733349E-05,17.28,0
1.1529,1.980621E-05,17.2935,0,1.1529,-4.46479E-05,17.2935,0
1.1538,1.980621E-05,17.307,0,1.1538,6.378271E-06,17.307,0
1.1547,1.040665E-05,17.3205,0,1.1547,-6.042573E-06,17.3205,0
1.1556,2.920577E-05,17.334,0,1.1556,-2.719158E-05,17.334,0
1.1565,-8.392462E-06,17.3475,0,1.1565,-1.510643E-05,17.3475,0
1.1574,-1.678492E-05,17.361,0,1.1574,-1.678492E-06,17.361,0
1.1583,-3.021286E-06,17.3745,0,1.1583,-2.618448E-05,17.3745,0
1.1592,-2.584878E-05,17.388,0,1.1592,-8.728161E-06,17.388,0
1.1601,-3.356985E-07,17.4015,0,1.1601,1.712062E-05,17.4015,0
1.161,-3.189136E-05,17.415,0,1.161,-2.047761E-05,17.415,0
1.1619,-4.263371E-05,17.4285,0,1.1619,-3.927672E-05,17.4285,0
1.1628,-1.174945E-05,17.442,0,1.1628,-4.800488E-05,17.442,0
1.1637,2.517739E-05,17.4555,0,1.1637,-3.054856E-05,17.4555,0
1.1646,7.721065E-06,17.469,0,1.1646,1.342794E-06,17.469,0
1.1655,-9.399558E-06,17.4825,0,1.1655,-1.879912E-05,17.4825,0
1.1664,1.779202E-05,17.496,0,1.1664,2.618448E-05,17.496,0
1.1673,1.007095E-05,17.5095,0,1.1673,6.478981E-05,17.5095,0
1.1682,4.39765E-05,17.523,0,1.1682,5.706874E-06,17.523,0
1.1691,5.203327E-05,17.5365,0,1.1691,-3.793393E-05,17.5365,0
1.17,-1.678492E-05,17.55,0,1.17,-4.028382E-06,17.55,0
1.1709,-4.33051E-05,17.5635,0,1.1709,-3.524834E-05,17.5635,0
1.1718,-2.920577E-05,17.577,0,1.1718,-6.344701E-05,17.577,0
1.1727,-4.666209E-05,17.5905,0,1.1727,-2.014191E-06,17.5905,0
1.1736,-9.768826E-05,17.604,0,1.1736,1.980621E-05,17.604,0
1.1745,-5.404745E-05,17.6175,0,1.1745,-1.141375E-05,17.6175,0
1.1754,-2.685588E-05,17.631,0,1.1754,-5.169757E-05,17.631,0
1.1763,1.745632E-05,17.6445,0,1.1763,-7.418937E-05,17.6445,0
1.1772,3.927672E-05,17.658,0,1.1772,-8.795301E-05,17.658,0
1.1781,2.28275E-05,17.6715,0,1.1781,-9.970245E-05,17.6715,0
1.179,-5.035477E-06,17.685,0,1.179,-4.028382E-05,17.685,0
1.1799,6.378271E-06,17.6985,0,1.1799,8.392462E-06,17.6985,0
1.1808,3.121996E-05,17.712,0,1.1808,2.014191E-06,17.712,0
1.1817,3.189136E-05,17.7255,0,1.1817,-1.477073E-05,17.7255,0
1.1826,2.786297E-05,17.739,0,1.1826,-5.404745E-05,17.739,0
1.1835,1.242084E-05,17.7525,0,1.1835,-3.692683E-06,17.7525,0
1.1844,-1.779202E-05,17.766,0,1.1844,1.443504E-05,17.766,0
1.1853,-4.565499E-05,17.7795,0,1.1853,-1.309224E-05,17.7795,0
1.1862,-2.819867E-05,17.793,0,1.1862,-7.385367E-06,17.793,0
1.1871,-2.920577E-05,17.8065,0,1.1871,5.035477E-06,17.8065,0
1.188,-2.21561E-05,17.82,0,1.188,-2.652018E-05,17.82,0
1.1889,-3.726253E-05,17.8335,0,1.1889,-2.853437E-05,17.8335,0
1.1898,3.021286E-06,17.847,0,1.1898,-2.752728E-05,17.847,0
1.1907,3.088426E-05,17.8605,0,1.1907,-1.242084E-05,17.8605,0
1.1916,-5.069047E-05,17.874,0,1.1916,-1.342794E-05,17.874,0
1.1925,-4.53193E-05,17.8875,0,1.1925,-2.484169E-05,17.8875,0
1.1934,-3.021286E-06,17.901,0,1.1934,-1.879912E-05,17.901,0
1.1943,9.063859E-06,17.9145,0,1.1943,1.846342E-05,17.9145,0
1.1952,1.443504E-05,17.928,0,1.1952,-7.721065E-06,17.928,0
1.1961,3.591974E-05,17.9415,0,1.1961,-4.867628E-05,17.9415,0
1.197,4.229801E-05,17.955,0,1.197,-1.376364E-05,17.955,0
1.1979,-1.007095E-06,17.9685,0,1.1979,-3.356985E-05,17.9685,0
1.1988,-4.867628E-05,17.982,0,1.1988,-6.210422E-05,17.982,0
1.1997,-4.36408E-05,17.9955,0,1.1997,-2.551309E-05,17.9955,0
1.2006,-5.270466E-05,18.009,0,1.2006,-1.107805E-05,18.009,0
1.2015,-3.256275E-05,18.0225,0,1.2015,-1.913481E-05,18.0225,0
1.2024,-1.409934E-05,18.036,0,1.2024,-2.014191E-06,18.036,0
1.2033,-1.678492E-05,18.0495,0,1.2033,-5.673304E-05,18.0495,0
1.2042,-1.712062E-05,18.063,0,1.2042,-4.061952E-05,18.063,0
1.2051,-2.349889E-05,18.0765,0,1.2051,-8.392462E-06,18.0765,0
1.206,-3.692683E-06,18.09,0,1.206,-1.913481E-05,18.09,0
1.2069,5.706874E-06,18.1035,0,1.2069,-5.337606E-05,18.1035,0
1.2078,1.577783E-05,18.117,0,1.2078,0,18.117,0
1.2087,-7.385367E-06,18.1305,0,1.2087,-1.443504E-05,18.1305,0
1.2096,4.36408E-06,18.144,0,1.2096,-5.270466E-05,18.144,0
1.2105,1.107805E-05,18.1575,0,1.2105,-3.356985E-06,18.1575,0
1.2114,3.054856E-05,18.171,0,1.2114,2.21561E-05,18.171,0
1.2123,7.553216E-05,18.1845,0,1.2123,-1.275654E-05,18.1845,0
1.2132,7.586786E-05,18.198,0,1.2132,-1.779202E-05,18.198,0
1.2141,1.980621E-05,18.2115,0,1.2141,-8.056763E-06,18.2115,0
1.215,5.706874E-06,18.225,0,1.215,-3.054856E-05,18.225,0
1.2159,3.692683E-06,18.2385,0,1.2159,-3.189136E-05,18.2385,0
1.2168,6.378271E-06,18.252,0,1.2168,-4.129091E-05,18.252,0
1.2177,-3.659113E-05,18.2655,0,1.2177,-2.383459E-05,18.2655,0
1.2186,-7.217517E-05,18.279,0,1.2186,4.867628E-05,18.279,0
1.2195,-6.78111E-05,18.2925,0,1.2195,3.726253E-05,18.2925,0
1.2204,-1.208515E-05,18.306,0,1.2204,-2.014191E-05,18.306,0
1.2213,-1.577783E-05,18.3195,0,1.2213,6.042573E-06,18.3195,0
1.2222,-1.107805E-05,18.333,0,1.2222,6.713969E-07,18.333,0
1.2231,6.713969E-07,18.3465,0,1.2231,-7.083238E-05,18.3465,0
1.224,7.721065E-06,18.36,0,1.224,-2.316319E-05,18.36,0
1.2249,5.539025E-05,18.3735,0,1.2249,-7.721065E-06,18.3735,0
1.2258,9.063859E-06,18.387,0,1.2258,-1.947051E-05,18.387,0
1.2267,-6.64683E-05,18.4005,0,1.2267,1.107805E-05,18.4005,0
1.2276,-5.001907E-05,18.414,0,1.2276,1.812772E-05,18.414,0
1.2285,-4.49836E-05,18.4275,0,1.2285,-4.162661E-05,18.4275,0
1.2294,-2.383459E-05,18.441,0,1.2294,-3.256275E-05,18.441,0
1.2303,6.378271E-06,18.4545,0,1.2303,-3.021286E-05,18.4545,0
1.2312,1.913481E-05,18.468,0,1.2312,-1.846342E-05,18.468,0
1.2321,-1.678492E-05,18.4815,0,1.2321,-5.371176E-06,18.4815,0
1.233,-2.18204E-05,18.495,0,1.233,-2.18204E-05,18.495,0
1.2339,-2.517739E-05,18.5085,0,1.2339,-3.323415E-05,18.5085,0
1.2348,-3.961242E-05,18.522,0,1.2348,1.477073E-05,18.522,0
1.2357,1.007095E-06,18.5355,0,1.2357,1.342794E-05,18.5355,0
1.2366,2.383459E-05,18.549,0,1.2366,-2.18204E-05,18.549,0
1.2375,-3.289845E-05,18.5625,0,1.2375,-6.042573E-06,18.5625,0
1.2384,-3.625543E-05,18.576,0,1.2384,-1.779202E-05,18.576,0
1.2393,-1.678492E-06,18.5895,0,1.2393,-3.591974E-05,18.5895,0
1.2402,-9.735256E-06,18.603,0,1.2402,-8.191043E-05,18.603,0
1.2411,-1.007095E-06,18.6165,0,1.2411,-6.344701E-05,18.6165,0
1.242,7.217517E-05,18.63,0,1.242,-3.826963E-05,18.63,0
1.2429,5.069047E-05,18.6435,0,1.2429,-3.524834E-05,18.6435,0
1.2438,1.376364E-05,18.657,0,1.2438,-1.443504E-05,18.657,0
1.2447,9.735256E-06,18.6705,0,1.2447,1.678492E-06,18.6705,0
1.2456,1.007095E-06,18.684,0,1.2456,1.342794E-06,18.684,0
1.2465,-1.309224E-05,18.6975,0,1.2465,-1.678492E-05,18.6975,0
1.2474,-2.719158E-05,18.711,0,1.2474,-2.349889E-05,18.711,0
1.2483,-4.095522E-05,18.7245,0,1.2483,-1.376364E-05,18.7245,0
1.2492,-4.33051E-05,18.738,0,1.2492,-5.236896E-05,18.738,0
1.2501,-4.599069E-05,18.7515,0,1.2501,-9.130999E-05,18.7515,0
1.251,-3.356985E-06,18.765,0,1.251,-4.565499E-05,18.765,0
1.2519,2.920577E-05,18.7785,0,1.2519,1.443504E-05,18.7785,0
1.2528,2.417029E-05,18.792,0,1.2528,2.18204E-05,18.792,0
1.2537,5.203327E-05,18.8055,0,1.2537,6.915389E-05,18.8055,0
1.2546,-1.913481E-05,18.819,0,1.2546,4.53193E-05,18.819,0
1.2555,-3.994812E-05,18.8325,0,1.2555,3.356985E-06,18.8325,0
1.2564,1.913481E-05,18.846,0,1.2564,-3.692683E-06,18.846,0
1.2573,-5.371176E-06,18.8595,0,1.2573,-6.64683E-05,18.8595,0
1.2582,-2.450599E-05,18.873,0,1.2582,-5.001907E-05,18.873,0
1.2591,2.047761E-05,18.8865,0,1.2591,-2.383459E-05,18.8865,0
1.26,3.424125E-05,18.9,0,1.26,-4.061952E-05,18.9,0
1.2609,8.392462E-06,18.9135,0,1.2609,-4.229801E-05,18.9135,0
1.2618,-1.644922E-05,18.927,0,1.2618,1.007095E-06,18.927,0
1.2627,-1.712062E-05,18.9405,0,1.2627,-7.049668E-06,18.9405,0
1.2636,-3.289845E-05,18.954,0,1.2636,-3.457694E-05,18.954,0
1.2645,-5.069047E-05,18.9675,0,1.2645,-1.376364E-05,18.9675,0
1.2654,-6.243992E-05,18.981,0,1.2654,-5.706874E-06,18.981,0
1.2663,-5.001907E-05,18.9945,0,1.2663,-3.088426E-05,18.9945,0
1.2672,1.208515E-05,19.008,0,1.2672,6.378271E-06,19.008,0
1.2681,-1.712062E-05,19.0215,0,1.2681,2.28275E-05,19.0215,0
1.269,-3.189136E-05,19.035,0,1.269,-2.014191E-06,19.035,0
1.2699,-8.728161E-06,19.0485,0,1.2699,2.014191E-06,19.0485,0
1.2708,-2.316319E-05,19.062,0,1.2708,-2.786297E-05,19.062,0
1.2717,-3.021286E-05,19.0755,0,1.2717,-3.121996E-05,19.0755,0
1.2726,-3.524834E-05,19.089,0,1.2726,-5.404745E-05,19.089,0
1.2735,-1.107805E-05,19.1025,0,1.2735,-8.023193E-05,19.1025,0
1.2744,1.040665E-05,19.116,0,1.2744,-3.726253E-05,19.116,0
1.2753,-2.081331E-05,19.1295,0,1.2753,0,19.1295,0
1.2762,-2.417029E-05,19.143,0,1.2762,-3.356985E-05,19.143,0
1.2771,0,19.1565,0,1.2771,-6.74754E-05,19.1565,0
1.278,-1.644922E-05,19.17,0,1.278,-1.443504E-05,19.17,0
1.2789,1.174945E-05,19.1835,0,1.2789,1.779202E-05,19.1835,0
1.2798,9.265278E-05,19.197,0,1.2798,2.450599E-05,19.197,0
1.2807,4.934768E-05,19.2105,0,1.2807,9.735256E-06,19.2105,0
1.2816,6.378271E-06,19.224,0,1.2816,2.081331E-05,19.224,0
1.2825,3.256275E-05,19.2375,0,1.2825,1.107805E-05,19.2375,0
1.2834,2.484169E-05,19.251,0,1.2834,-1.242084E-05,19.251,0
1.2843,-6.042573E-06,19.2645,0,1.2843,-4.46479E-05,19.2645,0
1.2852,-4.699779E-06,19.278,0,1.2852,-3.524834E-05,19.278,0
1.2861,1.443504E-05,19.2915,0,1.2861,4.699779E-06,19.2915,0
1.287,4.36408E-06,19.305,0,1.287,-2.349889E-06,19.305,0
1.2879,4.43122E-05,19.3185,0,1.2879,-4.33051E-05,19.3185,0
1.2888,5.001907E-05,19.332,0,1.2888,-5.404745E-05,19.332,0
1.2897,1.242084E-05,19.3455,0,1.2897,-3.189136E-05,19.3455,0
1.2906,1.174945E-05,19.359,0,1.2906,-2.584878E-05,19.359,0
1.2915,-2.719158E-05,19.3725,0,1.2915,8.056763E-06,19.3725,0
1.2924,-7.351797E-05,19.386,0,1.2924,-1.275654E-05,19.386,0
1.2933,-8.258183E-05,19.3995,0,1.2933,-3.356985E-05,19.3995,0
1.2942,-6.009003E-05,19.413,0,1.2942,-1.107805E-05,19.413,0
1.2951,-6.176852E-05,19.4265,0,1.2951,-2.450599E-05,19.4265,0
1.296,-6.948959E-05,19.44,0,1.296,-6.243992E-05,19.44,0
1.2969,-4.061952E-05,19.4535,0,1.2969,-6.74754E-05,19.4535,0
1.2978,-3.390555E-05,19.467,0,1.2978,-6.51255E-05,19.467,0
1.2987,-1.107805E-05,19.4805,0,1.2987,-2.853437E-05,19.4805,0
1.2996,3.054856E-05,19.494,0,1.2996,4.901198E-05,19.494,0
1.3005,9.735256E-06,19.5075,0,1.3005,2.752728E-05,19.5075,0
1.3014,3.692683E-06,19.521,0,1.3014,-2.954147E-05,19.521,0
1.3023,-9.063859E-06,19.5345,0,1.3023,1.544213E-05,19.5345,0
1.3032,-1.275654E-05,19.548,0,1.3032,1.007095E-06,19.548,0
1.3041,-4.733349E-05,19.5615,0,1.3041,-5.706874E-05,19.5615,0
1.305,-3.256275E-05,19.575,0,1.305,-1.107805E-05,19.575,0
1.3059,3.256275E-05,19.5885,0,1.3059,-4.36408E-06,19.5885,0
1.3068,4.666209E-05,19.602,0,1.3068,-3.457694E-05,19.602,0
1.3077,3.994812E-05,19.6155,0,1.3077,-3.189136E-05,19.6155,0
1.3086,1.846342E-05,19.629,0,1.3086,-6.042573E-06,19.629,0
1.3095,-1.678492E-06,19.6425,0,1.3095,-3.491264E-05,19.6425,0
1.3104,-1.376364E-05,19.656,0,1.3104,-4.229801E-05,19.656,0
1.3113,3.457694E-05,19.6695,0,1.3113,-3.793393E-05,19.6695,0
1.3122,-2.349889E-06,19.683,0,1.3122,-5.102617E-05,19.683,0
1.3131,-7.418937E-05,19.6965,0,1.3131,-3.524834E-05,19.6965,0
1.314,-5.539025E-05,19.71,0,1.314,-1.947051E-05,19.71,0
1.3149,-6.378271E-06,19.7235,0,1.3149,-8.392462E-06,19.7235,0
1.3158,-4.028382E-06,19.737,0,1.3158,2.349889E-05,19.737,0
1.3167,-2.719158E-05,19.7505,0,1.3167,-2.21561E-05,19.7505,0
1.3176,2.987716E-05,19.764,0,1.3176,-6.009003E-05,19.764,0
1.3185,-4.028382E-06,19.7775,0,1.3185,-9.399558E-06,19.7775,0
1.3194,-1.141375E-05,19.791,0,1.3194,-6.713969E-06,19.791,0
1.3203,4.699779E-06,19.8045,0,1.3203,-3.323415E-05,19.8045,0
1.3212,-4.36408E-06,19.818,0,1.3212,-1.275654E-05,19.818,0
1.3221,-3.491264E-05,19.8315,0,1.3221,9.735256E-06,19.8315,0
1.323,7.049668E-06,19.845,0,1.323,-4.36408E-06,19.845,0
1.3239,5.270466E-05,19.8585,0,1.3239,-1.342794E-05,19.8585,0
1.3248,5.572595E-05,19.872,0,1.3248,-3.054856E-05,19.872,0
1.3257,6.713969E-07,19.8855,0,1.3257,-1.443504E-05,19.8855,0
1.3266,-5.035477E-06,19.899,0,1.3266,-8.728161E-06,19.899,0
1.3275,1.678492E-05,19.9125,0,1.3275,-5.505455E-05,19.9125,0
1.3284,2.047761E-05,19.926,0,1.3284,-7.888914E-05,19.926,0
1.3293,1.678492E-06,19.9395,0,1.3293,-2.18204E-05,19.9395,0
1.3302,-4.061952E-05,19.953,0,1.3302,2.349889E-06,19.953,0
1.3311,-4.43122E-05,19.9665,0,1.3311,1.007095E-05,19.9665,0
1.332,-1.376364E-05,19.98,0,1.332,5.069047E-05,19.98,0
1.3329,-4.36408E-06,19.9935,0,1.3329,2.685588E-05,19.9935,0
1.3338,-5.236896E-05,20.007,0,1.3338,-2.618448E-05,20.007,0
1.3347,-5.471885E-05,20.0205,0,1.3347,-1.544213E-05,20.0205,0
1.3356,-4.934768E-05,20.034,0,1.3356,7.721065E-06,20.034,0
1.3365,-1.544213E-05,20.0475,0,1.3365,-2.987716E-05,20.0475,0
1.3374,-6.713969E-06,20.061,0,1.3374,-4.867628E-05,20.061,0
1.3383,-1.644922E-05,20.0745,0,1.3383,-4.33051E-05,20.0745,0
1.3392,-3.994812E-05,20.088,0,1.3392,-8.392462E-06,20.088,0
1.3401,-1.947051E-05,20.1015,0,1.3401,9.399558E-06,20.1015,0
1.341,1.846342E-05,20.115,0,1.341,-3.692683E-06,20.115,0
1.3419,5.169757E-05,20.1285,0,1.3419,-4.36408E-06,20.1285,0
1.3428,1.309224E-05,20.142,0,1.3428,4.699779E-06,20.142,0
1.3437,1.846342E-05,20.1555,0,1.3437,-1.141375E-05,20.1555,0
1.3446,5.337606E-05,20.169,0,1.3446,-3.927672E-05,20.169,0
1.3455,1.846342E-05,20.1825,0,1.3455,-9.735256E-06,20.1825,0
1.3464,-7.049668E-06,20.196,0,1.3464,-4.766919E-05,20.196,0
1.3473,-1.275654E-05,20.2095,0,1.3473,-7.553216E-05,20.2095,0
1.3482,-1.275654E-05,20.223,0,1.3482,-6.143282E-05,20.223,0
1.3491,-5.673304E-05,20.2365,0,1.3491,-2.1149E-05,20.2365,0
1.35,-2.047761E-05,20.25,0,1.35,1.007095E-06,20.25,0
1.3509,-3.692683E-06,20.2635,0,1.3509,1.678492E-06,20.2635,0
1.3518,-3.356985E-07,20.277,0,1.3518,-4.028382E-05,20.277,0
1.3527,7.049668E-06,20.2905,0,1.3527,-3.591974E-05,20.2905,0
1.3536,-3.289845E-05,20.304,0,1.3536,-3.054856E-05,20.304,0
1.3545,-6.143282E-05,20.3175,0,1.3545,-5.471885E-05,20.3175,0
1.3554,-1.644922E-05,20.331,0,1.3554,-7.620356E-05,20.331,0
1.3563,-9.063859E-06,20.3445,0,1.3563,-2.18204E-05,20.3445,0
1.3572,-1.107805E-05,20.358,0,1.3572,4.36408E-06,20.358,0
1.3581,9.399558E-06,20.3715,0,1.3581,-1.510643E-05,20.3715,0
1.359,-1.678492E-06,20.385,0,1.359,1.779202E-05,20.385,0
1.3599,-2.719158E-05,20.3985,0,1.3599,2.316319E-05,20.3985,0
1.3608,-2.551309E-05,20.412,0,1.3608,-2.719158E-05,20.412,0
1.3617,3.323415E-05,20.4255,0,1.3617,-1.208515E-05,20.4255,0
1.3626,3.390555E-05,20.439,0,1.3626,-3.021286E-06,20.439,0
1.3635,3.491264E-05,20.4525,0,1.3635,-1.678492E-05,20.4525,0
1.3644,-2.014191E-06,20.466,0,1.3644,-4.36408E-05,20.466,0
1.3653,-1.812772E-05,20.4795,0,1.3653,-6.6804E-05,20.4795,0
1.3662,-2.719158E-05,20.493,0,1.3662,-2.584878E-05,20.493,0
1.3671,-1.678492E-06,20.5065,0,1.3671,8.728161E-06,20.5065,0
1.368,9.063859E-06,20.52,0,1.368,-1.712062E-05,20.52,0
1.3689,2.853437E-05,20.5335,0,1.3689,-1.678492E-05,20.5335,0
1.3698,-4.028382E-06,20.547,0,1.3698,-1.376364E-05,20.547,0
1.3707,-3.424125E-05,20.5605,0,1.3707,-3.826963E-05,20.5605,0
1.3716,8.392462E-06,20.574,0,1.3716,-9.735256E-06,20.574,0
1.3725,-2.047761E-05,20.5875,0,1.3725,-2.18204E-05,20.5875,0
1.3734,-1.644922E-05,20.601,0,1.3734,-1.443504E-05,20.601,0
1.3743,-1.812772E-05,20.6145,0,1.3743,-2.24918E-05,20.6145,0
1.3752,-5.706874E-05,20.628,0,1.3752,1.007095E-06,20.628,0
1.3761,-2.719158E-05,20.6415,0,1.3761,2.719158E-05,20.6415,0
1.377,-2.954147E-05,20.655,0,1.377,-1.242084E-05,20.655,0
1.3779,-8.056763E-06,20.6685,0,1.3779,-2.383459E-05,20.6685,0
1.3788,1.443504E-05,20.682,0,1.3788,-3.021286E-05,20.682,0
1.3797,-7.385367E-06,20.6955,0,1.3797,1.040665E-05,20.6955,0
1.3806,-3.524834E-05,20.709,0,1.3806,3.692683E-05,20.709,0
1.3815,1.040665E-05,20.7225,0,1.3815,-9.063859E-06,20.7225,0
1.3824,-4.028382E-06,20.736,0,1.3824,-2.316319E-05,20.736,0
1.3833,-5.438316E-05,20.7495,0,1.3833,8.392462E-06,20.7495,0
1.3842,-3.591974E-05,20.763,0,1.3842,-2.316319E-05,20.763,0
1.3851,-1.174945E-05,20.7765,0,1.3851,-4.162661E-05,20.7765,0
1.386,-1.712062E-05,20.79,0,1.386,-1.678492E-05,20.79,0
1.3869,1.745632E-05,20.8035,0,1.3869,9.735256E-06,20.8035,0
1.3878,3.726253E-05,20.817,0,1.3878,-1.510643E-05,20.817,0
1.3887,4.46479E-05,20.8305,0,1.3887,-2.853437E-05,20.8305,0
1.3896,2.887007E-05,20.844,0,1.3896,-1.309224E-05,20.844,0
1.3905,4.699779E-05,20.8575,0,1.3905,-2.853437E-05,20.8575,0
1.3914,1.577783E-05,20.871,0,1.3914,-2.316319E-05,20.871,0
1.3923,-1.007095E-06,20.8845,0,1.3923,-3.021286E-05,20.8845,0
1.3932,-1.678492E-06,20.898,0,1.3932,-3.457694E-05,20.898,0
1.3941,-5.471885E-05,20.9115,0,1.3941,-3.390555E-05,20.9115,0
1.395,-4.129091E-05,20.925,0,1.395,-3.659113E-05,20.925,0
1.3959,-1.376364E-05,20.9385,0,1.3959,-5.807584E-05,20.9385,0
1.3968,-2.1149E-05,20.952,0,1.3968,-3.390555E-05,20.952,0
1.3977,-1.107805E-05,20.9655,0,1.3977,-3.491264E-05,20.9655,0
1.3986,1.040665E-05,20.979,0,1.3986,-5.404745E-05,20.979,0
1.3995,-7.049668E-06,20.9925,0,1.3995,-6.378271E-06,20.9925,0
1.4004,-3.356985E-07,21.006,0,1.4004,3.692683E-06,21.006,0
1.4013,-6.713969E-06,21.0195,0,1.4013,-5.841154E-05,21.0195,0
1.4022,-6.378271E-06,21.033,0,1.4022,-4.934768E-05,21.033,0
1.4031,-3.121996E-05,21.0465,0,1.4031,-3.390555E-05,21.0465,0
1.404,-2.987716E-05,21.06,0,1.404,-3.860533E-05,21.06,0
1.4049,-1.040665E-05,21.0735,0,1.4049,-5.706874E-06,21.0735,0
1.4058,1.443504E-05,21.087,0,1.4058,3.323415E-05,21.087,0
1.4067,3.088426E-05,21.1005,0,1.4067,4.46479E-05,21.1005,0
1.4076,2.719158E-05,21.114,0,1.4076,3.054856E-05,21.114,0
1.4085,-5.706874E-06,21.1275,0,1.4085,-8.392462E-06,21.1275,0
1.4094,-3.356985E-07,21.141,0,1.4094,-2.685588E-05,21.141,0
1.4103,-9.063859E-06,21.1545,0,1.4103,1.007095E-05,21.1545,0
1.4112,-3.457694E-05,21.168,0,1.4112,-1.007095E-06,21.168,0
1.4121,-3.961242E-05,21.1815,0,1.4121,-5.001907E-05,21.1815,0
1.413,-1.846342E-05,21.195,0,1.413,-9.735256E-06,21.195,0
1.4139,1.376364E-05,21.2085,0,1.4139,7.049668E-06,21.2085,0
1.4148,9.735256E-06,21.222,0,1.4148,-4.36408E-05,21.222,0
1.4157,0,21.2355,0,1.4157,-5.941863E-05,21.2355,0
1.4166,2.081331E-05,21.249,0,1.4166,-6.713969E-06,21.249,0
1.4175,5.706874E-06,21.2625,0,1.4175,-5.371176E-06,21.2625,0
1.4184,-2.853437E-05,21.276,0,1.4184,-1.141375E-05,21.276,0
1.4193,-5.706874E-06,21.2895,0,1.4193,-1.644922E-05,21.2895,0
1.4202,1.040665E-05,21.303,0,1.4202,-4.699779E-06,21.303,0
1.4211,-4.33051E-05,21.3165,0,1.4211,-1.174945E-05,21.3165,0
1.422,-1.275654E-05,21.33,0,1.422,-7.418937E-05,21.33,0
1.4229,2.014191E-06,21.3435,0,1.4229,-6.948959E-05,21.3435,0
1.4238,-1.409934E-05,21.357,0,1.4238,-9.735256E-06,21.357,0
1.4247,-2.584878E-05,21.3705,0,1.4247,-7.049668E-06,21.3705,0
1.4256,-1.846342E-05,21.384,0,1.4256,-2.450599E-05,21.384,0
1.4265,-2.450599E-05,21.3975,0,1.4265,4.061952E-05,21.3975,0
1.4274,-1.342794E-06,21.411,0,1.4274,4.095522E-05,21.411,0
1.4283,-6.042573E-06,21.4245,0,1.4283,-1.208515E-05,21.4245,0
1.4292,4.028382E-06,21.438,0,1.4292,-2.047761E-05,21.438,0
1.4301,2.349889E-06,21.4515,0,1.4301,3.021286E-06,21.4515,0
1.431,-1.678492E-06,21.465,0,1.431,-2.21561E-05,21.465,0
1.4319,-1.309224E-05,21.4785,0,1.4319,-0.0001033951,21.4785,0
1.4328,1.846342E-05,21.492,0,1.4328,-8.459602E-05,21.492,0
1.4337,5.471885E-05,21.5055,0,1.4337,-5.706874E-06,21.5055,0
1.4346,-2.920577E-05,21.519,0,1.4346,2.819867E-05,21.519,0
1.4355,-3.390555E-05,21.5325,0,1.4355,-2.349889E-06,21.5325,0
1.4364,-2.517739E-05,21.546,0,1.4364,-7.016098E-05,21.546,0
1.4373,-4.599069E-05,21.5595,0,1.4373,-4.46479E-05,21.5595,0
1.4382,-4.36408E-06,21.573,0,1.4382,-1.510643E-05,21.573,0
1.4391,2.786297E-05,21.5865,0,1.4391,-4.934768E-05,21.5865,0
1.44,-8.392462E-06,21.6,0,1.44,-2.349889E-06,21.6,0
1.4409,-1.678492E-06,21.6135,0,1.4409,1.779202E-05,21.6135,0
1.4418,2.349889E-06,21.627,0,1.4418,-1.846342E-05,21.627,0
1.4427,1.510643E-05,21.6405,0,1.4427,-2.484169E-05,21.6405,0
1.4436,-2.047761E-05,21.654,0,1.4436,-2.349889E-06,21.654,0
1.4445,-2.21561E-05,21.6675,0,1.4445,-1.779202E-05,21.6675,0
1.4454,1.846342E-05,21.681,0,1.4454,-1.443504E-05,21.681,0
1.4463,2.1149E-05,21.6945,0,1.4463,-3.793393E-05,21.6945,0
1.4472,1.174945E-05,21.708,0,1.4472,-2.047761E-05,21.708,0
1.4481,1.275654E-05,21.7215,0,1.4481,-1.846342E-05,21.7215,0
1.449,-2.786297E-05,21.735,0,1.449,-6.311131E-05,21.735,0
1.4499,2.081331E-05,21.7485,0,1.4499,-5.337606E-05,21.7485,0
1.4508,2.652018E-05,21.762,0,1.4508,1.007095E-06,21.762,0
1.4517,-1.846342E-05,21.7755,0,1.4517,-2.349889E-06,21.7755,0
1.4526,-2.18204E-05,21.789,0,1.4526,1.309224E-05,21.789,0
1.4535,-7.049668E-06,21.8025,0,1.4535,5.270466E-05,21.8025,0
1.4544,1.779202E-05,21.816,0,1.4544,1.846342E-05,21.816,0
1.4553,-1.913481E-05,21.8295,0,1.4553,-6.311131E-05,21.8295,0
1.4562,-2.584878E-05,21.843,0,1.4562,-4.666209E-05,21.843,0
1.4571,-3.524834E-05,21.8565,0,1.4571,-1.443504E-05,21.8565,0
1.458,-4.867628E-05,21.87,0,1.458,-5.371176E-06,21.87,0
1.4589,-3.591974E-05,21.8835,0,1.4589,3.726253E-05,21.8835,0
1.4598,-2.316319E-05,21.897,0,1.4598,-1.275654E-05,21.897,0
1.4607,-3.356985E-05,21.9105,0,1.4607,-2.450599E-05,21.9105,0
1.4616,-3.424125E-05,21.924,0,1.4616,-8.392462E-06,21.924,0
1.4625,-2.1149E-05,21.9375,0,1.4625,-7.385367E-06,21.9375,0
1.4634,1.510643E-05,21.951,0,1.4634,-3.256275E-05,21.951,0
1.4643,-1.443504E-05,21.9645,0,1.4643,-4.699779E-06,21.9645,0
1.4652,-5.706874E-06,21.978,0,1.4652,-2.24918E-05,21.978,0
1.4661,-3.692683E-06,21.9915,0,1.4661,-6.210422E-05,21.9915,0
1.467,-3.558404E-05,22.005,0,1.467,-3.994812E-05,22.005,0
1.4679,-3.256275E-05,22.0185,0,1.4679,-5.673304E-05,22.0185,0
1.4688,-3.088426E-05,22.032,0,1.4688,-8.86244E-05,22.032,0
1.4697,-1.107805E-05,22.0455,0,1.4697,-3.256275E-05,22.0455,0
1.4706,-4.36408E-06,22.059,0,1.4706,1.275654E-05,22.059,0
1.4715,1.510643E-05,22.0725,0,1.4715,-1.242084E-05,22.0725,0
1.4724,1.779202E-05,22.086,0,1.4724,-2.484169E-05,22.086,0
1.4733,0,22.0995,0,1.4733,-4.699779E-05,22.0995,0
1.4742,1.644922E-05,22.113,0,1.4742,-1.309224E-05,22.113,0
1.4751,4.867628E-05,22.1265,0,1.4751,6.378271E-06,22.1265,0
1.476,2.920577E-05,22.14,0,1.476,-9.735256E-06,22.14,0
1.4769,6.042573E-06,22.1535,0,1.4769,-1.712062E-05,22.1535,0
1.4778,1.107805E-05,22.167,0,1.4778,1.577783E-05,22.167,0
1.4787,-9.735256E-06,22.1805,0,1.4787,4.028382E-06,22.1805,0
1.4796,-5.035477E-06,22.194,0,1.4796,-4.53193E-05,22.194,0
1.4805,2.349889E-06,22.2075,0,1.4805,-9.735256E-06,22.2075,0
1.4814,-2.551309E-05,22.221,0,1.4814,3.021286E-06,22.221,0
1.4823,-2.618448E-05,22.2345,0,1.4823,-2.719158E-05,22.2345,0
1.4832,-2.819867E-05,22.248,0,1.4832,1.309224E-05,22.248,0
1.4841,-4.196231E-05,22.2615,0,1.4841,2.383459E-05,22.2615,0
1.485,-4.33051E-05,22.275,0,1.485,-1.712062E-05,22.275,0
1.4859,-3.323415E-05,22.2885,0,1.4859,-3.994812E-05,22.2885,0
1.4868,1.174945E-05,22.302,0,1.4868,-5.639734E-05,22.302,0
1.4877,5.706874E-06,22.3155,0,1.4877,-3.390555E-05,22.3155,0
1.4886,-4.599069E-05,22.329,0,1.4886,-9.063859E-06,22.329,0
1.4895,-4.666209E-05,22.3425,0,1.4895,-3.155566E-05,22.3425,0
1.4904,-3.323415E-05,22.356,0,1.4904,-3.625543E-05,22.356,0
1.4913,-2.786297E-05,22.3695,0,1.4913,9.735256E-06,22.3695,0
1.4922,2.24918E-05,22.383,0,1.4922,1.007095E-06,22.383,0
1.4931,9.735256E-06,22.3965,0,1.4931,-6.478981E-05,22.3965,0
1.494,-3.356985E-07,22.41,0,1.494,-5.304036E-05,22.41,0
1.4949,4.800488E-05,22.4235,0,1.4949,-2.551309E-05,22.4235,0
1.4958,1.678492E-05,22.437,0,1.4958,-7.217517E-05,22.437,0
1.4967,6.378271E-06,22.4505,0,1.4967,-4.901198E-05,22.4505,0
1.4976,5.371176E-06,22.464,0,1.4976,2.1149E-05,22.464,0
1.4985,4.733349E-05,22.4775,0,1.4985,6.6804E-05,22.4775,0
1.4994,2.047761E-05,22.491,0,1.4994,2.484169E-05,22.491,0
1.5003,1.544213E-05,22.5045,0,1.5003,-4.36408E-06,22.5045,0
1.5012,1.242084E-05,22.518,0,1.5012,-1.678492E-06,22.518,0
1.5021,-4.061952E-05,22.5315,0,1.5021,-1.678492E-06,22.5315,0
1.503,-3.591974E-05,22.545,0,1.503,-2.920577E-05,22.545,0
1.5039,-1.913481E-05,22.5585,0,1.5039,-8.392462E-05,22.5585,0
1.5048,-1.779202E-05,22.572,0,1.5048,-3.793393E-05,22.572,0
1.5057,-3.021286E-06,22.5855,0,1.5057,-1.611353E-05,22.5855,0
1.5066,4.263371E-05,22.599,0,1.5066,-4.766919E-05,22.599,0
1.5075,3.994812E-05,22.6125,0,1.5075,-4.36408E-06,22.6125,0
1.5084,1.678492E-06,22.626,0,1.5084,-4.699779E-06,22.626,0
1.5093,-8.056763E-06,22.6395,0,1.5093,-5.270466E-05,22.6395,0
1.5102,-3.826963E-05,22.653,0,1.5102,-1.342794E-05,22.653,0
1.5111,-6.344701E-05,22.6665,0,1.5111,2.047761E-05,22.6665,0
1.512,-4.46479E-05,22.68,0,1.512,4.36408E-06,22.68,0
1.5129,-1.947051E-05,22.6935,0,1.5129,-6.713969E-06,22.6935,0
1.5138,-1.376364E-05,22.707,0,1.5138,-3.356985E-05,22.707,0
1.5147,3.994812E-05,22.7205,0,1.5147,-1.980621E-05,22.7205,0
1.5156,0.0001084306,22.734,0,1.5156,-1.242084E-05,22.734,0
1.5165,6.378271E-06,22.7475,0,1.5165,-9.768826E-05,22.7475,0
1.5174,-2.18204E-05,22.761,0,1.5174,-3.692683E-05,22.761,0
1.5183,2.752728E-05,22.7745,0,1.5183,4.733349E-05,22.7745,0
1.5192,-2.652018E-05,22.788,0,1.5192,7.721065E-06,22.788,0
1.5201,1.678492E-06,22.8015,0,1.5201,-1.712062E-05,22.8015,0
1.521,2.316319E-05,22.815,0,1.521,2.954147E-05,22.815,0
1.5219,-2.349889E-05,22.8285,0,1.5219,2.685588E-06,22.8285,0
1.5228,-3.793393E-05,22.842,0,1.5228,-5.203327E-05,22.842,0
1.5237,7.049668E-06,22.8555,0,1.5237,-4.599069E-05,22.8555,0
1.5246,8.056763E-06,22.869,0,1.5246,-3.256275E-05,22.869,0
1.5255,1.040665E-05,22.8825,0,1.5255,-4.028382E-05,22.8825,0
1.5264,-3.021286E-06,22.896,0,1.5264,-4.766919E-05,22.896,0
1.5273,-1.577783E-05,22.9095,0,1.5273,-8.123904E-05,22.9095,0
1.5282,-5.606165E-05,22.923,0,1.5282,-5.606165E-05,22.923,0
1.5291,-5.270466E-05,22.9365,0,1.5291,-9.399558E-06,22.9365,0
1.53,-2.719158E-05,22.95,0,1.53,1.309224E-05,22.95,0
1.5309,-1.007095E-05,22.9635,0,1.5309,-6.042573E-06,22.9635,0
1.5318,-1.846342E-05,22.977,0,1.5318,0,22.977,0
1.5327,-2.987716E-05,22.9905,0,1.5327,-8.392462E-06,22.9905,0
1.5336,2.652018E-05,23.004,0,1.5336,-4.800488E-05,23.004,0
1.5345,4.028382E-06,23.0175,0,1.5345,-1.107805E-05,23.0175,0
1.5354,-5.035477E-06,23.031,0,1.5354,3.021286E-06,23.031,0
1.5363,1.812772E-05,23.0445,0,1.5363,-7.049668E-06,23.0445,0
1.5372,-3.759823E-05,23.058,0,1.5372,1.174945E-05,23.058,0
1.5381,-4.49836E-05,23.0715,0,1.5381,2.047761E-05,23.0715,0
1.539,-2.047761E-05,23.085,0,1.539,9.063859E-06,23.085,0
1.5399,-2.081331E-05,23.0985,0,1.5399,-4.36408E-06,23.0985,0
1.5408,-2.551309E-05,23.112,0,1.5408,-3.189136E-05,23.112,0
1.5417,-2.18204E-05,23.1255,0,1.5417,-2.450599E-05,23.1255,0
1.5426,-5.136187E-05,23.139,0,1.5426,-1.107805E-05,23.139,0
1.5435,-5.001907E-05,23.1525,0,1.5435,-6.478981E-05,23.1525,0
1.5444,-6.042573E-06,23.166,0,1.5444,-9.365987E-05,23.166,0
1.5453,-8.392462E-06,23.1795,0,1.5453,-2.954147E-05,23.1795,0
1.5462,-1.544213E-05,23.193,0,1.5462,-2.081331E-05,23.193,0
1.5471,4.095522E-05,23.2065,0,1.5471,-3.793393E-05,23.2065,0
1.548,9.097429E-05,23.22,0,1.548,5.035477E-06,23.22,0
1.5489,5.774014E-05,23.2335,0,1.5489,1.107805E-05,23.2335,0
1.5498,1.141375E-05,23.247,0,1.5498,-2.316319E-05,23.247,0
1.5507,1.309224E-05,23.2605,0,1.5507,-9.399558E-06,23.2605,0
1.5516,-2.584878E-05,23.274,0,1.5516,-4.36408E-06,23.274,0
1.5525,-1.544213E-05,23.2875,0,1.5525,-1.544213E-05,23.2875,0
1.5534,-3.659113E-05,23.301,0,1.5534,-6.713969E-06,23.301,0
1.5543,-2.719158E-05,23.3145,0,1.5543,-1.913481E-05,23.3145,0
1.5552,-1.409934E-05,23.328,0,1.5552,-6.713969E-07,23.328,0
1.5561,-3.256275E-05,23.3415,0,1.5561,-4.028382E-06,23.3415,0
1.557,-3.524834E-05,23.355,0,1.557,-5.270466E-05,23.355,0
1.5579,-4.934768E-05,23.3685,0,1.5579,-6.143282E-05,23.3685,0
1.5588,-6.378271E-06,23.382,0,1.5588,-1.913481E-05,23.382,0
1.5597,1.242084E-05,23.3955,0,1.5597,1.040665E-05,23.3955,0
1.5606,-1.376364E-05,23.409,0,1.5606,-2.316319E-05,23.409,0
1.5615,-3.088426E-05,23.4225,0,1.5615,-4.028382E-06,23.4225,0
1.5624,1.342794E-06,23.436,0,1.5624,-6.378271E-06,23.436,0
1.5633,2.349889E-06,23.4495,0,1.5633,-2.920577E-05,23.4495,0
1.5642,-1.107805E-05,23.463,0,1.5642,-2.316319E-05,23.463,0
1.5651,-1.242084E-05,23.4765,0,1.5651,-4.028382E-06,23.4765,0
1.566,-1.812772E-05,23.49,0,1.566,-1.409934E-05,23.49,0
1.5669,-1.242084E-05,23.5035,0,1.5669,2.1149E-05,23.5035,0
1.5678,-6.042573E-06,23.517,0,1.5678,-6.713969E-06,23.517,0
1.5687,-2.047761E-05,23.5305,0,1.5687,-1.107805E-05,23.5305,0
1.5696,-3.457694E-05,23.544,0,1.5696,1.007095E-06,23.544,0
1.5705,7.721065E-06,23.5575,0,1.5705,-2.383459E-05,23.5575,0
1.5714,2.1149E-05,23.571,0,1.5714,-7.049668E-05,23.571,0
1.5723,-1.678492E-05,23.5845,0,1.5723,-6.61326E-05,23.5845,0
1.5732,9.735256E-06,23.598,0,1.5732,-3.726253E-05,23.598,0
1.5741,2.047761E-05,23.6115,0,1.5741,-2.752728E-05,23.6115,0
1.575,1.208515E-05,23.625,0,1.575,1.040665E-05,23.625,0
1.5759,2.047761E-05,23.6385,0,1.5759,1.242084E-05,23.6385,0
1.5768,7.721065E-06,23.652,0,1.5768,-2.584878E-05,23.652,0
1.5777,1.275654E-05,23.6655,0,1.5777,-3.491264E-05,23.6655,0
1.5786,-3.021286E-06,23.679,0,1.5786,-9.063859E-06,23.679,0
1.5795,2.349889E-06,23.6925,0,1.5795,-6.713969E-06,23.6925,0
1.5804,4.43122E-05,23.706,0,1.5804,-1.174945E-05,23.706,0
1.5813,4.46479E-05,23.7195,0,1.5813,-2.920577E-05,23.7195,0
1.5822,-3.860533E-05,23.733,0,1.5822,-6.713969E-06,23.733,0
1.5831,-7.116808E-05,23.7465,0,1.5831,-3.021286E-06,23.7465,0
1.584,-1.510643E-05,23.76,0,1.584,-3.591974E-05,23.76,0
1.5849,-3.356985E-07,23.7735,0,1.5849,-5.471885E-05,23.7735,0
1.5858,1.510643E-05,23.787,0,1.5858,-1.980621E-05,23.787,0
1.5867,1.779202E-05,23.8005,0,1.5867,0,23.8005,0
1.5876,2.652018E-05,23.814,0,1.5876,-3.155566E-05,23.814,0
1.5885,8.392462E-06,23.8275,0,1.5885,-5.706874E-06,23.8275,0
1.5894,-2.316319E-05,23.841,0,1.5894,-1.007095E-06,23.841,0
1.5903,-1.342794E-06,23.8545,0,1.5903,-3.390555E-05,23.8545,0
1.5912,-2.047761E-05,23.868,0,1.5912,-2.551309E-05,23.868,0
1.5921,-1.644922E-05,23.8815,0,1.5921,-8.392462E-06,23.8815,0
1.593,-6.378271E-06,23.895,0,1.593,-1.947051E-05,23.895,0
1.5939,-9.399558E-06,23.9085,0,1.5939,-1.242084E-05,23.9085,0
1.5948,-2.618448E-05,23.922,0,1.5948,-4.632639E-05,23.922,0
1.5957,-6.243992E-05,23.9355,0,1.5957,-2.652018E-05,23.9355,0
1.5966,-6.881819E-05,23.949,0,1.5966,1.980621E-05,23.949,0
1.5975,-5.807584E-05,23.9625,0,1.5975,1.879912E-05,23.9625,0
1.5984,-2.28275E-05,23.976,0,1.5984,-1.577783E-05,23.976,0
1.5993,-1.275654E-05,23.9895,0,1.5993,-1.443504E-05,23.9895,0
1.6002,1.812772E-05,24.003,0,1.6002,-5.941863E-05,24.003,0
1.6011,6.6804E-05,24.0165,0,1.6011,-5.841154E-05,24.0165,0
1.602,5.673304E-05,24.03,0,1.602,-5.572595E-05,24.03,0
1.6029,3.323415E-05,24.0435,0,1.6029,-3.524834E-05,24.0435,0
1.6038,1.174945E-05,24.057,0,1.6038,-4.196231E-05,24.057,0
1.6047,2.584878E-05,24.0705,0,1.6047,-2.887007E-05,24.0705,0
1.6056,3.692683E-06,24.084,0,1.6056,-7.721065E-06,24.084,0
1.6065,4.028382E-06,24.0975,0,1.6065,-2.652018E-05,24.0975,0
1.6074,-6.713969E-07,24.111,0,1.6074,-3.189136E-05,24.111,0
1.6083,2.484169E-05,24.1245,0,1.6083,-2.719158E-05,24.1245,0
1.6092,2.081331E-05,24.138,0,1.6092,8.728161E-06,24.138,0
1.6101,-1.107805E-05,24.1515,0,1.6101,3.189136E-05,24.1515,0
1.611,-3.994812E-05,24.165,0,1.611,-1.040665E-05,24.165,0
1.6119,-1.544213E-05,24.1785,0,1.6119,-3.121996E-05,24.1785,0
1.6128,-4.867628E-05,24.192,0,1.6128,-1.376364E-05,24.192,0
1.6137,-8.392462E-05,24.2055,0,1.6137,-3.054856E-05,24.2055,0
1.6146,-8.291753E-05,24.219,0,1.6146,-6.57969E-05,24.219,0
1.6155,-7.721065E-05,24.2325,0,1.6155,-1.007095E-05,24.2325,0
1.6164,1.309224E-05,24.246,0,1.6164,5.337606E-05,24.246,0
1.6173,3.356985E-07,24.2595,0,1.6173,-7.385367E-06,24.2595,0
1.6182,1.544213E-05,24.273,0,1.6182,-3.222705E-05,24.273,0
1.6191,-1.678492E-06,24.2865,0,1.6191,-5.035477E-06,24.2865,0
1.62,-7.385367E-06,24.3,0,1.62,-1.040665E-05,24.3,0
1.6209,-8.392462E-06,24.3135,0,1.6209,-5.035477E-06,24.3135,0
1.6218,-1.678492E-06,24.327,0,1.6218,-3.424125E-05,24.327,0
1.6227,1.980621E-05,24.3405,0,1.6227,6.713969E-07,24.3405,0
1.6236,3.390555E-05,24.354,0,1.6236,6.713969E-06,24.354,0
1.6245,3.793393E-05,24.3675,0,1.6245,-2.047761E-05,24.3675,0
1.6254,3.625543E-05,24.381,0,1.6254,-2.954147E-05,24.381,0
1.6263,-1.208515E-05,24.3945,0,1.6263,1.342794E-06,24.3945,0
1.6272,-3.121996E-05,24.408,0,1.6272,-8.392462E-06,24.408,0
1.6281,-9.063859E-06,24.4215,0,1.6281,-2.450599E-05,24.4215,0
1.629,-7.721065E-06,24.435,0,1.629,2.853437E-05,24.435,0
1.6299,-1.980621E-05,24.4485,0,1.6299,1.376364E-05,24.4485,0
1.6308,-3.256275E-05,24.462,0,1.6308,-3.994812E-05,24.462,0
1.6317,-2.450599E-05,24.4755,0,1.6317,-3.189136E-05,24.4755,0
1.6326,-2.450599E-05,24.489,0,1.6326,-3.121996E-05,24.489,0
1.6335,-2.18204E-05,24.5025,0,1.6335,-5.069047E-05,24.5025,0
1.6344,-1.242084E-05,24.516,0,1.6344,-3.591974E-05,24.516,0
1.6353,9.735256E-06,24.5295,0,1.6353,-3.524834E-05,24.5295,0
1.6362,-1.443504E-05,24.543,0,1.6362,-1.644922E-05,24.543,0
1.6371,-4.867628E-05,24.5565,0,1.6371,-2.383459E-05,24.5565,0
1.638,-3.390555E-05,24.57,0,1.638,-3.256275E-05,24.57,0
1.6389,-2.450599E-05,24.5835,0,1.6389,-3.256275E-05,24.5835,0
1.6398,-1.913481E-05,24.597,0,1.6398,1.510643E-05,24.597,0
1.6407,4.699779E-06,24.6105,0,1.6407,-7.721065E-06,24.6105,0
1.6416,1.242084E-05,24.624,0,1.6416,-4.196231E-05,24.624,0
1.6425,3.390555E-05,24.6375,0,1.6425,3.692683E-06,24.6375,0
1.6434,6.143282E-05,24.651,0,1.6434,2.349889E-06,24.651,0
1.6443,6.176852E-05,24.6645,0,1.6443,-3.088426E-05,24.6645,0
1.6452,-8.392462E-06,24.678,0,1.6452,-2.719158E-05,24.678,0
1.6461,-4.33051E-05,24.6915,0,1.6461,-1.477073E-05,24.6915,0
1.647,-3.793393E-05,24.705,0,1.647,-8.392462E-06,24.705,0
1.6479,-3.256275E-05,24.7185,0,1.6479,-2.18204E-05,24.7185,0
1.6488,1.846342E-05,24.732,0,1.6488,-2.685588E-05,24.732,0
1.6497,1.510643E-05,24.7455,0,1.6497,-1.376364E-05,24.7455,0
1.6506,4.699779E-06,24.759,0,1.6506,-9.735256E-06,24.759,0
1.6515,9.735256E-06,24.7725,0,1.6515,-2.987716E-05,24.7725,0
1.6524,-4.028382E-06,24.786,0,1.6524,-4.263371E-05,24.786,0
1.6533,-1.074235E-05,24.7995,0,1.6533,-2.014191E-06,24.7995,0
1.6542,-3.524834E-05,24.813,0,1.6542,-6.378271E-06,24.813,0
1.6551,-8.392462E-06,24.8265,0,1.6551,-5.471885E-05,24.8265,0
1.656,9.063859E-06,24.84,0,1.656,-1.611353E-05,24.84,0
1.6569,-1.947051E-05,24.8535,0,1.6569,-1.678492E-06,24.8535,0
1.6578,8.392462E-06,24.867,0,1.6578,-3.457694E-05,24.867,0
1.6587,2.652018E-05,24.8805,0,1.6587,-3.424125E-05,24.8805,0
1.6596,2.014191E-06,24.894,0,1.6596,-5.673304E-05,24.894,0
1.6605,2.316319E-05,24.9075,0,1.6605,-5.471885E-05,24.9075,0
1.6614,1.174945E-05,24.921,0,1.6614,-6.51255E-05,24.921,0
1.6623,-2.987716E-05,24.9345,0,1.6623,-5.807584E-05,24.9345,0
1.6632,-1.510643E-05,24.948,0,1.6632,3.054856E-05,24.948,0
1.6641,-3.894102E-05,24.9615,0,1.6641,9.735256E-05,24.9615,0
1.665,-5.337606E-05,24.975,0,1.665,2.316319E-05,24.975,0
1.6659,-4.968337E-05,24.9885,0,1.6659,-3.121996E-05,24.9885,0
1.6668,-2.551309E-05,25.002,0,1.6668,-1.342794E-06,25.002,0
1.6677,2.349889E-06,25.0155,0,1.6677,-1.174945E-05,25.0155,0
1.6686,2.819867E-05,25.029,0,1.6686,-3.793393E-05,25.029,0
1.6695,2.014191E-06,25.0425,0,1.6695,-1.074235E-05,25.0425,0
1.6704,8.392462E-06,25.056,0,1.6704,-8.392462E-06,25.056,0
1.6713,2.1149E-05,25.0695,0,1.6713,-1.074235E-05,25.0695,0
1.6722,0,25.083,0,1.6722,9.735256E-06,25.083,0
1.6731,-2.18204E-05,25.0965,0,1.6731,6.713969E-07,25.0965,0
1.674,-5.706874E-06,25.11,0,1.674,-1.510643E-05,25.11,0
1.6749,-3.021286E-06,25.1235,0,1.6749,-1.913481E-05,25.1235,0
1.6758,5.706874E-06,25.137,0,1.6758,-4.33051E-05,25.137,0
1.6767,-3.356985E-06,25.1505,0,1.6767,-4.599069E-05,25.1505,0
1.6776,-7.016098E-05,25.164,0,1.6776,-4.766919E-05,25.164,0
1.6785,-4.867628E-05,25.1775,0,1.6785,-6.78111E-05,25.1775,0
1.6794,-2.853437E-05,25.191,0,1.6794,-7.721065E-05,25.191,0
1.6803,-6.277562E-05,25.2045,0,1.6803,-1.174945E-05,25.2045,0
1.6812,-4.095522E-05,25.218,0,1.6812,-3.860533E-05,25.218,0
1.6821,3.256275E-05,25.2315,0,1.6821,-6.478981E-05,25.2315,0
1.683,3.927672E-05,25.245,0,1.683,5.606165E-05,25.245,0
1.6839,3.323415E-05,25.2585,0,1.6839,5.941863E-05,25.2585,0
1.6848,-1.678492E-06,25.272,0,1.6848,-2.014191E-05,25.272,0
1.6857,-2.081331E-05,25.2855,0,1.6857,-9.735256E-06,25.2855,0
1.6866,3.356985E-06,25.299,0,1.6866,1.443504E-05,25.299,0
1.6875,4.599069E-05,25.3125,0,1.6875,-1.947051E-05,25.3125,0
1.6884,1.309224E-05,25.326,0,1.6884,-3.424125E-05,25.326,0
1.6893,9.063859E-06,25.3395,0,1.6893,-3.659113E-05,25.3395,0
1.6902,1.477073E-05,25.353,0,1.6902,-1.309224E-05,25.353,0
1.6911,-3.591974E-05,25.3665,0,1.6911,-1.712062E-05,25.3665,0
1.692,-4.53193E-05,25.38,0,1.692,-3.759823E-05,25.38,0
1.6929,-1.846342E-05,25.3935,0,1.6929,-3.021286E-05,25.3935,0
1.6938,-3.591974E-05,25.407,0,1.6938,-6.713969E-06,25.407,0
1.6947,-1.409934E-05,25.4205,0,1.6947,-1.242084E-05,25.4205,0
1.6956,3.189136E-05,25.434,0,1.6956,-5.136187E-05,25.434,0
1.6965,-3.356985E-06,25.4475,0,1.6965,-1.577783E-05,25.4475,0
1.6974,-9.735256E-06,25.461,0,1.6974,-7.049668E-06,25.461,0
1.6983,7.721065E-06,25.4745,0,1.6983,-2.652018E-05,25.4745,0
1.6992,-2.349889E-06,25.488,0,1.6992,-3.659113E-05,25.488,0
1.7001,-3.323415E-05,25.5015,0,1.7001,-1.174945E-05,25.5015,0
1.701,1.678492E-06,25.515,0,1.701,8.728161E-06,25.515,0
1.7019,-3.692683E-06,25.5285,0,1.7019,1.107805E-05,25.5285,0
1.7028,-2.584878E-05,25.542,0,1.7028,-3.054856E-05,25.542,0
1.7037,-3.289845E-05,25.5555,0,1.7037,-2.618448E-05,25.5555,0
1.7046,-3.356985E-07,25.569,0,1.7046,-9.735256E-06,25.569,0
1.7055,-1.040665E-05,25.5825,0,1.7055,-4.229801E-05,25.5825,0
1.7064,2.21561E-05,25.596,0,1.7064,-2.920577E-05,25.596,0
1.7073,-2.450599E-05,25.6095,0,1.7073,-1.577783E-05,25.6095,0
1.7082,-2.887007E-05,25.623,0,1.7082,-3.692683E-05,25.623,0
1.7091,-3.356985E-07,25.6365,0,1.7091,-4.968337E-05,25.6365,0
1.71,-3.189136E-05,25.65,0,1.71,2.349889E-06,25.65,0
1.7109,-9.063859E-06,25.6635,0,1.7109,5.874724E-05,25.6635,0
1.7118,-8.728161E-06,25.677,0,1.7118,-3.189136E-05,25.677,0
1.7127,-1.510643E-05,25.6905,0,1.7127,-4.39765E-05,25.6905,0
1.7136,1.242084E-05,25.704,0,1.7136,-1.510643E-05,25.704,0
1.7145,2.920577E-05,25.7175,0,1.7145,-2.920577E-05,25.7175,0
1.7154,2.417029E-05,25.731,0,1.7154,-4.061952E-05,25.731,0
1.7163,1.980621E-05,25.7445,0,1.7163,-6.076142E-05,25.7445,0
1.7172,-3.189136E-05,25.758,0,1.7172,-2.786297E-05,25.758,0
1.7181,-3.793393E-05,25.7715,0,1.7181,6.713969E-07,25.7715,0
1.719,6.713969E-07,25.785,0,1.719,-2.18204E-05,25.785,0
1.7199,-1.275654E-05,25.7985,0,1.7199,-4.36408E-05,25.7985,0
1.7208,-3.054856E-05,25.812,0,1.7208,3.692683E-06,25.812,0
1.7217,-2.920577E-05,25.8255,0,1.7217,-6.713969E-06,25.8255,0
1.7226,1.007095E-06,25.839,0,1.7226,-4.129091E-05,25.839,0
1.7235,-3.289845E-05,25.8525,0,1.7235,-8.392462E-06,25.8525,0
1.7244,-2.014191E-05,25.866,0,1.7244,7.721065E-06,25.866,0
1.7253,2.920577E-05,25.8795,0,1.7253,-7.049668E-06,25.8795,0
1.7262,5.706874E-06,25.893,0,1.7262,-1.644922E-05,25.893,0
1.7271,1.007095E-06,25.9065,0,1.7271,-1.275654E-05,25.9065,0
1.728,5.639734E-05,25.92,0,1.728,-1.007095E-05,25.92,0
1.7289,5.001907E-05,25.9335,0,1.7289,-1.947051E-05,25.9335,0
1.7298,6.378271E-06,25.947,0,1.7298,-3.793393E-05,25.947,0
1.7307,3.692683E-06,25.9605,0,1.7307,-1.812772E-05,25.9605,0
1.7316,-4.46479E-05,25.974,0,1.7316,-1.477073E-05,25.974,0
1.7325,-2.853437E-05,25.9875,0,1.7325,-2.685588E-05,25.9875,0
1.7334,-2.28275E-05,26.001,0,1.7334,-3.121996E-05,26.001,0
1.7343,-4.061952E-05,26.0145,0,1.7343,0,26.0145,0
1.7352,-2.920577E-05,26.028,0,1.7352,-7.385367E-06,26.028,0
1.7361,-1.611353E-05,26.0415,0,1.7361,-1.779202E-05,26.0415,0
1.737,-5.706874E-06,26.055,0,1.737,1.141375E-05,26.055,0
1.7379,1.107805E-05,26.0685,0,1.7379,1.678492E-06,26.0685,0
1.7388,1.577783E-05,26.082,0,1.7388,-3.826963E-05,26.082,0
1.7397,-2.417029E-05,26.0955,0,1.7397,-1.309224E-05,26.0955,0
1.7406,-6.915389E-05,26.109,0,1.7406,5.706874E-06,26.109,0
1.7415,-3.323415E-05,26.1225,0,1.7415,-2.887007E-05,26.1225,0
1.7424,-1.242084E-05,26.136,0,1.7424,-3.524834E-05,26.136,0
1.7433,-3.356985E-06,26.1495,0,1.7433,-3.659113E-05,26.1495,0
1.7442,1.376364E-05,26.163,0,1.7442,-1.846342E-05,26.163,0
1.7451,2.719158E-05,26.1765,0,1.7451,-6.713969E-07,26.1765,0
1.746,2.014191E-06,26.19,0,1.746,-3.692683E-05,26.19,0
1.7469,1.678492E-06,26.2035,0,1.7469,-5.606165E-05,26.2035,0
1.7478,-2.450599E-05,26.217,0,1.7478,-3.021286E-06,26.217,0
1.7487,-2.316319E-05,26.2305,0,1.7487,-1.409934E-05,26.2305,0
1.7496,-2.047761E-05,26.244,0,1.7496,-5.169757E-05,26.244,0
1.7505,-3.591974E-05,26.2575,0,1.7505,-4.43122E-05,26.2575,0
1.7514,-8.728161E-06,26.271,0,1.7514,-1.980621E-05,26.271,0
1.7523,2.081331E-05,26.2845,0,1.7523,-4.129091E-05,26.2845,0
1.7532,5.270466E-05,26.298,0,1.7532,-3.860533E-05,26.298,0
1.7541,2.21561E-05,26.3115,0,1.7541,2.752728E-05,26.3115,0
1.755,-1.208515E-05,26.325,0,1.755,5.471885E-05,26.325,0
1.7559,1.007095E-06,26.3385,0,1.7559,1.309224E-05,26.3385,0
1.7568,3.692683E-05,26.352,0,1.7568,-2.517739E-05,26.352,0
1.7577,2.987716E-05,26.3655,0,1.7577,-2.584878E-05,26.3655,0
1.7586,9.063859E-06,26.379,0,1.7586,-1.174945E-05,26.379,0
1.7595,3.692683E-06,26.3925,0,1.7595,-5.337606E-05,26.3925,0
1.7604,3.356985E-07,26.406,0,1.7604,-6.54612E-05,26.406,0
1.7613,-2.316319E-05,26.4195,0,1.7613,3.390555E-05,26.4195,0
1.7622,-3.591974E-05,26.433,0,1.7622,1.779202E-05,26.433,0
1.7631,-2.719158E-05,26.4465,0,1.7631,-5.639734E-05,26.4465,0
1.764,-3.457694E-05,26.46,0,1.764,1.745632E-05,26.46,0
1.7649,1.242084E-05,26.4735,0,1.7649,5.606165E-05,26.4735,0
1.7658,8.728161E-06,26.487,0,1.7658,-2.014191E-06,26.487,0
1.7667,-7.721065E-06,26.5005,0,1.7667,-3.457694E-05,26.5005,0
1.7676,-3.256275E-05,26.514,0,1.7676,-3.457694E-05,26.514,0
1.7685,-2.349889E-05,26.5275,0,1.7685,-4.095522E-05,26.5275,0
1.7694,-1.242084E-05,26.541,0,1.7694,-3.323415E-05,26.541,0
1.7703,-1.644922E-05,26.5545,0,1.7703,-3.659113E-05,26.5545,0
1.7712,-3.457694E-05,26.568,0,1.7712,-8.728161E-06,26.568,0
1.7721,-4.33051E-05,26.5815,0,1.7721,-5.706874E-06,26.5815,0
1.773,-5.471885E-05,26.595,0,1.773,-2.450599E-05,26.595,0
1.7739,5.035477E-06,26.6085,0,1.7739,-1.040665E-05,26.6085,0
1.7748,1.141375E-05,26.622,0,1.7748,1.174945E-05,26.622,0
1.7757,1.040665E-05,26.6355,0,1.7757,-1.174945E-05,26.6355,0
1.7766,5.069047E-05,26.649,0,1.7766,-5.001907E-05,26.649,0
1.7775,-8.392462E-06,26.6625,0,1.7775,-2.18204E-05,26.6625,0
1.7784,-1.174945E-05,26.676,0,1.7784,-9.063859E-06,26.676,0
1.7793,7.385367E-06,26.6895,0,1.7793,-7.183947E-05,26.6895,0
1.7802,1.644922E-05,26.703,0,1.7802,-4.49836E-05,26.703,0
1.7811,-1.275654E-05,26.7165,0,1.7811,1.745632E-05,26.7165,0
1.782,-5.035477E-06,26.73,0,1.782,1.577783E-05,26.73,0
1.7829,-2.349889E-06,26.7435,0,1.7829,-1.812772E-05,26.7435,0
1.7838,7.049668E-06,26.757,0,1.7838,-5.673304E-05,26.757,0
1.7847,8.392462E-06,26.7705,0,1.7847,-4.53193E-05,26.7705,0
1.7856,1.678492E-06,26.784,0,1.7856,-3.961242E-05,26.784,0
1.7865,-3.356985E-07,26.7975,0,1.7865,-5.874724E-05,26.7975,0
1.7874,-1.712062E-05,26.811,0,1.7874,-6.378271E-06,26.811,0
1.7883,-3.927672E-05,26.8245,0,1.7883,2.21561E-05,26.8245,0
1.7892,-4.061952E-05,26.838,0,1.7892,-9.735256E-06,26.838,0
1.7901,-3.256275E-05,26.8515,0,1.7901,-4.33051E-05,26.8515,0
1.791,-2.24918E-05,26.865,0,1.791,-2.349889E-06,26.865,0
1.7919,2.21561E-05,26.8785,0,1.7919,-9.063859E-06,26.8785,0
1.7928,2.047761E-05,26.892,0,1.7928,-4.263371E-05,26.892,0
1.7937,2.316319E-05,26.9055,0,1.7937,-3.524834E-05,26.9055,0
1.7946,6.64683E-05,26.919,0,1.7946,-3.692683E-06,26.919,0
1.7955,6.076142E-05,26.9325,0,1.7955,-1.779202E-05,26.9325,0
1.7964,-9.063859E-06,26.946,0,1.7964,-2.383459E-05,26.946,0
1.7973,1.040665E-05,26.9595,0,1.7973,-3.860533E-05,26.9595,0
1.7982,1.510643E-05,26.973,0,1.7982,-1.007095E-05,26.973,0
1.7991,-4.733349E-05,26.9865,0,1.7991,1.577783E-05,26.9865,0
1.8,-5.337606E-05,27,0,1.8,-7.049668E-06,27,0
1.8009,-2.349889E-05,27.0135,0,1.8009,-1.309224E-05,27.0135,0
1.8018,-3.189136E-05,27.027,0,1.8018,1.309224E-05,27.027,0
1.8027,-2.383459E-05,27.0405,0,1.8027,8.392462E-06,27.0405,0
1.8036,-4.867628E-05,27.054,0,1.8036,-3.558404E-05,27.054,0
1.8045,-5.304036E-05,27.0675,0,1.8045,4.36408E-06,27.0675,0
1.8054,7.049668E-06,27.081,0,1.8054,-7.385367E-06,27.081,0
1.8063,-1.443504E-05,27.0945,0,1.8063,-4.599069E-05,27.0945,0
1.8072,-9.735256E-06,27.108,0,1.8072,-6.948959E-05,27.108,0
1.8081,-3.121996E-05,27.1215,0,1.8081,-2.316319E-05,27.1215,0
1.809,-2.819867E-05,27.135,0,1.809,-5.371176E-06,27.135,0
1.8099,-2.349889E-06,27.1485,0,1.8099,-5.706874E-06,27.1485,0
1.8108,3.356985E-07,27.162,0,1.8108,-3.726253E-05,27.162,0
1.8117,-1.812772E-05,27.1755,0,1.8117,-3.222705E-05,27.1755,0
1.8126,-4.733349E-05,27.189,0,1.8126,5.706874E-06,27.189,0
1.8135,4.699779E-06,27.2025,0,1.8135,-1.779202E-05,27.2025,0
1.8144,2.652018E-05,27.216,0,1.8144,-2.752728E-05,27.216,0
1.8153,-2.1149E-05,27.2295,0,1.8153,-3.021286E-06,27.2295,0
1.8162,-5.102617E-05,27.243,0,1.8162,-6.713969E-06,27.243,0
1.8171,-2.047761E-05,27.2565,0,1.8171,-3.793393E-05,27.2565,0
