X[s],"Trigno IM sensor 3: EMG 3 (IM)",X[s],"Trigno IM sensor 3: Mag 3.Z (IM)",X[s],"Trigno IM sensor 4: EMG 4 (IM)",X[s],"Trigno IM sensor 4: Mag 4.Z (IM)"
0.000000,7.721065E-06,0.000000,120,0.000000,-1.980621E-05,0.000000,-1
0.0009,-2.21561E-05,0.0135,120,0.0009,1.510643E-05,0.0135,-2
0.0018,-8.392462E-06,0.027,120,0.0018,2.1149E-05,0.027,2
0.0027,2.18204E-05,0.0405,120,0.0027,2.316319E-05,0.0405,-1
0.0036,9.735256E-06,0.054,120,0.0036,1.242084E-05,0.054,0
0.0045,-1.913481E-05,0.0675,119,0.0045,1.544213E-05,0.0675,0
0.0054,-5.706874E-06,0.081,119,0.0054,-3.356985E-07,0.081,1
0.0063,9.735256E-06,0.0945,118,0.0063,-3.356985E-06,0.0945,5
0.0072,-1.242084E-05,0.108,119,0.0072,-7.385367E-06,0.108,0
0.0081,-2.28275E-05,0.1215,119,0.0081,-5.371176E-06,0.1215,0
0.009000001,-1.577783E-05,0.135,118,0.009000001,-2.719158E-05,0.135,-3
0.0099,-7.721065E-06,0.1485,119,0.0099,0,0.1485,1
0.0108,-3.054856E-05,0.162,120,0.0108,-1.208515E-05,0.162,0
0.0117,3.457694E-05,0.1755,118,0.0117,-2.584878E-05,0.1755,-1
0.0126,1.577783E-05,0.189,120,0.0126,-9.399558E-06,0.189,1
0.0135,2.349889E-06,0.2025,119,0.0135,-2.047761E-05,0.2025,-1
0.0144,1.040665E-05,0.216,117,0.0144,-4.632639E-05,0.216,1
0.0153,2.047761E-05,0.2295,119,0.0153,-3.793393E-05,0.2295,1
0.0162,1.309224E-05,0.243,119,0.0162,-2.584878E-05,0.243,1
0.0171,5.706874E-06,0.2565,118,0.0171,-2.24918E-05,0.2565,-1
0.018,1.846342E-05,0.27,118,0.018,-4.565499E-05,0.27,0
0.0189,3.692683E-06,0.2835,118,0.0189,-4.901198E-05,0.2835,0
0.0198,-1.644922E-05,0.297,118,0.0198,-1.712062E-05,0.297,4
0.0207,-8.392462E-06,0.3105,119,0.0207,-3.121996E-05,0.3105,1
0.0216,-1.980621E-05,0.324,120,0.0216,-2.24918E-05,0.324,0
0.0225,-3.256275E-05,0.3375,119,0.0225,-1.913481E-05,0.3375,-1
0.0234,-3.692683E-05,0.351,118,0.0234,-2.383459E-05,0.351,0
0.0243,-6.210422E-05,0.3645,119,0.0243,-1.947051E-05,0.3645,0
0.0252,-5.539025E-05,0.378,119,0.0252,-1.107805E-05,0.378,0
0.0261,-5.941863E-05,0.3915,119,0.0261,-3.524834E-05,0.3915,2
0.027,-3.424125E-05,0.405,118,0.027,-3.189136E-05,0.405,0
0.0279,-1.141375E-05,0.4185,120,0.0279,-3.591974E-05,0.4185,0
0.0288,-2.719158E-05,0.432,119,0.0288,-4.46479E-05,0.432,-1
0.0297,6.378271E-06,0.4455,118,0.0297,-2.081331E-05,0.4455,0
0.0306,3.826963E-05,0.459,118,0.0306,-1.712062E-05,0.459,3
0.0315,1.577783E-05,0.4725,120,0.0315,-4.666209E-05,0.4725,1
0.0324,2.719158E-05,0.486,119,0.0324,-6.948959E-05,0.486,0
0.0333,4.699779E-06,0.4995,118,0.0333,-2.1149E-05,0.4995,0
0.0342,-2.1149E-05,0.513,118,0.0342,-2.24918E-05,0.513,0
0.0351,6.042573E-06,0.5265,118,0.0351,-7.855344E-05,0.5265,-3
0.036,1.510643E-05,0.54,118,0.036,-1.242084E-05,0.54,0
0.0369,-2.383459E-05,0.5535,117,0.0369,3.390555E-05,0.5535,0
0.0378,-4.061952E-05,0.567,117,0.0378,-4.666209E-05,0.567,-2
0.0387,1.577783E-05,0.5805,117,0.0387,-1.275654E-05,0.5805,-1
0.0396,3.021286E-06,0.594,116,0.0396,3.189136E-05,0.594,3
0.0405,-5.706874E-06,0.6075,119,0.0405,2.719158E-05,0.6075,0
0.0414,-1.678492E-06,0.621,118,0.0414,3.021286E-06,0.621,0
0.0423,-1.644922E-05,0.6345,119,0.0423,-4.061952E-05,0.6345,-2
0.0432,-3.021286E-06,0.648,117,0.0432,-1.443504E-05,0.648,0
0.0441,-4.46479E-05,0.6615,118,0.0441,-1.510643E-05,0.6615,1
0.045,-2.786297E-05,0.675,118,0.045,-5.136187E-05,0.675,0
0.0459,-3.256275E-05,0.6885,117,0.0459,-5.505455E-05,0.6885,-1
0.0468,-3.491264E-05,0.702,119,0.0468,2.1149E-05,0.702,0
0.0477,-3.692683E-06,0.7155,119,0.0477,-1.309224E-05,0.7155,-1
0.0486,-3.323415E-05,0.729,119,0.0486,-5.203327E-05,0.729,-1
0.0495,-2.551309E-05,0.7425,119,0.0495,-3.356985E-07,0.7425,-1
0.0504,4.028382E-05,0.756,118,0.0504,1.980621E-05,0.756,-2
0.0513,1.040665E-05,0.7695,117,0.0513,-3.088426E-05,0.7695,0
0.0522,-8.728161E-06,0.783,118,0.0522,-1.275654E-05,0.783,-2
0.0531,-7.721065E-06,0.7965,120,0.0531,2.584878E-05,0.7965,0
0.054,-6.378271E-06,0.81,119,0.054,-4.028382E-06,0.81,-1
0.0549,1.309224E-05,0.8235,118,0.0549,-1.040665E-05,0.8235,0
0.0558,2.1149E-05,0.837,117,0.0558,-2.349889E-05,0.837,0
0.0567,5.069047E-05,0.8505,118,0.0567,-1.712062E-05,0.8505,-3
0.0576,2.383459E-05,0.864,118,0.0576,-2.551309E-05,0.864,0
0.0585,1.141375E-05,0.8775,117,0.0585,-3.659113E-05,0.8775,-1
0.0594,9.735256E-06,0.891,118,0.0594,-4.129091E-05,0.891,-3
0.0603,6.713969E-06,0.9045,118,0.0603,1.611353E-05,0.9045,-2
0.0612,2.047761E-05,0.918,118,0.0612,-2.349889E-06,0.918,-3
0.0621,2.652018E-05,0.9315,118,0.0621,-6.51255E-05,0.9315,0
0.063,0,0.945,118,0.063,1.007095E-06,0.945,0
0.0639,-2.987716E-05,0.9585,119,0.0639,1.577783E-05,0.9585,-1
0.0648,-4.36408E-06,0.972,119,0.0648,-1.712062E-05,0.972,0
0.0657,-9.063859E-06,0.9855,120,0.0657,1.275654E-05,0.9855,0
0.0666,-4.33051E-05,0.999,119,0.0666,4.129091E-05,0.999,-2
0.0675,-3.289845E-05,1.0125,118,0.0675,2.584878E-05,1.0125,-1
0.0684,-3.390555E-05,1.026,119,0.0684,-1.107805E-05,1.026,-1
0.0693,-1.174945E-05,1.0395,119,0.0693,-3.793393E-05,1.0395,0
0.0702,2.517739E-05,1.053,119,0.0702,-5.706874E-06,1.053,-1
0.0711,-5.706874E-06,1.0665,119,0.0711,-1.275654E-05,1.0665,-1
0.072,-2.719158E-05,1.08,119,0.072,-6.57969E-05,1.08,-3
0.0729,-7.049668E-06,1.0935,120,0.0729,-6.74754E-05,1.0935,0
0.07380001,-1.342794E-06,1.107,120,0.07380001,-6.378271E-06,1.107,-4
0.07470001,-7.049668E-06,1.1205,121,0.07470001,-1.141375E-05,1.1205,-1
0.0756,-3.390555E-05,1.134,119,0.0756,-7.553216E-05,1.134,0
0.0765,-1.913481E-05,1.1475,119,0.0765,8.728161E-06,1.1475,2
0.0774,-3.021286E-06,1.161,122,0.0774,1.913481E-05,1.161,-1
0.0783,-1.678492E-05,1.1745,120,0.0783,-3.759823E-05,1.1745,0
0.0792,-3.356985E-07,1.188,122,0.0792,-3.256275E-05,1.188,-2
0.0801,-2.484169E-05,1.2015,121,0.0801,1.443504E-05,1.2015,-1
0.081,-2.484169E-05,1.215,120,0.081,-1.242084E-05,1.215,0
0.0819,-5.706874E-06,1.2285,122,0.0819,-2.517739E-05,1.2285,-1
0.0828,-1.007095E-06,1.242,121,0.0828,-5.136187E-05,1.242,-1
0.0837,-3.021286E-06,1.2555,122,0.0837,-1.879912E-05,1.2555,0
0.0846,-3.356985E-07,1.269,122,0.0846,2.618448E-05,1.269,1
0.0855,1.644922E-05,1.2825,122,0.0855,-1.577783E-05,1.2825,-1
0.0864,-1.644922E-05,1.296,120,0.0864,-3.121996E-05,1.296,-1
0.0873,-3.021286E-05,1.3095,121,0.0873,1.577783E-05,1.3095,0
0.0882,-3.692683E-06,1.323,122,0.0882,1.342794E-06,1.323,-2
0.0891,-6.378271E-06,1.3365,122,0.0891,-5.606165E-05,1.3365,0
0.09,-1.376364E-05,1.35,121,0.09,6.042573E-06,1.35,0
0.0909,1.477073E-05,1.3635,122,0.0909,9.063859E-06,1.3635,0
0.0918,-8.392462E-06,1.377,121,0.0918,-5.572595E-05,1.377,-1
0.0927,1.510643E-05,1.3905,121,0.0927,-4.800488E-05,1.3905,0
0.0936,6.042573E-06,1.404,122,0.0936,-1.678492E-06,1.404,1
0.09450001,1.678492E-06,1.4175,121,0.09450001,-1.208515E-05,1.4175,0
0.09540001,2.014191E-05,1.431,122,0.09540001,-2.18204E-05,1.431,-2
0.09630001,3.054856E-05,1.4445,123,0.09630001,-3.524834E-05,1.4445,0
0.0972,4.46479E-05,1.458,123,0.0972,-2.853437E-05,1.458,2
0.0981,-4.33051E-05,1.4715,123,0.0981,-3.793393E-05,1.4715,0
0.099,-5.505455E-05,1.485,124,0.099,-6.210422E-05,1.485,-2
0.0999,-2.21561E-05,1.4985,123,0.0999,-6.51255E-05,1.4985,0
0.1008,-2.450599E-05,1.512,123,0.1008,7.721065E-06,1.512,1
0.1017,-3.189136E-05,1.5255,121,0.1017,-3.390555E-05,1.5255,0
0.1026,-1.644922E-05,1.539,122,0.1026,-9.365987E-05,1.539,0
0.1035,-2.316319E-05,1.5525,122,0.1035,-6.042573E-06,1.5525,3
0.1044,-6.713969E-07,1.566,120,0.1044,2.21561E-05,1.566,-2
0.1053,0,1.5795,121,0.1053,-3.424125E-05,1.5795,0
0.1062,-1.712062E-05,1.593,123,0.1062,-5.371176E-06,1.593,0
0.1071,-4.733349E-05,1.6065,122,0.1071,2.450599E-05,1.6065,0
0.108,-2.18204E-05,1.62,122,0.108,-6.042573E-06,1.62,0
0.1089,-1.678492E-06,1.6335,122,0.1089,-5.706874E-06,1.6335,-1
0.1098,-7.721065E-06,1.647,123,0.1098,-4.867628E-05,1.647,1
0.1107,5.035477E-06,1.6605,121,0.1107,-5.371176E-06,1.6605,2
0.1116,4.129091E-05,1.674,121,0.1116,1.577783E-05,1.674,-1
0.1125,7.385367E-06,1.6875,121,0.1125,-8.728161E-06,1.6875,-1
0.1134,1.443504E-05,1.701,122,0.1134,-5.304036E-05,1.701,1
0.1143,3.289845E-05,1.7145,120,0.1143,3.356985E-07,1.7145,0
0.1152,-1.007095E-06,1.728,122,0.1152,-1.342794E-06,1.728,-1
0.1161,1.678492E-06,1.7415,120,0.1161,-6.848249E-05,1.7415,-1
0.117,1.846342E-05,1.755,119,0.117,-1.208515E-05,1.755,0
0.1179,-1.242084E-05,1.7685,120,0.1179,-9.399558E-06,1.7685,0
0.1188,-3.256275E-05,1.782,121,0.1188,-6.64683E-05,1.782,0
0.1197,-5.069047E-05,1.7955,122,0.1197,-3.591974E-05,1.7955,-1
0.1206,-3.659113E-05,1.809,121,0.1206,2.349889E-05,1.809,-1
0.1215,-4.666209E-05,1.8225,122,0.1215,-3.021286E-06,1.8225,-2
0.1224,-3.323415E-05,1.836,122,0.1224,-2.21561E-05,1.836,-1
0.1233,-6.713969E-06,1.8495,122,0.1233,-4.632639E-05,1.8495,-1
0.1242,3.021286E-06,1.863,123,0.1242,-3.692683E-06,1.863,0
0.1251,3.927672E-05,1.8765,121,0.1251,8.392462E-06,1.8765,2
0.126,3.054856E-05,1.89,122,0.126,-3.961242E-05,1.89,0
0.1269,1.879912E-05,1.9035,120,0.1269,-4.867628E-05,1.9035,1
0.1278,9.735256E-06,1.917,122,0.1278,2.920577E-05,1.917,2
0.1287,-3.692683E-06,1.9305,121,0.1287,1.141375E-05,1.9305,0
0.1296,-2.484169E-05,1.944,121,0.1296,-5.236896E-05,1.944,0
0.1305,-1.846342E-05,1.9575,122,0.1305,1.712062E-05,1.9575,-1
0.1314,-3.659113E-05,1.971,122,0.1314,1.947051E-05,1.971,0
0.1323,-4.39765E-05,1.9845,121,0.1323,-2.584878E-05,1.9845,1
0.1332,-4.061952E-05,1.998,121,0.1332,-4.934768E-05,1.998,-1
0.1341,-3.927672E-05,2.0115,120,0.1341,-1.275654E-05,2.0115,0
0.135,-1.275654E-05,2.025,120,0.135,-9.735256E-06,2.025,0
0.1359,-9.399558E-06,2.0385,121,0.1359,-2.081331E-05,2.0385,1
0.1368,-7.385367E-06,2.052,120,0.1368,-5.069047E-05,2.052,1
0.1377,-3.356985E-07,2.0655,120,0.1377,-2.685588E-05,2.0655,3
0.1386,-1.409934E-05,2.079,122,0.1386,1.409934E-05,2.079,0
0.1395,-3.491264E-05,2.0925,121,0.1395,-1.208515E-05,2.0925,1
0.1404,1.342794E-06,2.106,121,0.1404,-3.826963E-05,2.106,0
0.1413,-1.309224E-05,2.1195,121,0.1413,2.920577E-05,2.1195,0
0.1422,-3.390555E-05,2.133,122,0.1422,9.063859E-06,2.133,1
0.1431,-7.385367E-06,2.1465,121,0.1431,-6.076142E-05,2.1465,0
0.144,7.385367E-06,2.16,122,0.144,1.678492E-06,2.16,0
0.1449,6.042573E-06,2.1735,121,0.1449,1.040665E-05,2.1735,0
0.1458,6.713969E-07,2.187,120,0.1458,-6.814679E-05,2.187,-1
0.1467,5.203327E-05,2.2005,120,0.1467,-3.927672E-05,2.2005,1
0.1476,1.913481E-05,2.214,120,0.1476,7.721065E-06,2.214,1
0.1485,1.107805E-05,2.2275,121,0.1485,-7.385367E-06,2.2275,1
0.1494,2.1149E-05,2.241,122,0.1494,-2.383459E-05,2.241,2
0.1503,7.049668E-06,2.2545,121,0.1503,-5.203327E-05,2.2545,-1
0.1512,8.056763E-06,2.268,121,0.1512,5.706874E-06,2.268,1
0.1521,-1.242084E-05,2.2815,121,0.1521,2.752728E-05,2.2815,-1
0.153,-5.169757E-05,2.295,122,0.153,-2.685588E-05,2.295,0
0.1539,-3.491264E-05,2.3085,122,0.1539,-4.061952E-05,2.3085,0
0.1548,-3.256275E-05,2.322,122,0.1548,5.706874E-06,2.322,1
0.1557,-2.21561E-05,2.3355,120,0.1557,-1.779202E-05,2.3355,2
0.1566,-1.242084E-05,2.349,120,0.1566,-6.948959E-05,2.349,1
0.1575,-1.309224E-05,2.3625,122,0.1575,-4.699779E-06,2.3625,2
0.1584,2.853437E-05,2.376,120,0.1584,1.174945E-05,2.376,0
0.1593,-1.107805E-05,2.3895,123,0.1593,-5.639734E-05,2.3895,1
0.1602,5.035477E-06,2.403,122,0.1602,-3.591974E-05,2.403,2
0.1611,2.618448E-05,2.4165,122,0.1611,5.035477E-06,2.4165,0
0.162,2.450599E-05,2.43,120,0.162,-2.18204E-05,2.43,1
0.1629,2.920577E-05,2.4435,122,0.1629,-1.107805E-05,2.4435,0
0.1638,3.390555E-05,2.457,121,0.1638,-4.632639E-05,2.457,2
0.1647,9.735256E-06,2.4705,122,0.1647,-2.349889E-05,2.4705,3
0.1656,-6.210422E-05,2.484,121,0.1656,1.040665E-05,2.484,0
0.1665,-4.46479E-05,2.4975,121,0.1665,-1.913481E-05,2.4975,1
0.1674,-3.256275E-05,2.511,123,0.1674,-4.599069E-05,2.511,1
0.1683,-2.786297E-05,2.5245,122,0.1683,4.263371E-05,2.5245,2
0.1692,-1.376364E-05,2.538,122,0.1692,3.692683E-06,2.538,2
0.1701,1.947051E-05,2.5515,122,0.1701,-7.351797E-05,2.5515,1
0.171,1.107805E-05,2.565,122,0.171,1.678492E-06,2.565,0
0.1719,6.378271E-06,2.5785,121,0.1719,2.014191E-06,2.5785,0
0.1728,4.36408E-06,2.592,122,0.1728,-6.378271E-05,2.592,0
0.1737,4.800488E-05,2.6055,121,0.1737,-3.826963E-05,2.6055,1
0.1746,1.107805E-05,2.619,122,0.1746,1.174945E-05,2.619,2
0.1755,-4.36408E-06,2.6325,121,0.1755,-2.014191E-06,2.6325,1
0.1764,5.035477E-06,2.646,121,0.1764,-1.712062E-05,2.646,1
0.1773,8.392462E-06,2.6595,122,0.1773,-3.323415E-05,2.6595,0
0.1782,7.721065E-06,2.673,121,0.1782,-1.846342E-05,2.673,-1
0.1791,-1.544213E-05,2.6865,123,0.1791,1.577783E-05,2.6865,4
0.18,-1.678492E-06,2.7,122,0.18,-2.450599E-05,2.7,0
0.1809,-2.014191E-06,2.7135,121,0.1809,-6.74754E-05,2.7135,0
0.1818,-5.706874E-06,2.727,122,0.1818,-1.376364E-05,2.727,1
0.1827,-3.356985E-06,2.7405,120,0.1827,-7.721065E-06,2.7405,4
0.1836,-2.21561E-05,2.754,122,0.1836,-6.915389E-05,2.754,2
0.1845,-3.457694E-05,2.7675,121,0.1845,-3.356985E-06,2.7675,2
0.1854,-4.129091E-05,2.781,122,0.1854,-3.356985E-06,2.781,0
0.1863,-3.457694E-05,2.7945,121,0.1863,-6.210422E-05,2.7945,2
0.1872,3.356985E-07,2.808,120,0.1872,-7.721065E-06,2.808,0
0.1881,-3.121996E-05,2.8215,121,0.1881,2.584878E-05,2.8215,3
0.189,-2.987716E-05,2.835,121,0.189,-1.107805E-05,2.835,1
0.1899,2.349889E-06,2.8485,122,0.1899,-2.584878E-05,2.8485,1
0.1908,-1.846342E-05,2.862,122,0.1908,-5.807584E-05,2.862,2
0.1917,2.014191E-06,2.8755,122,0.1917,-2.517739E-05,2.8755,1
0.1926,-3.591974E-05,2.889,122,0.1926,-1.678492E-06,2.889,0
0.1935,-4.229801E-05,2.9025,122,0.1935,-4.632639E-05,2.9025,0
0.1944,-3.289845E-05,2.916,121,0.1944,-5.203327E-05,2.916,3
0.1953,-2.920577E-05,2.9295,121,0.1953,2.24918E-05,2.9295,0
0.1962,2.349889E-06,2.943,120,0.1962,2.383459E-05,2.943,0
0.1971,-3.021286E-06,2.9565,121,0.1971,-5.270466E-05,2.9565,0
0.198,0,2.97,120,0.198,8.728161E-06,2.97,1
0.1989,4.53193E-05,2.9835,121,0.1989,7.721065E-06,2.9835,4
0.1998,2.584878E-05,2.997,121,0.1998,-4.599069E-05,2.997,1
0.2007,-4.39765E-05,3.0105,121,0.2007,-8.023193E-05,3.0105,2
0.2016,-3.793393E-05,3.024,121,0.2016,-4.028382E-05,3.024,0
0.2025,-3.994812E-05,3.0375,121,0.2025,-1.846342E-05,3.0375,1
0.2034,-2.786297E-05,3.051,122,0.2034,-1.913481E-05,3.051,-2
0.2043,-5.706874E-06,3.0645,122,0.2043,-4.834058E-05,3.0645,0
0.2052,3.558404E-05,3.078,122,0.2052,-1.745632E-05,3.078,0
0.2061,-1.242084E-05,3.0915,121,0.2061,-3.021286E-06,3.0915,1
0.207,-4.196231E-05,3.105,121,0.207,-4.666209E-05,3.105,0
0.2079,-2.014191E-06,3.1185,0,0.2079,-4.39765E-05,3.1185,0
0.2088,-1.510643E-05,3.132,0,0.2088,2.24918E-05,3.132,0
0.2097,-1.443504E-05,3.1455,0,0.2097,-7.385367E-06,3.1455,0
0.2106,3.692683E-06,3.159,0,0.2106,-6.948959E-05,3.159,0
0.2115,-7.049668E-06,3.1725,0,0.2115,1.678492E-05,3.1725,0
0.2124,5.035477E-06,3.186,0,0.2124,2.18204E-05,3.186,0
0.2133,8.056763E-06,3.1995,0,0.2133,-3.390555E-05,3.1995,0
0.2142,-1.678492E-06,3.213,0,0.2142,4.36408E-06,3.213,0
0.2151,-7.049668E-06,3.2265,0,0.2151,2.987716E-05,3.2265,0
0.216,7.721065E-06,3.24,0,0.216,1.712062E-05,3.24,0
0.2169,2.920577E-05,3.2535,0,0.2169,-6.713969E-07,3.2535,0
0.2178,-2.18204E-05,3.267,0,0.2178,-4.934768E-05,3.267,0
0.2187,-4.028382E-06,3.2805,0,0.2187,-9.735256E-06,3.2805,0
0.2196,-3.356985E-06,3.294,0,0.2196,1.577783E-05,3.294,0
0.2205,-2.417029E-05,3.3075,0,0.2205,-1.141375E-05,3.3075,0
0.2214,-4.699779E-06,3.321,0,0.2214,-5.304036E-05,3.321,0
0.2223,9.063859E-06,3.3345,0,0.2223,1.007095E-05,3.3345,0
0.2232,-1.678492E-05,3.348,0,0.2232,1.141375E-05,3.348,0
0.2241,1.040665E-05,3.3615,0,0.2241,-5.236896E-05,3.3615,0
0.225,4.632639E-05,3.375,0,0.225,-1.678492E-06,3.375,0
0.2259,2.14847E-05,3.3885,0,0.2259,1.242084E-05,3.3885,0
0.2268,1.174945E-05,3.402,0,0.2268,-4.867628E-05,3.402,0
0.2277,1.913481E-05,3.4155,0,0.2277,-5.001907E-05,3.4155,0
0.2286,9.735256E-06,3.429,0,0.2286,-4.36408E-06,3.429,0
0.2295,-1.510643E-05,3.4425,0,0.2295,-1.980621E-05,3.4425,0
0.2304,2.685588E-06,3.456,0,0.2304,-2.047761E-05,3.456,0
0.2313,1.141375E-05,3.4695,0,0.2313,-4.46479E-05,3.4695,0
0.2322,-1.980621E-05,3.483,0,0.2322,-3.356985E-07,3.483,0
0.2331,-6.51255E-05,3.4965,0,0.2331,-2.349889E-06,3.4965,0
0.234,-2.18204E-05,3.51,0,0.234,-4.263371E-05,3.51,0
0.2349,-7.721065E-06,3.5235,0,0.2349,-5.706874E-05,3.5235,0
0.2358,-1.544213E-05,3.537,0,0.2358,3.692683E-06,3.537,0
0.2367,-1.376364E-05,3.5505,0,0.2367,-3.155566E-05,3.5505,0
0.2376,-2.450599E-05,3.564,0,0.2376,-8.795301E-05,3.564,0
0.2385,-4.46479E-05,3.5775,0,0.2385,-5.371176E-06,3.5775,0
0.2394,9.399558E-06,3.591,0,0.2394,2.383459E-05,3.591,0
0.2403,2.450599E-05,3.6045,0,0.2403,-2.316319E-05,3.6045,0
0.2412,-4.934768E-05,3.618,0,0.2412,-2.517739E-05,3.618,0
0.2421,-2.417029E-05,3.6315,0,0.2421,1.745632E-05,3.6315,0
0.243,-2.349889E-06,3.645,0,0.243,-1.309224E-05,3.645,0
0.2439,-2.383459E-05,3.6585,0,0.2439,-1.510643E-05,3.6585,0
0.2448,-1.107805E-05,3.672,0,0.2448,-4.229801E-05,3.672,0
0.2457,7.049668E-06,3.6855,0,0.2457,-1.644922E-05,3.6855,0
0.2466,-1.980621E-05,3.699,0,0.2466,-1.443504E-05,3.699,0
0.2475,-2.920577E-05,3.7125,0,0.2475,-4.095522E-05,3.7125,0
0.2484,-7.049668E-06,3.726,0,0.2484,-6.243992E-05,3.726,0
0.2493,-2.652018E-05,3.7395,0,0.2493,1.174945E-05,3.7395,0
0.2502,-1.678492E-05,3.753,0,0.2502,-3.356985E-06,3.753,0
0.2511,-5.035477E-06,3.7665,0,0.2511,-5.941863E-05,3.7665,0
0.252,1.846342E-05,3.78,0,0.252,8.392462E-06,3.78,0
0.2529,3.625543E-05,3.7935,0,0.2529,2.1149E-05,3.7935,0
0.2538,2.450599E-05,3.807,0,0.2538,-5.069047E-05,3.807,0
0.2547,-3.356985E-05,3.8205,0,0.2547,-1.174945E-05,3.8205,0
0.2556,-3.591974E-05,3.834,0,0.2556,1.846342E-05,3.834,0
0.2565,-6.378271E-06,3.8475,0,0.2565,9.063859E-06,3.8475,0
0.2574,1.174945E-05,3.861,0,0.2574,-4.028382E-06,3.861,0
0.2583,-7.385367E-06,3.8745,0,0.2583,-3.189136E-05,3.8745,0
0.2592,-1.342794E-06,3.888,0,0.2592,-7.385367E-06,3.888,0
0.2601,1.678492E-06,3.9015,0,0.2601,1.544213E-05,3.9015,0
0.261,-4.46479E-05,3.915,0,0.261,-2.652018E-05,3.915,0
0.2619,-1.846342E-05,3.9285,0,0.2619,-4.733349E-05,3.9285,0
0.2628,7.721065E-06,3.942,0,0.2628,5.706874E-06,3.942,0
0.2637,1.678492E-06,3.9555,0,0.2637,-1.376364E-05,3.9555,0
0.2646,-3.356985E-07,3.969,0,0.2646,-6.71397E-05,3.969,0
0.2655,-1.007095E-06,3.9825,0,0.2655,-2.819867E-05,3.9825,0
0.2664,3.692683E-05,3.996,0,0.2664,-1.107805E-05,3.996,0
0.2673,2.081331E-05,4.0095,0,0.2673,-8.090334E-05,4.0095,0
0.2682,-2.24918E-05,4.023,0,0.2682,-4.196231E-05,4.023,0
0.2691,1.678492E-06,4.0365,0,0.2691,-1.678492E-06,4.0365,0
0.27,-7.385367E-06,4.05,0,0.27,-1.174945E-05,4.05,0
0.2709,-3.524834E-05,4.0635,0,0.2709,-1.745632E-05,4.0635,0
0.2718,-2.887007E-05,4.077,0,0.2718,-5.035477E-05,4.077,0
0.2727,1.174945E-05,4.0905,0,0.2727,-1.779202E-05,4.0905,0
0.2736,-1.107805E-05,4.104,0,0.2736,1.644922E-05,4.104,0
0.2745,-9.735256E-06,4.1175,0,0.2745,-5.371176E-06,4.1175,0
0.2754,-3.021286E-06,4.131,0,0.2754,-3.054856E-05,4.131,0
0.2763,-3.793393E-05,4.1445,0,0.2763,2.316319E-05,4.1445,0
0.2772,-2.1149E-05,4.158,0,0.2772,3.356985E-07,4.158,0
0.2781,-4.36408E-06,4.1715,0,0.2781,-7.183947E-05,4.1715,0
0.279,-6.042573E-06,4.185,0,0.279,2.349889E-06,4.185,0
0.2799,5.169757E-05,4.1985,0,0.2799,1.779202E-05,4.1985,0
0.2808,5.035477E-06,4.212,0,0.2808,-4.599069E-05,4.212,0
0.2817,-1.510643E-05,4.2255,0,0.2817,-3.323415E-05,4.2255,0
0.2826,-2.081331E-05,4.239,0,0.2826,7.721065E-06,4.239,0
0.2835,-5.706874E-06,4.2525,0,0.2835,-3.356985E-06,4.2525,0
0.2844,-2.450599E-05,4.266,0,0.2844,-2.685588E-05,4.266,0
0.2853,-3.256275E-05,4.2795,0,0.2853,-5.069047E-05,4.2795,0
0.2862,7.721065E-06,4.293,0,0.2862,-6.378271E-06,4.293,0
0.2871,4.061952E-05,4.3065,0,0.2871,-1.745632E-05,4.3065,0
0.288,2.450599E-05,4.32,0,0.288,-4.061952E-05,4.32,0
0.2889,5.035477E-05,4.3335,0,0.2889,-4.599069E-05,4.3335,0
0.2898,1.678492E-06,4.347,0,0.2898,-3.356985E-06,4.347,0
0.2907,-2.18204E-05,4.3605,0,0.2907,-2.383459E-05,4.3605,0
0.2916,4.36408E-06,4.374,0,0.2916,-6.915389E-05,4.374,0
0.2925,6.713969E-07,4.3875,0,0.2925,1.141375E-05,4.3875,0
0.2934,-3.491264E-05,4.401,0,0.2934,2.920577E-05,4.401,0
0.2943,-3.591974E-05,4.4145,0,0.2943,-2.920577E-05,4.4145,0
0.2952,2.652018E-05,4.428,0,0.2952,-2.316319E-05,4.428,0
0.2961,-3.860533E-05,4.4415,0,0.2961,7.721065E-06,4.4415,0
0.297,-1.879912E-05,4.455,0,0.297,-1.577783E-05,4.455,0
0.2979,-1.242084E-05,4.4685,0,0.2979,-1.913481E-05,4.4685,0
0.2988,-1.577783E-05,4.482,0,0.2988,-4.800488E-05,4.482,0
0.2997,-9.399558E-06,4.4955,0,0.2997,-8.056763E-06,4.4955,0
0.3006,-7.721065E-06,4.509,0,0.3006,2.652018E-05,4.509,0
0.3015,1.712062E-05,4.5225,0,0.3015,-2.618448E-05,4.5225,0
0.3024,-1.510643E-05,4.536,0,0.3024,-5.471885E-05,4.536,0
0.3033,-2.786297E-05,4.5495,0,0.3033,-2.685588E-06,4.5495,0
0.3042,-6.378271E-06,4.563,0,0.3042,1.174945E-05,4.563,0
0.3051,-3.558404E-05,4.5765,0,0.3051,-6.445411E-05,4.5765,0
0.306,-1.309224E-05,4.59,0,0.306,7.721065E-06,4.59,0
0.3069,2.18204E-05,4.6035,0,0.3069,4.53193E-05,4.6035,0
0.3078,-1.376364E-05,4.617,0,0.3078,-5.438316E-05,4.617,0
0.3087,-5.337606E-05,4.6305,0,0.3087,-1.376364E-05,4.6305,0
0.3096,-3.793393E-05,4.644,0,0.3096,2.786297E-05,4.644,0
0.3105,-3.524834E-05,4.6575,0,0.3105,7.049668E-06,4.6575,0
0.3114,-2.517739E-05,4.671,0,0.3114,-1.644922E-05,4.671,0
0.3123,-4.699779E-06,4.6845,0,0.3123,-2.652018E-05,4.6845,0
0.3132,1.510643E-05,4.698,0,0.3132,-1.107805E-05,4.698,0
0.3141,-1.644922E-05,4.7115,0,0.3141,-2.517739E-05,4.7115,0
0.315,-3.256275E-05,4.725,0,0.315,-5.807584E-05,4.725,0
0.3159,-3.021286E-06,4.7385,0,0.3159,-6.78111E-05,4.7385,0
0.3168,-1.544213E-05,4.752,0,0.3168,1.678492E-06,4.752,0
0.3177,-6.378271E-06,4.7655,0,0.3177,-2.551309E-05,4.7655,0
0.3186,1.040665E-05,4.779,0,0.3186,-7.821774E-05,4.779,0
0.3195,-5.706874E-06,4.7925,0,0.3195,2.349889E-06,4.7925,0
0.3204,1.141375E-05,4.806,0,0.3204,1.141375E-05,4.806,0
0.3213,-7.721065E-06,4.8195,0,0.3213,-5.505455E-05,4.8195,0
0.3222,-3.524834E-05,4.833,0,0.3222,-2.047761E-05,4.833,0
0.3231,-2.24918E-05,4.8465,0,0.3231,4.699779E-06,4.8465,0
0.324,-1.242084E-05,4.86,0,0.324,-2.349889E-06,4.86,0
0.3249,5.035477E-06,4.8735,0,0.3249,-9.735256E-06,4.8735,0
0.3258,3.692683E-06,4.887,0,0.3258,-5.001907E-05,4.887,0
0.3267,4.061952E-05,4.9005,0,0.3267,-1.074235E-05,4.9005,0
0.3276,2.383459E-05,4.914,0,0.3276,2.383459E-05,4.914,0
0.3285,-1.846342E-05,4.9275,0,0.3285,-1.376364E-05,4.9275,0
0.3294,8.728161E-06,4.941,0,0.3294,-4.196231E-05,4.941,0
0.3303,2.819867E-05,4.9545,0,0.3303,1.342794E-05,4.9545,0
0.3312,-4.36408E-06,4.968,0,0.3312,2.685588E-06,4.968,0
0.3321,1.040665E-05,4.9815,0,0.3321,-7.251087E-05,4.9815,0
0.333,3.591974E-05,4.995,0,0.333,0,4.995,0
0.3339,3.289845E-05,5.0085,0,0.3339,-7.049668E-06,5.0085,0
0.3348,1.913481E-05,5.022,0,0.3348,-6.344701E-05,5.022,0
0.3357,-1.007095E-05,5.0355,0,0.3357,-1.980621E-05,5.0355,0
0.3366,-1.947051E-05,5.049,0,0.3366,2.1149E-05,5.049,0
0.3375,-2.652018E-05,5.0625,0,0.3375,-1.577783E-05,5.0625,0
0.3384,-5.035477E-06,5.076,0,0.3384,-2.18204E-05,5.076,0
0.3393,2.349889E-06,5.0895,0,0.3393,-5.337606E-05,5.0895,0
0.3402,-2.18204E-05,5.103,0,0.3402,-1.712062E-05,5.103,0
0.3411,5.706874E-06,5.1165,0,0.3411,-1.846342E-05,5.1165,0
0.342,1.846342E-05,5.13,0,0.342,-5.169757E-05,5.13,0
0.3429,-1.510643E-05,5.1435,0,0.3429,-4.666209E-05,5.1435,0
0.3438,-2.987716E-05,5.157,0,0.3438,4.36408E-06,5.157,0
0.3447,-4.867628E-05,5.1705,0,0.3447,-1.846342E-05,5.1705,0
0.3456,-1.443504E-05,5.184,0,0.3456,-6.176852E-05,5.184,0
0.3465,1.745632E-05,5.1975,0,0.3465,1.007095E-05,5.1975,0
0.3474,-2.349889E-06,5.211,0,0.3474,2.920577E-05,5.211,0
0.3483,-3.155566E-05,5.2245,0,0.3483,-2.21561E-05,5.2245,0
0.3492,-5.438316E-05,5.238,0,0.3492,-4.46479E-05,5.238,0
0.3501,-3.826963E-05,5.2515,0,0.3501,6.042573E-06,5.2515,0
0.351,-1.644922E-05,5.265,0,0.351,-7.385367E-06,5.265,0
0.3519,-3.054856E-05,5.2785,0,0.3519,-2.652018E-05,5.2785,0
0.3528,-1.544213E-05,5.292,0,0.3528,-6.042573E-05,5.292,0
0.3537,8.056763E-06,5.3055,0,0.3537,-1.107805E-05,5.3055,0
0.3546,2.920577E-05,5.319,0,0.3546,4.129091E-05,5.319,0
0.3555,1.577783E-05,5.3325,0,0.3555,-6.042573E-06,5.3325,0
0.3564,1.040665E-05,5.346,0,0.3564,-3.625543E-05,5.346,0
0.3573,-3.356985E-07,5.3595,0,0.3573,2.21561E-05,5.3595,0
0.3582,-5.706874E-06,5.373,0,0.3582,8.728161E-06,5.373,0
0.3591,-6.713969E-07,5.3865,0,0.3591,-6.948959E-05,5.3865,0
0.36,-9.063859E-06,5.4,0,0.36,1.242084E-05,5.4,0
0.3609,-3.625543E-05,5.4135,0,0.3609,0,5.4135,0
0.3618,-3.323415E-05,5.427,0,0.3618,-7.083238E-05,5.427,0
0.3627,-2.24918E-05,5.4405,0,0.3627,-4.800488E-05,5.4405,0
0.3636,-3.927672E-05,5.454,0,0.3636,-1.007095E-06,5.454,0
0.3645,-2.21561E-05,5.4675,0,0.3645,-7.721065E-06,5.4675,0
0.3654,-6.713969E-07,5.481,0,0.3654,-3.659113E-05,5.481,0
0.3663,-1.712062E-05,5.4945,0,0.3663,-4.33051E-05,5.4945,0
0.3672,2.014191E-06,5.508,0,0.3672,5.371176E-06,5.508,0
0.3681,5.539025E-05,5.5215,0,0.3681,1.980621E-05,5.5215,0
0.369,9.063859E-06,5.535,0,0.369,-3.256275E-05,5.535,0
0.3699,-3.356985E-07,5.5485,0,0.3699,-5.035477E-05,5.5485,0
0.3708,6.042573E-06,5.562,0,0.3708,1.577783E-05,5.562,0
0.3717,-7.721065E-06,5.5755,0,0.3717,-1.577783E-05,5.5755,0
0.3726,-6.713969E-06,5.589,0,0.3726,-7.284657E-05,5.589,0
0.3735,7.721065E-06,5.6025,0,0.3735,-9.399558E-06,5.6025,0
0.3744,-2.987716E-05,5.616,0,0.3744,2.014191E-05,5.616,0
0.3753,-4.263371E-05,5.6295,0,0.3753,-3.424125E-05,5.6295,0
0.3762,2.014191E-05,5.643,0,0.3762,-1.879912E-05,5.643,0
0.3771,-7.385367E-06,5.6565,0,0.3771,1.309224E-05,5.6565,0
0.378,-2.517739E-05,5.67,0,0.378,-1.040665E-05,5.67,0
0.3789,9.063859E-06,5.6835,0,0.3789,-1.107805E-05,5.6835,0
0.3798,-1.544213E-05,5.697,0,0.3798,-5.136187E-05,5.697,0
0.3807,-4.766919E-05,5.7105,0,0.3807,-1.644922E-05,5.7105,0
0.3816,-1.980621E-05,5.724,0,0.3816,-8.728161E-06,5.724,0
0.3825,3.189136E-05,5.7375,0,0.3825,-5.270466E-05,5.7375,0
0.3834,5.035477E-06,5.751,0,0.3834,-8.023193E-05,5.751,0
0.3843,-1.712062E-05,5.7645,0,0.3843,-1.678492E-06,5.7645,0
0.3852,5.035477E-06,5.778,0,0.3852,-3.256275E-05,5.778,0
0.3861,2.1149E-05,5.7915,0,0.3861,-8.661021E-05,5.7915,0
0.387,-4.36408E-06,5.805,0,0.387,-1.846342E-05,5.805,0
0.3879,-3.021286E-06,5.8185,0,0.3879,2.853437E-05,5.8185,0
0.3888,-4.599069E-05,5.832,0,0.3888,-3.323415E-05,5.832,0
0.3897,-3.558404E-05,5.8455,0,0.3897,-2.786297E-05,5.8455,0
0.3906,-4.699779E-06,5.859,0,0.3906,2.383459E-05,5.859,0
0.3915,-2.18204E-05,5.8725,0,0.3915,-4.028382E-06,5.8725,0
0.3924,-2.652018E-05,5.886,0,0.3924,-2.786297E-05,5.886,0
0.3933,-7.721065E-06,5.8995,0,0.3933,-5.001907E-05,5.8995,0
0.3942,2.450599E-05,5.913,0,0.3942,-1.141375E-05,5.913,0
0.3951,0,5.9265,0,0.3951,2.18204E-05,5.9265,0
0.396,-6.344701E-05,5.94,0,0.396,-7.049668E-06,5.94,0
0.3969,-1.644922E-05,5.9535,0,0.3969,-3.961242E-05,5.9535,0
0.3978,-1.812772E-05,5.967,0,0.3978,1.644922E-05,5.967,0
0.3987,-4.36408E-06,5.9805,0,0.3987,6.378271E-06,5.9805,0
0.3996,3.323415E-05,5.994,0,0.3996,-6.378271E-05,5.994,0
0.4005,1.040665E-05,6.0075,0,0.4005,6.378271E-06,6.0075,0
0.4014,2.450599E-05,6.021,0,0.4014,1.007095E-06,6.021,0
0.4023,7.721065E-06,6.0345,0,0.4023,-5.169757E-05,6.0345,0
0.4032,-1.712062E-05,6.048,0,0.4032,-2.21561E-05,6.048,0
0.4041,-4.46479E-05,6.0615,0,0.4041,1.242084E-05,6.0615,0
0.405,-2.081331E-05,6.075,0,0.405,-6.713969E-07,6.075,0
0.4059,1.174945E-05,6.0885,0,0.4059,-2.685588E-06,6.0885,0
0.4068,-1.577783E-05,6.102,0,0.4068,-4.196231E-05,6.102,0
0.4077,1.846342E-05,6.1155,0,0.4077,-1.443504E-05,6.1155,0
0.4086,6.54612E-05,6.129,0,0.4086,-1.040665E-05,6.129,0
0.4095,2.081331E-05,6.1425,0,0.4095,-5.304036E-05,6.1425,0
0.4104,1.107805E-05,6.156,0,0.4104,-5.404745E-05,6.156,0
0.4113,8.392462E-06,6.1695,0,0.4113,1.577783E-05,6.1695,0
0.4122,-8.392462E-06,6.183,0,0.4122,5.035477E-06,6.183,0
0.4131,-9.063859E-06,6.1965,0,0.4131,-7.418937E-05,6.1965,0
0.414,9.063859E-06,6.21,0,0.414,6.378271E-06,6.21,0
0.4149,-2.14847E-05,6.2235,0,0.4149,1.712062E-05,6.2235,0
0.4158,-2.517739E-05,6.237,0,0.4158,-5.001907E-05,6.237,0
0.4167,7.049668E-06,6.2505,0,0.4167,-1.510643E-05,6.2505,0
0.4176,9.399558E-06,6.264,0,0.4176,1.376364E-05,6.264,0
0.4185,-8.728161E-06,6.2775,0,0.4185,9.735256E-06,6.2775,0
0.4194,-1.611353E-05,6.291,0,0.4194,-1.309224E-05,6.291,0
0.4203,1.007095E-06,6.3045,0,0.4203,-1.812772E-05,6.3045,0
0.4212,-1.678492E-06,6.318,0,0.4212,6.713969E-07,6.318,0
0.4221,-2.987716E-05,6.3315,0,0.4221,9.063859E-06,6.3315,0
0.423,-2.719158E-05,6.345,0,0.423,-3.927672E-05,6.345,0
0.4239,-3.591974E-05,6.3585,0,0.4239,-5.035477E-05,6.3585,0
0.4248,-2.652018E-05,6.372,0,0.4248,-3.356985E-07,6.372,0
0.4257,-3.021286E-06,6.3855,0,0.4257,-3.189136E-05,6.3855,0
0.4266,-3.021286E-06,6.399,0,0.4266,-8.157473E-05,6.399,0
0.4275,-6.713969E-07,6.4125,0,0.4275,1.477073E-05,6.4125,0
0.4284,9.063859E-06,6.426,0,0.4284,-5.706874E-06,6.426,0
0.4293,-1.376364E-05,6.4395,0,0.4293,-6.344701E-05,6.4395,0
0.4302,-1.510643E-05,6.453,0,0.4302,-4.028382E-06,6.453,0
0.4311,-2.685588E-05,6.4665,0,0.4311,1.879912E-05,6.4665,0
0.432,-2.1149E-05,6.48,0,0.432,7.049668E-06,6.48,0
0.4329,-2.28275E-05,6.4935,0,0.4329,-2.383459E-05,6.4935,0
0.4338,-1.376364E-05,6.507,0,0.4338,-4.095522E-05,6.507,0
0.4347,2.652018E-05,6.5205,0,0.4347,-4.36408E-06,6.5205,0
0.4356,4.599069E-05,6.534,0,0.4356,7.385367E-06,6.534,0
0.4365,1.712062E-05,6.5475,0,0.4365,-2.819867E-05,6.5475,0
0.4374,2.786297E-05,6.561,0,0.4374,-6.478981E-05,6.561,0
0.4383,-3.692683E-06,6.5745,0,0.4383,-1.678492E-06,6.5745,0
0.4392,-9.735256E-06,6.588,0,0.4392,8.728161E-06,6.588,0
0.4401,-3.692683E-05,6.6015,0,0.4401,-8.123904E-05,6.6015,0
0.441,-5.337606E-05,6.615,0,0.441,-2.618448E-05,6.615,0
0.4419,-4.834058E-05,6.6285,0,0.4419,-4.36408E-06,6.6285,0
0.4428,-3.961242E-05,6.642,0,0.4428,-5.001907E-05,6.642,0
0.4437,3.021286E-06,6.6555,0,0.4437,-1.712062E-05,6.6555,0
0.4446,-2.786297E-05,6.669,0,0.4446,4.36408E-06,6.669,0
0.4455,-2.349889E-05,6.6825,0,0.4455,-3.054856E-05,6.6825,0
0.4464,4.699779E-06,6.696,0,0.4464,-2.28275E-05,6.696,0
0.4473,-3.356985E-07,6.7095,0,0.4473,-5.069047E-05,6.7095,0
0.4482,2.014191E-06,6.723,0,0.4482,-3.356985E-06,6.723,0
0.4491,-4.36408E-06,6.7365,0,0.4491,-1.040665E-05,6.7365,0
0.45,-2.14847E-05,6.75,0,0.45,-4.53193E-05,6.75,0
0.4509,-1.309224E-05,6.7635,0,0.4509,-5.203327E-05,6.7635,0
0.4518,-1.577783E-05,6.777,0,0.4518,8.392462E-06,6.777,0
0.4527,-2.853437E-05,6.7905,0,0.4527,-6.713969E-06,6.7905,0
0.4536,-7.049668E-06,6.804,0,0.4536,-6.54612E-05,6.804,0
0.4545,3.356985E-07,6.8175,0,0.4545,-1.007095E-05,6.8175,0
0.4554,4.129091E-05,6.831,0,0.4554,2.618448E-05,6.831,0
0.4563,7.049668E-06,6.8445,0,0.4563,-1.510643E-05,6.8445,0
0.4572,2.652018E-05,6.858,0,0.4572,-2.719158E-05,6.858,0
0.4581,1.443504E-05,6.8715,0,0.4581,1.342794E-05,6.8715,0
0.459,9.063859E-06,6.885,0,0.459,-2.349889E-06,6.885,0
0.4599,3.692683E-06,6.8985,0,0.4599,-2.349889E-06,6.8985,0
0.4608,1.678492E-05,6.912,0,0.4608,-4.766919E-05,6.912,0
0.4617,-4.028382E-06,6.9255,0,0.4617,-2.584878E-05,6.9255,0
0.4626,-5.539025E-05,6.939,0,0.4626,4.699779E-06,6.939,0
0.4635,-3.121996E-05,6.9525,0,0.4635,-2.28275E-05,6.9525,0
0.4644,-4.162661E-05,6.966,0,0.4644,-5.774014E-05,6.966,0
0.4653,-3.826963E-05,6.9795,0,0.4653,1.812772E-05,6.9795,0
0.4662,-1.443504E-05,6.993,0,0.4662,-7.049668E-06,6.993,0
0.4671,1.678492E-06,7.0065,0,0.4671,-8.090334E-05,7.0065,0
0.468,1.376364E-05,7.02,0,0.468,2.786297E-05,7.02,0
0.4689,1.678492E-05,7.0335,0,0.4689,1.443504E-05,7.0335,0
0.4698,9.735256E-06,7.047,0,0.4698,-5.404745E-05,7.047,0
0.4707,4.36408E-06,7.0605,0,0.4707,-2.014191E-06,7.0605,0
0.4716,-4.36408E-06,7.074,0,0.4716,1.712062E-05,7.074,0
0.4725,2.1149E-05,7.0875,0,0.4725,-1.040665E-05,7.0875,0
0.4734,-1.678492E-06,7.101,0,0.4734,-1.611353E-05,7.101,0
0.4743,1.376364E-05,7.1145,0,0.4743,-4.061952E-05,7.1145,0
0.4752,4.46479E-05,7.128,0,0.4752,0,7.128,0
0.4761,-2.349889E-06,7.1415,0,0.4761,-3.155566E-05,7.1415,0
0.477,-4.196231E-05,7.155,0,0.477,-5.136187E-05,7.155,0
0.4779,-2.316319E-05,7.1685,0,0.4779,-6.076142E-05,7.1685,0
0.4788,-3.021286E-06,7.182,0,0.4788,7.721065E-06,7.182,0
0.4797,-1.678492E-05,7.1955,0,0.4797,-1.007095E-06,7.1955,0
0.4806,-1.242084E-05,7.209,0,0.4806,-6.378271E-05,7.209,0
0.4815,1.040665E-05,7.2225,0,0.4815,-2.349889E-06,7.2225,0
0.4824,3.323415E-05,7.236,0,0.4824,1.141375E-05,7.236,0
0.4833,2.24918E-05,7.2495,0,0.4833,-4.46479E-05,7.2495,0
0.4842,-3.826963E-05,7.263,0,0.4842,-2.316319E-05,7.263,0
0.4851,-3.189136E-05,7.2765,0,0.4851,3.021286E-06,7.2765,0
0.486,-3.256275E-05,7.29,0,0.486,-1.040665E-05,7.29,0
0.4869,-1.712062E-05,7.3035,0,0.4869,-7.721065E-06,7.3035,0
0.4878,-1.779202E-05,7.317,0,0.4878,-3.793393E-05,7.317,0
0.4887,-4.36408E-06,7.3305,0,0.4887,-2.349889E-06,7.3305,0
0.4896,1.678492E-06,7.344,0,0.4896,3.860533E-05,7.344,0
0.4905,3.692683E-06,7.3575,0,0.4905,-1.812772E-05,7.3575,0
0.4914,-1.040665E-05,7.371,0,0.4914,-4.46479E-05,7.371,0
0.4923,-3.356985E-07,7.3845,0,0.4923,3.021286E-05,7.3845,0
0.4932,6.713969E-06,7.398,0,0.4932,5.035477E-06,7.398,0
0.4941,-3.021286E-06,7.4115,0,0.4941,-6.61326E-05,7.4115,0
0.495,-3.356985E-07,7.425,0,0.495,5.706874E-06,7.425,0
0.4959,4.229801E-05,7.4385,0,0.4959,1.745632E-05,7.4385,0
0.4968,1.846342E-05,7.452,0,0.4968,-4.699779E-05,7.452,0
0.4977,-1.342794E-06,7.4655,0,0.4977,-3.424125E-05,7.4655,0
0.4986,-3.356985E-07,7.479,0,0.4986,3.390555E-05,7.479,0
0.4995,-2.517739E-05,7.4925,0,0.4995,1.174945E-05,7.4925,0
0.5004,-4.733349E-05,7.506,0,0.5004,-2.987716E-05,7.506,0
0.5013,-1.980621E-05,7.5195,0,0.5013,-5.673304E-05,7.5195,0
0.5022,1.913481E-05,7.533,0,0.5022,-1.577783E-05,7.533,0
0.5031,-3.390555E-05,7.5465,0,0.5031,8.728161E-06,7.5465,0
0.504,-3.356985E-06,7.56,0,0.504,-1.174945E-05,7.56,0
0.5049,3.021286E-06,7.5735,0,0.5049,-5.874724E-05,7.5735,0
0.5058,-4.867628E-05,7.587,0,0.5058,-1.309224E-05,7.587,0
0.5067,-3.659113E-05,7.6005,0,0.5067,-2.987716E-05,7.6005,0
0.5076,-1.007095E-06,7.614,0,0.5076,-6.814679E-05,7.614,0
0.5085,-2.047761E-05,7.6275,0,0.5085,-1.644922E-05,7.6275,0
0.5094,1.242084E-05,7.641,0,0.5094,-1.074235E-05,7.641,0
0.5103,1.510643E-05,7.6545,0,0.5103,-6.74754E-05,7.6545,0
0.5112,-2.517739E-05,7.668,0,0.5112,-5.337606E-05,7.668,0
0.5121,-4.162661E-05,7.6815,0,0.5121,-8.392462E-06,7.6815,0
0.513,-1.947051E-05,7.695,0,0.513,-3.021286E-06,7.695,0
0.5139,-2.887007E-05,7.7085,0,0.5139,-1.678492E-05,7.7085,0
0.5148,-5.001907E-05,7.722,0,0.5148,-6.243992E-05,7.722,0
0.5157,-3.021286E-06,7.7355,0,0.5157,-8.392462E-06,7.7355,0
0.5166,6.6804E-05,7.749,0,0.5166,3.659113E-05,7.749,0
0.5175,2.987716E-05,7.7625,0,0.5175,-2.047761E-05,7.7625,0
0.5184,2.719158E-05,7.776,0,0.5184,-4.263371E-05,7.776,0
0.5193,2.24918E-05,7.7895,0,0.5193,2.1149E-05,7.7895,0
0.5202,-5.035477E-06,7.803,0,0.5202,1.678492E-06,7.803,0
0.5211,-7.721065E-06,7.8165,0,0.5211,-6.009003E-05,7.8165,0
0.522,-2.1149E-05,7.83,0,0.522,2.1149E-05,7.83,0
0.5229,-4.46479E-05,7.8435,0,0.5229,3.121996E-05,7.8435,0
0.5238,-3.256275E-05,7.857,0,0.5238,-5.404745E-05,7.857,0
0.5247,-5.539025E-05,7.8705,0,0.5247,-5.706874E-06,7.8705,0
0.5256,-4.867628E-05,7.884,0,0.5256,1.577783E-05,7.884,0
0.5265,-6.311131E-05,7.8975,0,0.5265,-1.544213E-05,7.8975,0
0.5274,-3.793393E-05,7.911,0,0.5274,-1.242084E-05,7.911,0
0.5283,-1.141375E-05,7.9245,0,0.5283,-3.155566E-05,7.9245,0
0.5292,3.356985E-06,7.938,0,0.5292,-1.510643E-05,7.938,0
0.5301,-3.692683E-06,7.9515,0,0.5301,-2.719158E-05,7.9515,0
0.531,-1.477073E-05,7.965,0,0.531,-6.74754E-05,7.965,0
0.5319,-9.399558E-06,7.9785,0,0.5319,-6.814679E-05,7.9785,0
0.5328,8.728161E-06,7.992,0,0.5328,-4.36408E-06,7.992,0
0.5337,3.659113E-05,8.0055,0,0.5337,-1.510643E-05,8.0055,0
0.5346,1.342794E-06,8.019,0,0.5346,-6.311131E-05,8.019,0
0.5355,-7.385367E-06,8.0325,0,0.5355,-1.678492E-05,8.0325,0
0.5364,9.063859E-06,8.046,0,0.5364,-1.141375E-05,8.046,0
0.5373,6.378271E-06,8.0595,0,0.5373,-5.539025E-05,8.0595,0
0.5382,3.457694E-05,8.073,0,0.5382,-3.524834E-05,8.073,0
0.5391,1.309224E-05,8.0865,0,0.5391,1.007095E-06,8.0865,0
0.54,1.510643E-05,8.1,0,0.54,4.36408E-06,8.1,0
0.5409,-2.014191E-06,8.1135,0,0.5409,-1.947051E-05,8.1135,0
0.5418,-1.007095E-06,8.127,0,0.5418,-6.009003E-05,8.127,0
0.5427,2.014191E-05,8.1405,0,0.5427,-2.685588E-05,8.1405,0
0.5436,-1.174945E-05,8.154,0,0.5436,-1.712062E-05,8.154,0
0.5445,1.007095E-06,8.1675,0,0.5445,-4.229801E-05,8.1675,0
0.5454,3.054856E-05,8.181,0,0.5454,-6.277562E-05,8.181,0
0.5463,-1.443504E-05,8.1945,0,0.5463,5.035477E-06,8.1945,0
0.5472,-1.879912E-05,8.208,0,0.5472,-1.007095E-06,8.208,0
0.5481,1.443504E-05,8.2215,0,0.5481,-5.774014E-05,8.2215,0
0.549,-1.242084E-05,8.235,0,0.549,2.853437E-05,8.235,0
0.5499,-2.349889E-05,8.2485,0,0.5499,6.57969E-05,8.2485,0
0.5508,3.021286E-06,8.262,0,0.5508,7.721065E-06,8.262,0
0.5517,1.141375E-05,8.2755,0,0.5517,3.021286E-06,8.2755,0
0.5526,-1.980621E-05,8.289,0,0.5526,1.510643E-05,8.289,0
0.5535,-1.107805E-05,8.3025,0,0.5535,-1.242084E-05,8.3025,0
0.5544,-5.706874E-06,8.316,0,0.5544,-3.390555E-05,8.316,0
0.5553,-4.632639E-05,8.3295,0,0.5553,-7.016098E-05,8.3295,0
0.5562,-4.867628E-05,8.343,0,0.5562,-3.558404E-05,8.343,0
0.5571,-4.599069E-05,8.3565,0,0.5571,-2.047761E-05,8.3565,0
0.558,-3.860533E-05,8.37,0,0.558,-4.733349E-05,8.37,0
0.5589,-4.733349E-05,8.3835,0,0.5589,-4.263371E-05,8.3835,0
0.5598,-5.270466E-05,8.397,0,0.5598,-4.699779E-06,8.397,0
0.5607,-1.275654E-05,8.4105,0,0.5607,-1.007095E-05,8.4105,0
0.5616,-1.846342E-05,8.424,0,0.5616,-6.143282E-05,8.424,0
0.5625,-1.242084E-05,8.4375,0,0.5625,-6.378271E-06,8.4375,0
0.5634,2.551309E-05,8.451,0,0.5634,1.577783E-05,8.451,0
0.5643,1.846342E-05,8.4645,0,0.5643,-2.383459E-05,8.4645,0
0.5652,-1.846342E-05,8.478,0,0.5652,-2.719158E-05,8.478,0
0.5661,-3.558404E-05,8.4915,0,0.5661,2.517739E-05,8.4915,0
0.567,-1.913481E-05,8.505,0,0.567,3.491264E-05,8.505,0
0.5679,1.812772E-05,8.5185,0,0.5679,2.450599E-05,8.5185,0
0.5688,9.735256E-06,8.532,0,0.5688,-6.848249E-05,8.532,0
0.5697,-1.443504E-05,8.5455,0,0.5697,-1.980621E-05,8.5455,0
0.5706,-1.678492E-06,8.559,0,0.5706,3.054856E-05,8.559,0
0.5715,1.779202E-05,8.5725,0,0.5715,-2.18204E-05,8.5725,0
0.5724,1.846342E-05,8.586,0,0.5724,-7.956054E-05,8.586,0
0.5733,-1.947051E-05,8.5995,0,0.5733,2.1149E-05,8.5995,0
0.5742,5.035477E-06,8.613,0,0.5742,4.934768E-05,8.613,0
0.5751,1.947051E-05,8.6265,0,0.5751,-3.826963E-05,8.6265,0
0.576,2.987716E-05,8.64,0,0.576,3.961242E-05,8.64,0
0.5769,7.486076E-05,8.6535,0,0.5769,2.685588E-05,8.6535,0
0.5778,3.860533E-05,8.667,0,0.5778,-7.150377E-05,8.667,0
0.5787,-3.054856E-05,8.6805,0,0.5787,-5.941863E-05,8.6805,0
0.5796,-2.987716E-05,8.694,0,0.5796,4.36408E-06,8.694,0
0.5805,-9.735256E-06,8.7075,0,0.5805,-3.524834E-05,8.7075,0
0.5814,-1.040665E-05,8.721,0,0.5814,-3.558404E-05,8.721,0
0.5823,-6.713969E-07,8.7345,0,0.5823,-5.136187E-05,8.7345,0
0.5832,6.378271E-06,8.748,0,0.5832,-2.517739E-05,8.748,0
0.5841,-2.349889E-06,8.7615,0,0.5841,-4.699779E-06,8.7615,0
0.585,-9.735256E-06,8.775,0,0.585,-3.625543E-05,8.775,0
0.5859,1.846342E-05,8.7885,0,0.5859,-4.733349E-05,8.7885,0
0.5868,3.021286E-06,8.802,0,0.5868,6.243992E-05,8.802,0
0.5877,-2.987716E-05,8.8155,0,0.5877,9.097429E-05,8.8155,0
0.5886,-2.18204E-05,8.829,0,0.5886,-7.284657E-05,8.829,0
0.5895,-5.706874E-06,8.8425,0,0.5895,-3.289845E-05,8.8425,0
0.5904,-6.378271E-06,8.856,0,0.5904,-1.141375E-05,8.856,0
0.5913,1.007095E-06,8.8695,0,0.5913,-5.404745E-05,8.8695,0
0.5922,4.263371E-05,8.883,0,0.5922,-2.18204E-05,8.883,0
0.5931,-6.713969E-07,8.8965,0,0.5931,8.392462E-06,8.8965,0
0.594,-3.356985E-07,8.91,0,0.594,-4.699779E-06,8.91,0
0.5949,-3.021286E-06,8.9235,0,0.5949,-1.309224E-05,8.9235,0
0.5958,-2.584878E-05,8.937,0,0.5958,-5.539025E-05,8.937,0
0.5967,-4.229801E-05,8.9505,0,0.5967,-1.812772E-05,8.9505,0
0.5976,-3.860533E-05,8.964,0,0.5976,1.074235E-05,8.964,0
0.5985,5.035477E-06,8.9775,0,0.5985,-3.323415E-05,8.9775,0
0.5994,-6.378271E-06,8.991,0,0.5994,-3.927672E-05,8.991,0
0.6003,-1.644922E-05,9.0045,0,0.6003,2.18204E-05,9.0045,0
0.6012,2.685588E-06,9.018,0,0.6012,-1.644922E-05,9.018,0
0.6021,1.980621E-05,9.0315,0,0.6021,-7.150377E-05,9.0315,0
0.603,3.356985E-06,9.045,0,0.603,1.712062E-05,9.045,0
0.6039,-1.745632E-05,9.0585,0,0.6039,-7.049668E-06,9.0585,0
0.6048,-4.061952E-05,9.072001,0,0.6048,-0.0001003738,9.072001,0
0.6057,4.028382E-06,9.0855,0,0.6057,-6.57969E-05,9.0855,0
0.6066,-7.721065E-06,9.099,0,0.6066,3.021286E-06,9.099,0
0.6075,-4.632639E-05,9.1125,0,0.6075,-1.107805E-05,9.1125,0
0.6084,-3.356985E-05,9.126,0,0.6084,-2.652018E-05,9.126,0
0.6093,-2.1149E-05,9.1395,0,0.6093,-5.438316E-05,9.1395,0
0.6102,-1.913481E-05,9.153,0,0.6102,-2.584878E-05,9.153,0
0.6111,-5.136187E-05,9.1665,0,0.6111,-2.551309E-05,9.1665,0
0.612,-3.659113E-05,9.18,0,0.612,-4.733349E-05,9.18,0
0.6129,-1.913481E-05,9.1935,0,0.6129,-7.116808E-05,9.1935,0
0.6138,-3.927672E-05,9.207,0,0.6138,-2.014191E-06,9.207,0
0.6147,-3.927672E-05,9.2205,0,0.6147,-1.544213E-05,9.2205,0
0.6156,-9.399558E-06,9.234,0,0.6156,-6.411841E-05,9.234,0
0.6165,-2.517739E-05,9.2475,0,0.6165,-1.443504E-05,9.2475,0
0.6174,7.049668E-06,9.261,0,0.6174,1.174945E-05,9.261,0
0.6183,7.385367E-06,9.2745,0,0.6183,-3.121996E-05,9.2745,0
0.6192,1.879912E-05,9.288,0,0.6192,-4.162661E-05,9.288,0
0.6201,6.378271E-06,9.3015,0,0.6201,4.36408E-06,9.3015,0
0.621,1.510643E-05,9.315,0,0.621,-6.378271E-06,9.315,0
0.6219,7.721065E-06,9.3285,0,0.6219,-1.947051E-05,9.3285,0
0.6228,-1.678492E-06,9.342,0,0.6228,-4.095522E-05,9.342,0
0.6237,2.551309E-05,9.3555,0,0.6237,1.510643E-05,9.3555,0
0.6246,2.014191E-06,9.369,0,0.6246,3.121996E-05,9.369,0
0.6255,-1.644922E-05,9.3825,0,0.6255,-1.376364E-05,9.3825,0
0.6264,-1.107805E-05,9.396,0,0.6264,-1.745632E-05,9.396,0
0.6273,-1.913481E-05,9.4095,0,0.6273,4.46479E-05,9.4095,0
0.6282,-4.196231E-05,9.423,0,0.6282,8.392462E-06,9.423,0
0.6291,-4.028382E-06,9.4365,0,0.6291,-7.251087E-05,9.4365,0
0.63,2.450599E-05,9.45,0,0.63,-1.007095E-06,9.45,0
0.6309,4.800488E-05,9.4635,0,0.6309,4.699779E-06,9.4635,0
0.6318,3.088426E-05,9.477,0,0.6318,-6.344701E-05,9.477,0
0.6327,2.014191E-05,9.4905,0,0.6327,-1.644922E-05,9.4905,0
0.6336,1.678492E-05,9.504,0,0.6336,1.443504E-05,9.504,0
0.6345,-1.107805E-05,9.5175,0,0.6345,-7.721065E-06,9.5175,0
0.6354,1.712062E-05,9.531,0,0.6354,-6.713969E-06,9.531,0
0.6363,-1.342794E-06,9.5445,0,0.6363,-6.210422E-05,9.5445,0
0.6372,-3.323415E-05,9.558,0,0.6372,-6.076142E-05,9.558,0
0.6381,-5.740444E-05,9.5715,0,0.6381,-7.016098E-05,9.5715,0
0.639,-4.901198E-05,9.585,0,0.639,-0.0001003738,9.585,0
0.6399,-4.53193E-05,9.5985,0,0.6399,-8.761731E-05,9.5985,0
0.6408,-2.047761E-05,9.612,0,0.6408,-2.551309E-05,9.612,0
0.6417,-5.706874E-06,9.6255,0,0.6417,-5.639734E-05,9.6255,0
0.6426,-1.678492E-05,9.639,0,0.6426,-9.735256E-05,9.639,0
0.6435,-2.047761E-05,9.6525,0,0.6435,-1.678492E-05,9.6525,0
0.6444,1.846342E-05,9.666,0,0.6444,9.735256E-06,9.666,0
0.6453,2.786297E-05,9.6795,0,0.6453,-3.491264E-05,9.6795,0
0.6462,-2.752728E-05,9.693,0,0.6462,-1.644922E-05,9.693,0
0.6471,-2.417029E-05,9.7065,0,0.6471,7.687495E-05,9.7065,0
0.648,-2.18204E-05,9.72,0,0.648,0.0001178302,9.72,0
0.6489,-1.544213E-05,9.7335,0,0.6489,0.0001017166,9.7335,0
0.6498,1.208515E-05,9.747,0,0.6498,5.136187E-05,9.747,0
0.6507,4.599069E-05,9.7605,0,0.6507,7.418937E-05,9.7605,0
0.6516,3.390555E-05,9.774,0,0.6516,9.298848E-05,9.774,0
0.6525,1.879912E-05,9.7875,0,0.6525,1.309224E-05,9.7875,0
0.6534,4.53193E-05,9.801,0,0.6534,-3.054856E-05,9.801,0
0.6543,3.021286E-06,9.8145,0,0.6543,3.591974E-05,9.8145,0
0.6552,-1.443504E-05,9.828,0,0.6552,7.049668E-06,9.828,0
0.6561,2.450599E-05,9.8415,0,0.6561,-7.553216E-05,9.8415,0
0.657,2.417029E-05,9.855,0,0.657,-1.275654E-05,9.855,0
0.6579,-2.987716E-05,9.8685,0,0.6579,-6.713969E-07,9.8685,0
0.6588,-1.544213E-05,9.882,0,0.6588,-6.982528E-05,9.882,0
0.6597,9.399558E-06,9.8955,0,0.6597,-6.076142E-05,9.8955,0
0.6606,-6.814679E-05,9.909,0,0.6606,-4.632639E-05,9.909,0
0.6615,-6.109713E-05,9.9225,0,0.6615,-4.162661E-05,9.9225,0
0.6624,-1.208515E-05,9.936,0,0.6624,-4.901198E-05,9.936,0
0.6633,-1.544213E-05,9.9495,0,0.6633,-8.627451E-05,9.9495,0
0.6642,3.692683E-06,9.963,0,0.6642,-3.726253E-05,9.963,0
0.6651,3.289845E-05,9.976501,0,0.6651,-1.208515E-05,9.976501,0
0.666,1.812772E-05,9.99,0,0.666,-4.229801E-05,9.99,0
0.6669,4.699779E-06,10.0035,0,0.6669,-3.256275E-05,10.0035,0
0.6678,-2.349889E-06,10.017,0,0.6678,8.392462E-06,10.017,0
0.6687,-2.18204E-05,10.0305,0,0.6687,-8.392462E-06,10.0305,0
0.6696,-2.383459E-05,10.044,0,0.6696,-7.989624E-05,10.044,0
0.6705,-3.021286E-06,10.0575,0,0.6705,1.644922E-05,10.0575,0
0.6714,-1.040665E-05,10.071,0,0.6714,3.759823E-05,10.071,0
0.6723,-1.275654E-05,10.0845,0,0.6723,-1.812772E-05,10.0845,0
0.6732,-4.229801E-05,10.098,0,0.6732,6.277562E-05,10.098,0
0.6741,-1.544213E-05,10.1115,0,0.6741,8.224613E-05,10.1115,0
0.675,-2.18204E-05,10.125,0,0.675,-3.692683E-06,10.125,0
0.6759,1.107805E-05,10.1385,0,0.6759,1.141375E-05,10.1385,0
0.6768,0,10.152,0,0.6768,-7.888914E-05,10.152,0
0.6777,-7.049668E-06,10.1655,0,0.6777,-9.936675E-05,10.1655,0
0.6786,-3.289845E-05,10.179,0,0.6786,-9.030289E-05,10.179,0
0.6795,-3.558404E-05,10.1925,0,0.6795,-0.0001873197,10.1925,0
0.6804,5.035477E-06,10.206,0,0.6804,-0.0002104829,10.206,0
0.6813,-4.33051E-05,10.2195,0,0.6813,-1.544213E-05,10.2195,0
0.6822,-2.652018E-05,10.233,0,0.6822,0.0001262226,10.233,0
0.6831,4.028382E-06,10.2465,0,0.6831,-5.337606E-05,10.2465,0
0.684,-1.007095E-05,10.26,0,0.684,-2.047761E-05,10.26,0
0.6849,1.242084E-05,10.2735,0,0.6849,-1.779202E-05,10.2735,0
0.6858,-4.36408E-06,10.287,0,0.6858,-5.102617E-05,10.287,0
0.6867,6.378271E-06,10.3005,0,0.6867,-1.107805E-05,10.3005,0
0.6876,-6.042573E-06,10.314,0,0.6876,4.599069E-05,10.314,0
0.6885,-2.517739E-05,10.3275,0,0.6885,3.894102E-05,10.3275,0
0.6894,-1.947051E-05,10.341,0,0.6894,-3.424125E-05,10.341,0
0.6903,3.088426E-05,10.3545,0,0.6903,-0.0001430075,10.3545,0
0.6912,7.284657E-05,10.368,0,0.6912,-0.0001198444,10.368,0
0.6921,2.417029E-05,10.3815,0,0.6921,-0.0001037308,10.3815,0
0.693,-1.007095E-05,10.395,0,0.693,-8.761731E-05,10.395,0
0.6939,-3.356985E-07,10.4085,0,0.6939,1.577783E-05,10.4085,0
0.6948,9.063859E-06,10.422,0,0.6948,0.0001779202,10.422,0
0.6957,2.987716E-05,10.4355,0,0.6957,0.0001540856,10.4355,0
0.6966,1.040665E-05,10.449,0,0.6966,-1.913481E-05,10.449,0
0.6975,-2.21561E-05,10.4625,0,0.6975,2.24918E-05,10.4625,0
0.6984,-2.316319E-05,10.476,0,0.6984,5.874724E-05,10.476,0
0.6993,-1.611353E-05,10.4895,0,0.6993,-2.450599E-05,10.4895,0
0.7002,1.577783E-05,10.503,0,0.7002,-6.042573E-05,10.503,0
0.7011,-7.049668E-06,10.5165,0,0.7011,-8.392462E-06,10.5165,0
0.702,-1.510643E-05,10.53,0,0.702,-1.107805E-05,10.53,0
0.7029,7.049668E-06,10.5435,0,0.7029,-1.644922E-05,10.5435,0
0.7038,1.309224E-05,10.557,0,0.7038,-6.277562E-05,10.557,0
0.7047,6.713969E-07,10.5705,0,0.7047,-1.644922E-05,10.5705,0
0.7056,-7.721065E-06,10.584,0,0.7056,2.853437E-05,10.584,0
0.7065,-1.644922E-05,10.5975,0,0.7065,-1.712062E-05,10.5975,0
0.7074,-2.584878E-05,10.611,0,0.7074,-2.081331E-05,10.611,0
0.7083,-1.443504E-05,10.6245,0,0.7083,2.853437E-05,10.6245,0
0.7092,-3.524834E-05,10.638,0,0.7092,3.692683E-06,10.638,0
0.7101,-8.392462E-06,10.6515,0,0.7101,-6.176852E-05,10.6515,0
0.711,-1.107805E-05,10.665,0,0.711,-5.706874E-06,10.665,0
0.7119,-3.021286E-05,10.6785,0,0.7119,-5.706874E-06,10.6785,0
0.7128,-4.43122E-05,10.692,0,0.7128,-8.090334E-05,10.692,0
0.7137,-3.894102E-05,10.7055,0,0.7137,-5.807584E-05,10.7055,0
0.7146,-2.047761E-05,10.719,0,0.7146,-1.947051E-05,10.719,0
0.7155,-2.21561E-05,10.7325,0,0.7155,-2.786297E-05,10.7325,0
0.7164,-6.478981E-05,10.746,0,0.7164,-2.383459E-05,10.746,0
0.7173,-4.632639E-05,10.7595,0,0.7173,-5.438316E-05,10.7595,0
0.7182,-1.745632E-05,10.773,0,0.7182,-2.21561E-05,10.773,0
0.7191,5.035477E-06,10.7865,0,0.7191,2.014191E-05,10.7865,0
0.72,1.846342E-05,10.8,0,0.72,-2.18204E-05,10.8,0
0.7209,1.544213E-05,10.8135,0,0.7209,-7.385367E-05,10.8135,0
0.7218,-6.378271E-06,10.827,0,0.7218,-1.678492E-05,10.827,0
0.7227,1.309224E-05,10.8405,0,0.7227,-3.793393E-05,10.8405,0
0.7236,3.323415E-05,10.854,0,0.7236,-6.6804E-05,10.854,0
0.7245,6.713969E-07,10.8675,0,0.7245,-7.721065E-06,10.8675,0
0.7254,-1.544213E-05,10.881,0,0.7254,-1.644922E-05,10.881,0
0.7263,-1.409934E-05,10.8945,0,0.7263,-6.243992E-05,10.8945,0
0.7272,1.577783E-05,10.908,0,0.7272,-4.834058E-05,10.908,0
0.7281,6.713969E-07,10.9215,0,0.7281,0,10.9215,0
0.729,1.174945E-05,10.935,0,0.729,5.706874E-06,10.935,0
0.7299,-3.054856E-05,10.9485,0,0.7299,1.141375E-05,10.9485,0
0.7308,-6.378271E-06,10.962,0,0.7308,-9.735256E-06,10.962,0
0.7317,4.46479E-05,10.9755,0,0.7317,1.712062E-05,10.9755,0
0.7326,-3.860533E-05,10.989,0,0.7326,2.316319E-05,10.989,0
0.7335,-5.035477E-05,11.0025,0,0.7335,-1.678492E-05,11.0025,0
0.7344,-2.28275E-05,11.016,0,0.7344,-4.028382E-05,11.016,0
0.7353,-3.927672E-05,11.0295,0,0.7353,1.947051E-05,11.0295,0
0.7362,-4.632639E-05,11.043,0,0.7362,-3.021286E-06,11.043,0
0.7371,-1.678492E-06,11.0565,0,0.7371,-6.881819E-05,11.0565,0
0.738,-1.745632E-05,11.07,0,0.738,1.409934E-05,11.07,0
0.7389,4.36408E-06,11.0835,0,0.7389,1.980621E-05,11.0835,0
0.7398,3.692683E-06,11.097,0,0.7398,-4.33051E-05,11.097,0
0.7407,1.040665E-05,11.1105,0,0.7407,-4.632639E-05,11.1105,0
0.7416,1.712062E-05,11.124,0,0.7416,1.174945E-05,11.124,0
0.7425,-8.392462E-06,11.1375,0,0.7425,-2.349889E-06,11.1375,0
0.7434,-1.611353E-05,11.151,0,0.7434,-1.644922E-05,11.151,0
0.7443,-1.678492E-06,11.1645,0,0.7443,-5.673304E-05,11.1645,0
0.7452,-4.36408E-06,11.178,0,0.7452,-2.21561E-05,11.178,0
0.7461,-7.721065E-06,11.1915,0,0.7461,-8.056763E-06,11.1915,0
0.747,-2.014191E-05,11.205,0,0.747,-3.054856E-05,11.205,0
0.7479,-9.063859E-06,11.2185,0,0.7479,-4.095522E-05,11.2185,0
0.7488,1.141375E-05,11.232,0,0.7488,1.644922E-05,11.232,0
0.7497,-5.371176E-06,11.2455,0,0.7497,-3.356985E-06,11.2455,0
0.7506,-4.699779E-06,11.259,0,0.7506,-5.236896E-05,11.259,0
0.7515,-7.385367E-06,11.2725,0,0.7515,3.356985E-06,11.2725,0
0.7524,2.987716E-05,11.286,0,0.7524,4.33051E-05,11.286,0
0.7533,4.934768E-05,11.2995,0,0.7533,-1.342794E-06,11.2995,0
0.7542,-2.047761E-05,11.313,0,0.7542,-1.846342E-05,11.313,0
0.7551,-1.174945E-05,11.3265,0,0.7551,7.721065E-06,11.3265,0
0.756,-1.107805E-05,11.34,0,0.756,-7.721065E-06,11.34,0
0.7569,-1.544213E-05,11.3535,0,0.7569,-1.040665E-05,11.3535,0
0.7578,1.812772E-05,11.367,0,0.7578,-2.18204E-05,11.367,0
0.7587,2.786297E-05,11.3805,0,0.7587,4.061952E-05,11.3805,0
0.7596,-4.028382E-06,11.394,0,0.7596,8.761731E-05,11.394,0
0.7605,1.208515E-05,11.4075,0,0.7605,1.980621E-05,11.4075,0
0.7614,5.203327E-05,11.421,0,0.7614,-2.484169E-05,11.421,0
0.7623,1.376364E-05,11.4345,0,0.7623,3.457694E-05,11.4345,0
0.7632,-5.706874E-06,11.448,0,0.7632,-2.517739E-05,11.448,0
0.7641,-1.107805E-05,11.4615,0,0.7641,-9.768826E-05,11.4615,0
0.765,-5.203327E-05,11.475,0,0.765,-4.733349E-05,11.475,0
0.7659,-2.618448E-05,11.4885,0,0.7659,-2.584878E-05,11.4885,0
0.7668,-3.692683E-06,11.502,0,0.7668,-7.788205E-05,11.502,0
0.7677,-1.376364E-05,11.5155,0,0.7677,-4.29694E-05,11.5155,0
0.7686,-8.056763E-06,11.529,0,0.7686,-3.793393E-05,11.529,0
0.7695,1.174945E-05,11.5425,0,0.7695,-7.385367E-05,11.5425,0
0.7704,-6.378271E-06,11.556,0,0.7704,-6.6804E-05,11.556,0
0.7713,-4.33051E-05,11.5695,0,0.7713,-8.123904E-05,11.5695,0
0.7722,-1.913481E-05,11.583,0,0.7722,-5.404745E-05,11.583,0
0.7731,-2.920577E-05,11.5965,0,0.7731,-5.136187E-05,11.5965,0
0.774,-2.18204E-05,11.61,0,0.774,-4.061952E-05,11.61,0
0.7749,7.721065E-06,11.6235,0,0.7749,-1.678492E-05,11.6235,0
0.7758,1.913481E-05,11.637,0,0.7758,3.826963E-05,11.637,0
0.7767,-3.356985E-06,11.6505,0,0.7767,4.733349E-05,11.6505,0
0.7776,-7.049668E-06,11.664,0,0.7776,-8.392462E-06,11.664,0
0.7785,1.174945E-05,11.6775,0,0.7785,5.572595E-05,11.6775,0
0.7794,-1.007095E-06,11.691,0,0.7794,9.265278E-05,11.691,0
0.7803,-3.155566E-05,11.7045,0,0.7803,2.014191E-06,11.7045,0
0.7812,-4.968337E-05,11.718,0,0.7812,-3.424125E-05,11.718,0
0.7821,-6.042573E-05,11.7315,0,0.7821,3.356985E-07,11.7315,0
0.783,-3.759823E-05,11.745,0,0.783,-7.385367E-06,11.745,0
0.7839,-9.399558E-06,11.7585,0,0.7839,-3.021286E-05,11.7585,0
0.7848,-3.625543E-05,11.772,0,0.7848,-7.016098E-05,11.772,0
0.7857,-2.21561E-05,11.7855,0,0.7857,-1.913481E-05,11.7855,0
0.7866,-1.745632E-05,11.799,0,0.7866,4.196231E-05,11.799,0
0.7875,-1.678492E-06,11.8125,0,0.7875,-4.36408E-06,11.8125,0
0.7884,-4.36408E-06,11.826,0,0.7884,-7.989624E-05,11.826,0
0.7893,-3.961242E-05,11.8395,0,0.7893,-3.625543E-05,11.8395,0
0.7902,-1.409934E-05,11.853,0,0.7902,3.692683E-05,11.853,0
0.7911,-2.584878E-05,11.8665,0,0.7911,-2.719158E-05,11.8665,0
0.792,-3.826963E-05,11.88,0,0.792,-0.0001829557,11.88,0
0.7929,4.934768E-05,11.8935,0,0.7929,-0.0001289082,11.8935,0
0.7938,5.203327E-05,11.907,0,0.7938,-0.0001070878,11.907,0
0.7947,6.378271E-06,11.9205,0,0.7947,-7.016098E-05,11.9205,0
0.7956,2.853437E-05,11.934,0,0.7956,7.083238E-05,11.934,0
0.7965,2.349889E-05,11.9475,0,0.7965,6.915389E-05,11.9475,0
0.7974,2.887007E-05,11.961,0,0.7974,-2.786297E-05,11.961,0
0.7983,2.1149E-05,11.9745,0,0.7983,-5.941863E-05,11.9745,0
0.7992,2.484169E-05,11.988,0,0.7992,-4.934768E-05,11.988,0
0.8001,-2.417029E-05,12.0015,0,0.8001,-7.956054E-05,12.0015,0
0.801,-2.652018E-05,12.015,0,0.801,-9.500267E-05,12.015,0
0.8019,2.484169E-05,12.0285,0,0.8019,-8.86244E-05,12.0285,0
0.8028,2.584878E-05,12.042,0,0.8028,7.888914E-05,12.042,0
0.8037,2.517739E-05,12.0555,0,0.8037,8.560311E-05,12.0555,0
0.8046,2.819867E-05,12.069,0,0.8046,5.169757E-05,12.069,0
0.8055,-1.174945E-05,12.0825,0,0.8055,6.6804E-05,12.0825,0
0.8064,-4.934768E-05,12.096,0,0.8064,4.229801E-05,12.096,0
0.8073,-5.270466E-05,12.1095,0,0.8073,-1.409934E-05,12.1095,0
0.8082,6.042573E-06,12.123,0,0.8082,-7.016098E-05,12.123,0
0.8091,-1.913481E-05,12.1365,0,0.8091,-5.102617E-05,12.1365,0
0.81,-3.524834E-05,12.15,0,0.81,-6.143282E-05,12.15,0
0.8109,-1.510643E-05,12.1635,0,0.8109,-7.754635E-05,12.1635,0
0.8118,-2.920577E-05,12.177,0,0.8118,-0.000102388,12.177,0
0.8127,-1.477073E-05,12.1905,0,0.8127,-4.33051E-05,12.1905,0
0.8136,-4.33051E-05,12.204,0,0.8136,9.735256E-06,12.204,0
0.8145,-3.894102E-05,12.2175,0,0.8145,2.349889E-06,12.2175,0
0.8154,-2.450599E-05,12.231,0,0.8154,2.618448E-05,12.231,0
0.8163,-3.323415E-05,12.2445,0,0.8163,7.083238E-05,12.2445,0
0.8172,-2.920577E-05,12.258,0,0.8172,3.390555E-05,12.258,0
0.8181,-2.316319E-05,12.2715,0,0.8181,-3.659113E-05,12.2715,0
0.819,1.141375E-05,12.285,0,0.819,5.304036E-05,12.285,0
0.8199,1.846342E-05,12.2985,0,0.8199,4.766919E-05,12.2985,0
0.8208,3.121996E-05,12.312,0,0.8208,-1.913481E-05,12.312,0
0.8217,3.961242E-05,12.3255,0,0.8217,-1.040665E-05,12.3255,0
0.8226,2.584878E-05,12.339,0,0.8226,3.121996E-05,12.339,0
0.8235,7.385367E-06,12.3525,0,0.8235,-2.014191E-06,12.3525,0
0.8244,1.544213E-05,12.366,0,0.8244,-1.376364E-05,12.366,0
0.8253,5.035477E-06,12.3795,0,0.8253,-5.236896E-05,12.3795,0
0.8262,-1.443504E-05,12.393,0,0.8262,-3.457694E-05,12.393,0
0.8271,-3.994812E-05,12.4065,0,0.8271,-2.18204E-05,12.4065,0
0.828,-2.618448E-05,12.42,0,0.828,-6.78111E-05,12.42,0
0.8289,-3.524834E-05,12.4335,0,0.8289,-0.0001050736,12.4335,0
0.8298,-2.316319E-05,12.447,0,0.8298,-8.056763E-06,12.447,0
0.8307,2.349889E-05,12.4605,0,0.8307,-1.007095E-06,12.4605,0
0.8316,2.517739E-05,12.474,0,0.8316,-4.968337E-05,12.474,0
0.8325,4.028382E-06,12.4875,0,0.8325,-2.24918E-05,12.4875,0
0.8334,-5.035477E-06,12.501,0,0.8334,-4.39765E-05,12.501,0
0.8343,2.551309E-05,12.5145,0,0.8343,-9.600977E-05,12.5145,0
0.8352,-2.417029E-05,12.528,0,0.8352,-5.505455E-05,12.528,0
0.8361,-2.786297E-05,12.5415,0,0.8361,1.846342E-05,12.5415,0
0.837,-1.913481E-05,12.555,0,0.837,2.450599E-05,12.555,0
0.8379,-2.517739E-05,12.5685,0,0.8379,1.074235E-05,12.5685,0
0.8388,-3.054856E-05,12.582,0,0.8388,-3.189136E-05,12.582,0
0.8397,-4.934768E-05,12.5955,0,0.8397,1.376364E-05,12.5955,0
0.8406,-0.0001174945,12.609,0,0.8406,1.678492E-05,12.609,0
0.8415,-8.426032E-05,12.6225,0,0.8415,1.040665E-05,12.6225,0
0.8424,-2.618448E-05,12.636,0,0.8424,-8.728161E-06,12.636,0
0.8433,-2.517739E-05,12.6495,0,0.8433,4.46479E-05,12.6495,0
0.8442,-7.385367E-06,12.663,0,0.8442,3.927672E-05,12.663,0
0.8451,3.121996E-05,12.6765,0,0.8451,-4.49836E-05,12.6765,0
0.846,3.860533E-05,12.69,0,0.846,1.309224E-05,12.69,0
0.8469,3.155566E-05,12.7035,0,0.8469,3.256275E-05,12.7035,0
0.8478,6.277562E-05,12.717,0,0.8478,-4.934768E-05,12.717,0
0.8487,1.443504E-05,12.7305,0,0.8487,-4.263371E-05,12.7305,0
0.8496,1.678492E-06,12.744,0,0.8496,-2.920577E-05,12.744,0
0.8505,1.443504E-05,12.7575,0,0.8505,-6.277562E-05,12.7575,0
0.8514,2.920577E-05,12.771,0,0.8514,-3.894102E-05,12.771,0
0.8523,-1.040665E-05,12.7845,0,0.8523,-0.0001084306,12.7845,0
0.8532,2.014191E-06,12.798,0,0.8532,-8.258183E-05,12.798,0
0.8541,1.309224E-05,12.8115,0,0.8541,-2.417029E-05,12.8115,0
0.855,-4.229801E-05,12.825,0,0.855,-1.913481E-05,12.825,0
0.8559,-1.678492E-05,12.8385,0,0.8559,-2.081331E-05,12.8385,0
0.8568,2.786297E-05,12.852,0,0.8568,5.539025E-05,12.852,0
0.8577,5.136187E-05,12.8655,0,0.8577,4.43122E-05,12.8655,0
0.8586,1.443504E-05,12.879,0,0.8586,-1.812772E-05,12.879,0
0.8595001,6.713969E-07,12.8925,0,0.8595001,4.867628E-05,12.8925,0
0.8604,3.289845E-05,12.906,0,0.8604,3.558404E-05,12.906,0
0.8613,2.450599E-05,12.9195,0,0.8613,-1.107805E-05,12.9195,0
0.8622,-1.745632E-05,12.933,0,0.8622,-2.1149E-05,12.933,0
0.8631,-2.652018E-05,12.9465,0,0.8631,1.409934E-05,12.9465,0
0.864,-4.196231E-05,12.96,0,0.864,-2.517739E-05,12.96,0
0.8649,-2.081331E-05,12.9735,0,0.8649,-4.061952E-05,12.9735,0
0.8658,9.063859E-06,12.987,0,0.8658,-4.36408E-05,12.987,0
0.8667,-1.644922E-05,13.0005,0,0.8667,-5.136187E-05,13.0005,0
0.8676,-3.121996E-05,13.014,0,0.8676,1.007095E-05,13.014,0
0.8685,-2.24918E-05,13.0275,0,0.8685,-3.591974E-05,13.0275,0
0.8694,2.584878E-05,13.041,0,0.8694,-6.042573E-05,13.041,0
0.8703,-9.063859E-06,13.0545,0,0.8703,-2.685588E-06,13.0545,0
0.8712,-1.040665E-05,13.068,0,0.8712,-4.867628E-05,13.068,0
0.8721,2.383459E-05,13.0815,0,0.8721,-0.0001064164,13.0815,0
0.873,-2.21561E-05,13.095,0,0.873,-2.685588E-06,13.095,0
0.8739,1.174945E-05,13.1085,0,0.8739,1.174945E-05,13.1085,0
0.8748,5.102617E-05,13.122,0,0.8748,-3.860533E-05,13.122,0
0.8757,5.539025E-05,13.1355,0,0.8757,-4.934768E-05,13.1355,0
0.8766,-1.510643E-05,13.149,0,0.8766,-3.591974E-05,13.149,0
0.8775,-2.652018E-05,13.1625,0,0.8775,-1.779202E-05,13.1625,0
0.8784,-3.524834E-05,13.176,0,0.8784,-1.510643E-05,13.176,0
0.8793,-2.316319E-05,13.1895,0,0.8793,-2.618448E-05,13.1895,0
0.8802,-3.927672E-05,13.203,0,0.8802,-1.779202E-05,13.203,0
0.8811,-5.874724E-05,13.2165,0,0.8811,-1.309224E-05,13.2165,0
0.882,-4.061952E-05,13.23,0,0.882,-1.913481E-05,13.23,0
0.8829,-3.021286E-06,13.2435,0,0.8829,-0.0001356222,13.2435,0
0.8838,5.270466E-05,13.257,0,0.8838,-0.0001161517,13.257,0
0.8847,1.577783E-05,13.2705,0,0.8847,-6.478981E-05,13.2705,0
0.8856,5.035477E-06,13.284,0,0.8856,-0.0001003738,13.284,0
0.8865,-5.035477E-06,13.2975,0,0.8865,-6.176852E-05,13.2975,0
0.8874,-6.51255E-05,13.311,0,0.8874,-4.33051E-05,13.311,0
0.8883,-9.701686E-05,13.3245,0,0.8883,-6.277562E-05,13.3245,0
0.8892,-5.874724E-05,13.338,0,0.8892,0.0001675135,13.338,0
0.8901,-5.270466E-05,13.3515,0,0.8901,0.0001930266,13.3515,0
0.891,-2.28275E-05,13.365,0,0.891,4.53193E-05,13.365,0
0.8919,1.342794E-06,13.3785,0,0.8919,3.121996E-05,13.3785,0
0.8928,-3.021286E-06,13.392,0,0.8928,-3.692683E-06,13.392,0
0.8937,4.39765E-05,13.4055,0,0.8937,1.913481E-05,13.4055,0
0.8946,4.129091E-05,13.419,0,0.8946,7.049668E-06,13.419,0
0.8955,2.786297E-05,13.4325,0,0.8955,-7.016098E-05,13.4325,0
0.8964,3.189136E-05,13.446,0,0.8964,-8.426032E-05,13.446,0
0.8973,7.385367E-06,13.4595,0,0.8973,-1.040665E-05,13.4595,0
0.8982,-6.713969E-06,13.473,0,0.8982,-4.33051E-05,13.473,0
0.8991,1.040665E-05,13.4865,0,0.8991,-7.016098E-05,13.4865,0
0.9,1.376364E-05,13.5,0,0.9,1.443504E-05,13.5,0
0.9009,-3.356985E-06,13.5135,0,0.9009,3.692683E-05,13.5135,0
0.9018,-2.450599E-05,13.527,0,0.9018,-2.383459E-05,13.527,0
0.9027,-3.524834E-05,13.5405,0,0.9027,-2.551309E-05,13.5405,0
0.9036,-3.692683E-06,13.554,0,0.9036,8.728161E-06,13.554,0
0.9045,-1.913481E-05,13.5675,0,0.9045,-6.009003E-05,13.5675,0
0.9054,-4.46479E-05,13.581,0,0.9054,-9.298848E-05,13.581,0
0.9063,-1.779202E-05,13.5945,0,0.9063,-0.0001218585,13.5945,0
0.9072,-2.28275E-05,13.608,0,0.9072,-7.956054E-05,13.608,0
0.9081,-9.164568E-05,13.6215,0,0.9081,-6.814679E-05,13.6215,0
0.909,-6.478981E-05,13.635,0,0.909,-9.567407E-05,13.635,0
0.9099,-2.349889E-06,13.6485,0,0.9099,-6.243992E-05,13.6485,0
0.9108,-4.028382E-06,13.662,0,0.9108,5.673304E-05,13.662,0
0.9117,1.879912E-05,13.6755,0,0.9117,0.0001037308,13.6755,0
0.9126,4.934768E-05,13.689,0,0.9126,9.097429E-05,13.689,0
0.9135,1.242084E-05,13.7025,0,0.9135,0.0001762417,13.7025,0
0.9144,9.735256E-06,13.716,0,0.9144,0.0001728847,13.716,0
0.9153,-5.035477E-06,13.7295,0,0.9153,9.063859E-05,13.7295,0
0.9162,-1.275654E-05,13.743,0,0.9162,2.1149E-05,13.743,0
0.9171,-5.438316E-05,13.7565,0,0.9171,1.644922E-05,13.7565,0
0.918,-1.745632E-05,13.77,0,0.918,5.035477E-06,13.77,0
0.9189,3.994812E-05,13.7835,0,0.9189,-8.392462E-06,13.7835,0
0.9198,3.323415E-05,13.797,0,0.9198,-4.599069E-05,13.797,0
0.9207,2.584878E-05,13.8105,0,0.9207,-1.947051E-05,13.8105,0
0.9216,3.054856E-05,13.824,0,0.9216,8.392462E-06,13.824,0
0.9225,3.659113E-05,13.8375,0,0.9225,-3.524834E-05,13.8375,0
0.9234,2.584878E-05,13.851,0,0.9234,-4.599069E-05,13.851,0
0.9243,1.510643E-05,13.8645,0,0.9243,-1.611353E-05,13.8645,0
0.9252,-1.510643E-05,13.878,0,0.9252,-4.766919E-05,13.878,0
0.9261,-1.040665E-05,13.8915,0,0.9261,-0.0001064164,13.8915,0
0.927,-8.728161E-06,13.905,0,0.927,-4.666209E-05,13.905,0
0.9279,-5.572595E-05,13.9185,0,0.9279,-5.169757E-05,13.9185,0
0.9288,-3.155566E-05,13.932,0,0.9288,-0.0001111162,13.932,0
0.9297,-3.927672E-05,13.9455,0,0.9297,-9.164568E-05,13.9455,0
0.9306,-2.551309E-05,13.959,0,0.9306,-4.968337E-05,13.959,0
0.9315,-3.591974E-05,13.9725,0,0.9315,-5.740444E-05,13.9725,0
0.9324,-4.43122E-05,13.986,0,0.9324,-2.853437E-05,13.986,0
0.9333,-6.378271E-06,13.9995,0,0.9333,3.356985E-07,13.9995,0
0.9342,2.21561E-05,14.013,0,0.9342,1.644922E-05,14.013,0
0.9351,4.666209E-05,14.0265,0,0.9351,1.779202E-05,14.0265,0
0.936,4.263371E-05,14.04,0,0.936,-3.121996E-05,14.04,0
0.9369,1.376364E-05,14.0535,0,0.9369,-6.54612E-05,14.0535,0
0.9378,1.174945E-05,14.067,0,0.9378,-2.484169E-05,14.067,0
0.9387,4.129091E-05,14.0805,0,0.9387,-2.719158E-05,14.0805,0
0.9396001,5.035477E-06,14.094,0,0.9396001,-7.351797E-05,14.094,0
0.9405,-2.652018E-05,14.1075,0,0.9405,-3.021286E-05,14.1075,0
0.9414001,-5.673304E-05,14.121,0,0.9414001,-6.042573E-06,14.121,0
0.9423,-5.774014E-05,14.1345,0,0.9423,-6.814679E-05,14.1345,0
0.9432001,5.035477E-06,14.148,0,0.9432001,-6.6804E-05,14.148,0
0.9441,-1.007095E-06,14.1615,0,0.9441,-1.678492E-05,14.1615,0
0.9450001,-2.047761E-05,14.175,0,0.9450001,-3.021286E-06,14.175,0
0.9459,-2.484169E-05,14.1885,0,0.9459,2.18204E-05,14.1885,0
0.9468,1.275654E-05,14.202,0,0.9468,-9.735256E-06,14.202,0
0.9477,3.021286E-06,14.2155,0,0.9477,-4.699779E-06,14.2155,0
0.9486,-6.78111E-05,14.229,0,0.9486,2.081331E-05,14.229,0
0.9495,-5.975433E-05,14.2425,0,0.9495,-1.510643E-05,14.2425,0
0.9504,-3.994812E-05,14.256,0,0.9504,-4.061952E-05,14.256,0
0.9513,-4.33051E-05,14.2695,0,0.9513,1.510643E-05,14.2695,0
0.9522,-4.095522E-05,14.283,0,0.9522,-2.652018E-05,14.283,0
0.9531,-2.853437E-05,14.2965,0,0.9531,-8.224613E-05,14.2965,0
0.954,-3.256275E-05,14.31,0,0.954,-1.376364E-05,14.31,0
0.9549,-1.779202E-05,14.3235,0,0.9549,-2.349889E-06,14.3235,0
0.9558,9.063859E-06,14.337,0,0.9558,-5.874724E-05,14.337,0
0.9567,2.28275E-05,14.3505,0,0.9567,-2.887007E-05,14.3505,0
0.9576,-4.028382E-06,14.364,0,0.9576,7.049668E-06,14.364,0
0.9585,1.242084E-05,14.3775,0,0.9585,1.443504E-05,14.3775,0
0.9594,1.779202E-05,14.391,0,0.9594,9.735256E-06,14.391,0
0.9603,5.706874E-06,14.4045,0,0.9603,-3.726253E-05,14.4045,0
0.9612,2.920577E-05,14.418,0,0.9612,1.712062E-05,14.418,0
0.9621,1.812772E-05,14.4315,0,0.9621,2.920577E-05,14.4315,0
0.963,-1.980621E-05,14.445,0,0.963,-1.107805E-05,14.445,0
0.9639,-5.203327E-05,14.4585,0,0.9639,-2.786297E-05,14.4585,0
0.9648,-8.82887E-05,14.472,0,0.9648,1.074235E-05,14.472,0
0.9657,-6.009003E-05,14.4855,0,0.9657,-1.107805E-05,14.4855,0
0.9666,-2.18204E-05,14.499,0,0.9666,-8.86244E-05,14.499,0
0.9675,3.692683E-06,14.5125,0,0.9675,-1.644922E-05,14.5125,0
0.9684,-1.644922E-05,14.526,0,0.9684,-1.208515E-05,14.526,0
0.9693,-1.242084E-05,14.5395,0,0.9693,-5.807584E-05,14.5395,0
0.9702,4.934768E-05,14.553,0,0.9702,-2.954147E-05,14.553,0
0.9711,9.130999E-05,14.5665,0,0.9711,2.752728E-05,14.5665,0
0.972,8.191043E-05,14.58,0,0.972,-2.349889E-06,14.58,0
0.9729,6.344701E-05,14.5935,0,0.9729,1.007095E-06,14.5935,0
0.9738,2.517739E-05,14.607,0,0.9738,-4.53193E-05,14.607,0
0.9747,5.035477E-06,14.6205,0,0.9747,-2.18204E-05,14.6205,0
0.9756,-2.349889E-06,14.634,0,0.9756,-4.867628E-05,14.634,0
0.9765,9.735256E-06,14.6475,0,0.9765,-0.0001292439,14.6475,0
0.9774,-9.063859E-06,14.661,0,0.9774,-0.0001604639,14.661,0
0.9783,-4.934768E-05,14.6745,0,0.9783,-0.0001154803,14.6745,0
0.9792,-4.766919E-05,14.688,0,0.9792,-9.298848E-05,14.688,0
0.9801,-1.644922E-05,14.7015,0,0.9801,-7.049668E-05,14.7015,0
0.981,-1.644922E-05,14.715,0,0.981,2.584878E-05,14.715,0
0.9819,2.014191E-05,14.7285,0,0.9819,4.263371E-05,14.7285,0
0.9828,4.49836E-05,14.742,0,0.9828,8.392462E-06,14.742,0
0.9837,-2.484169E-05,14.7555,0,0.9837,5.471885E-05,14.7555,0
0.9846,-3.054856E-05,14.769,0,0.9846,0.0001070878,14.769,0
0.9855,7.721065E-06,14.7825,0,0.9855,9.903105E-05,14.7825,0
0.9864,1.443504E-05,14.796,0,0.9864,0.000115816,14.796,0
0.9873,1.007095E-05,14.8095,0,0.9873,4.36408E-05,14.8095,0
0.9882,1.376364E-05,14.823,0,0.9882,2.014191E-06,14.823,0
0.9891,-3.457694E-05,14.8365,0,0.9891,-2.349889E-06,14.8365,0
0.99,-1.846342E-05,14.85,0,0.99,-3.692683E-05,14.85,0
0.9909,2.1149E-05,14.8635,0,0.9909,-7.284657E-05,14.8635,0
0.9918,-9.399558E-06,14.877,0,0.9918,-4.028382E-05,14.877,0
0.9927,-2.819867E-05,14.8905,0,0.9927,-4.061952E-05,14.8905,0
0.9936,-4.46479E-05,14.904,0,0.9936,-8.761731E-05,14.904,0
0.9945,-4.666209E-05,14.9175,0,0.9945,-2.920577E-05,14.9175,0
0.9954,1.879912E-05,14.931,0,0.9954,3.860533E-05,14.931,0
0.9963,4.53193E-05,14.9445,0,0.9963,2.383459E-05,14.9445,0
0.9972,2.920577E-05,14.958,0,0.9972,3.088426E-05,14.958,0
0.9981,3.356985E-07,14.9715,0,0.9981,2.014191E-05,14.9715,0
0.999,3.356985E-07,14.985,0,0.999,-3.356985E-07,14.985,0
0.9999,-6.378271E-06,14.9985,0,0.9999,1.477073E-05,14.9985,0
1.0008,6.713969E-07,15.012,0,1.0008,4.699779E-06,15.012,0
1.0017,-4.800488E-05,15.0255,0,1.0017,3.189136E-05,15.0255,0
1.0026,-2.18204E-05,15.039,0,1.0026,3.524834E-05,15.039,0
1.0035,-1.544213E-05,15.0525,0,1.0035,-3.424125E-05,15.0525,0
1.0044,8.392462E-06,15.066,0,1.0044,-5.908293E-05,15.066,0
1.0053,-2.047761E-05,15.0795,0,1.0053,-1.309224E-05,15.0795,0
1.0062,-2.719158E-05,15.093,0,1.0062,-1.577783E-05,15.093,0
1.0071,-8.728161E-06,15.1065,0,1.0071,-4.196231E-05,15.1065,0
1.008,-7.049668E-06,15.12,0,1.008,-5.035477E-05,15.12,0
1.0089,-9.735256E-06,15.1335,0,1.0089,-3.189136E-05,15.1335,0
1.0098,-1.275654E-05,15.147,0,1.0098,-5.807584E-05,15.147,0
1.0107,-3.054856E-05,15.1605,0,1.0107,-6.344701E-05,15.1605,0
1.0116,-6.277562E-05,15.174,0,1.0116,-9.735256E-06,15.174,0
1.0125,-4.162661E-05,15.1875,0,1.0125,2.383459E-05,15.1875,0
1.0134,-3.323415E-05,15.201,0,1.0134,-1.644922E-05,15.201,0
1.0143,-1.477073E-05,15.2145,0,1.0143,-4.599069E-05,15.2145,0
1.0152,-2.014191E-06,15.228,0,1.0152,-3.021286E-06,15.228,0
1.0161,-1.846342E-05,15.2415,0,1.0161,1.745632E-05,15.2415,0
1.017,-1.846342E-05,15.255,0,1.017,-8.89601E-05,15.255,0
1.0179,3.591974E-05,15.2685,0,1.0179,-0.0001493858,15.2685,0
1.0188,1.980621E-05,15.282,0,1.0188,-8.493171E-05,15.282,0
1.0197,-1.644922E-05,15.2955,0,1.0197,-0.0001305867,15.2955,0
1.0206,-9.399558E-06,15.309,0,1.0206,-0.0001822843,15.309,0
1.0215,-2.081331E-05,15.3225,0,1.0215,-7.251087E-05,15.3225,0
1.0224,-2.685588E-05,15.336,0,1.0224,-5.774014E-05,15.336,0
1.0233,-4.129091E-05,15.3495,0,1.0233,-4.901198E-05,15.3495,0
1.0242,-2.047761E-05,15.363,0,1.0242,3.927672E-05,15.363,0
1.0251,-1.678492E-06,15.3765,0,1.0251,0.0001252155,15.3765,0
1.026,-1.107805E-05,15.39,0,1.026,7.754635E-05,15.39,0
1.0269,5.136187E-05,15.4035,0,1.0269,4.632639E-05,15.4035,0
1.0278,5.740444E-05,15.417,0,1.0278,5.639734E-05,15.417,0
1.0287,4.599069E-05,15.4305,0,1.0287,0.0001285725,15.4305,0
1.0296,1.309224E-05,15.444,0,1.0296,7.586786E-05,15.444,0
1.0305,-2.28275E-05,15.4575,0,1.0305,-1.678492E-06,15.4575,0
1.0314,-7.385367E-06,15.471,0,1.0314,-2.014191E-05,15.471,0
1.0323,-4.36408E-06,15.4845,0,1.0323,1.074235E-05,15.4845,0
1.0332,-2.28275E-05,15.498,0,1.0332,1.040665E-05,15.498,0
1.0341,-2.719158E-05,15.5115,0,1.0341,-3.323415E-05,15.5115,0
1.035,-2.014191E-05,15.525,0,1.035,3.994812E-05,15.525,0
1.0359,4.36408E-06,15.5385,0,1.0359,2.1149E-05,15.5385,0
1.0368,1.678492E-05,15.552,0,1.0368,-7.821774E-05,15.552,0
1.0377,4.061952E-05,15.5655,0,1.0377,-0.0001117876,15.5655,0
1.0386,6.009003E-05,15.579,0,1.0386,-0.0001000381,15.579,0
1.0395,1.812772E-05,15.5925,0,1.0395,-0.0001456931,15.5925,0
1.0404,2.047761E-05,15.606,0,1.0404,-0.0001470359,15.606,0
1.0413,-1.040665E-05,15.6195,0,1.0413,-0.0001117876,15.6195,0
1.0422,-1.040665E-05,15.633,0,1.0422,-2.417029E-05,15.633,0
1.0431,-2.18204E-05,15.6465,0,1.0431,2.349889E-05,15.6465,0
1.044,-7.049668E-05,15.66,0,1.044,1.342794E-06,15.66,0
1.0449,-3.390555E-05,15.6735,0,1.0449,3.524834E-05,15.6735,0
1.0458,9.063859E-06,15.687,0,1.0458,5.639734E-05,15.687,0
1.0467,6.311131E-05,15.7005,0,1.0467,4.36408E-05,15.7005,0
1.0476,-8.392462E-06,15.714,0,1.0476,-1.309224E-05,15.714,0
1.0485,-6.210422E-05,15.7275,0,1.0485,0,15.7275,0
1.0494,4.699779E-06,15.741,0,1.0494,-1.678492E-05,15.741,0
1.0503,-3.591974E-05,15.7545,0,1.0503,-6.210422E-05,15.7545,0
1.0512,-9.768826E-05,15.768,0,1.0512,-5.941863E-05,15.768,0
1.0521,-8.82887E-05,15.7815,0,1.0521,-6.411841E-05,15.7815,0
1.053,-6.277562E-05,15.795,0,1.053,-0.0001111162,15.795,0
1.0539,-6.478981E-05,15.8085,0,1.0539,-0.0001218585,15.8085,0
1.0548,-6.915389E-05,15.822,0,1.0548,-0.0001201801,15.822,0
1.0557,-5.740444E-05,15.8355,0,1.0557,-4.934768E-05,15.8355,0
1.0566,-7.351797E-05,15.849,0,1.0566,-1.611353E-05,15.849,0
1.0575,-6.478981E-05,15.8625,0,1.0575,1.174945E-05,15.8625,0
1.0584,-1.745632E-05,15.876,0,1.0584,4.968337E-05,15.876,0
1.0593,1.443504E-05,15.8895,0,1.0593,0.0001836271,15.8895,0
1.0602,3.558404E-05,15.903,0,1.0602,0.0001571069,15.903,0
1.0611,5.203327E-05,15.9165,0,1.0611,3.054856E-05,15.9165,0
1.062,2.21561E-05,15.93,0,1.062,5.539025E-05,15.93,0
1.0629,3.894102E-05,15.9435,0,1.0629,5.069047E-05,15.9435,0
1.0638,8.090334E-05,15.957,0,1.0638,1.007095E-06,15.957,0
1.0647,8.560311E-05,15.9705,0,1.0647,2.920577E-05,15.9705,0
1.0656,4.263371E-05,15.984,0,1.0656,2.719158E-05,15.984,0
1.0665,2.383459E-05,15.9975,0,1.0665,-7.888914E-05,15.9975,0
1.0674,-3.994812E-05,16.011,0,1.0674,-0.0001688563,16.011,0
1.0683,-4.43122E-05,16.0245,0,1.0683,-0.0002098116,16.0245,0
1.0692,2.786297E-05,16.038,0,1.0692,-0.0001144732,16.038,0
1.0701,-2.21561E-05,16.0515,0,1.0701,-6.54612E-05,16.0515,0
1.071,-3.591974E-05,16.065,0,1.071,-6.948959E-05,16.065,0
1.0719,-2.752728E-05,16.0785,0,1.0719,-4.766919E-05,16.0785,0
1.0728,8.392462E-06,16.092,0,1.0728,0.0001339437,16.092,0
1.0737,9.030289E-05,16.1055,0,1.0737,0.0001940337,16.1055,0
1.0746,7.016098E-05,16.119,0,1.0746,4.733349E-05,16.119,0
1.0755,4.061952E-05,16.1325,0,1.0755,-7.385367E-06,16.1325,0
1.0764,0.0001097734,16.146,0,1.0764,-4.095522E-05,16.146,0
1.0773,0.0001473716,16.1595,0,1.0773,-0.0001007095,16.1595,0
1.0782,0.0001319295,16.173,0,1.0782,-6.74754E-05,16.173,0
1.0791,6.009003E-05,16.1865,0,1.0791,8.392462E-06,16.1865,0
1.08,-1.007095E-06,16.2,0,1.08,3.793393E-05,16.2,0
1.0809,-5.203327E-05,16.2135,0,1.0809,7.318227E-05,16.2135,0
1.0818,-9.433127E-05,16.227,0,1.0818,-1.007095E-06,16.227,0
1.0827,-0.0001644923,16.2405,0,1.0827,2.014191E-06,16.2405,0
1.0836,-0.0002077974,16.254,0,1.0836,-3.961242E-05,16.254,0
1.0845,-0.000144686,16.2675,0,1.0845,-0.0001185016,16.2675,0
1.0854,-6.54612E-05,16.281,0,1.0854,-9.668116E-05,16.281,0
1.0863,-1.107805E-05,16.2945,0,1.0863,-1.947051E-05,16.2945,0
1.0872,2.047761E-05,16.308,0,1.0872,-1.510643E-05,16.308,0
1.0881,-9.399558E-06,16.3215,0,1.0881,-2.24918E-05,16.3215,0
1.089,1.443504E-05,16.335,0,1.089,5.001907E-05,16.335,0
1.0899,7.721065E-06,16.3485,0,1.0899,2.853437E-05,16.3485,0
1.0908,-6.478981E-05,16.362,0,1.0908,-0.0001084306,16.362,0
1.0917,-6.51255E-05,16.3755,0,1.0917,-0.0001151446,16.3755,0
1.0926,-2.987716E-05,16.389,0,1.0926,-5.102617E-05,16.389,0
1.0935,-4.028382E-06,16.4025,0,1.0935,-3.356985E-06,16.4025,0
1.0944,3.088426E-05,16.416,0,1.0944,3.189136E-05,16.416,0
1.0953,2.1149E-05,16.4295,0,1.0953,8.023193E-05,16.4295,0
1.0962,6.74754E-05,16.443,0,1.0962,0.0001151446,16.443,0
1.0971,3.256275E-05,16.4565,0,1.0971,3.558404E-05,16.4565,0
1.098,1.577783E-05,16.47,0,1.098,-2.014191E-06,16.47,0
1.0989,4.599069E-05,16.4835,0,1.0989,-5.371176E-06,16.4835,0
1.0998,-5.337606E-05,16.497,0,1.0998,9.063859E-06,16.497,0
1.1007,-0.0001033951,16.5105,0,1.1007,-2.316319E-05,16.5105,0
1.1016,-3.088426E-05,16.524,0,1.1016,-7.418937E-05,16.524,0
1.1025,-3.591974E-05,16.5375,0,1.1025,-5.438316E-05,16.5375,0
1.1034,-3.021286E-06,16.551,0,1.1034,-4.095522E-05,16.551,0
1.1043,3.994812E-05,16.5645,0,1.1043,-9.332418E-05,16.5645,0
1.1052,4.229801E-05,16.578,0,1.1052,-5.102617E-05,16.578,0
1.1061,-1.107805E-05,16.5915,0,1.1061,-3.356985E-07,16.5915,0
1.107,-3.994812E-05,16.605,0,1.107,4.53193E-05,16.605,0
1.1079,-0.0001255512,16.6185,0,1.1079,2.24918E-05,16.6185,0
1.1088,-0.000105745,16.632,0,1.1088,-8.69459E-05,16.632,0
1.1097,-7.721065E-06,16.6455,0,1.1097,-0.0001198444,16.6455,0
1.1106,3.021286E-05,16.659,0,1.1106,-0.0001366293,16.659,0
1.1115,-2.450599E-05,16.6725,0,1.1115,-0.0001060807,16.6725,0
1.1124,3.692683E-06,16.686,0,1.1124,-6.277562E-05,16.686,0
1.1133,3.256275E-05,16.6995,0,1.1133,1.678492E-06,16.6995,0
1.1142,-7.049668E-06,16.713,0,1.1142,-2.685588E-06,16.713,0
1.1151,-6.61326E-05,16.7265,0,1.1151,-6.982528E-05,16.7265,0
1.116,-0.0001010452,16.74,0,1.116,-5.337606E-05,16.74,0
1.1169,-3.323415E-05,16.7535,0,1.1169,-5.169757E-05,16.7535,0
1.1178,1.846342E-05,16.767,0,1.1178,-9.634547E-05,16.767,0
1.1187,-4.666209E-05,16.7805,0,1.1187,-4.39765E-05,16.7805,0
1.1196,-6.51255E-05,16.794,0,1.1196,3.289845E-05,16.794,0
1.1205,-0.0001467002,16.8075,0,1.1205,7.721065E-06,16.8075,0
1.1214,-7.888914E-05,16.821,0,1.1214,3.793393E-05,16.821,0
1.1223,3.659113E-05,16.8345,0,1.1223,-7.049668E-06,16.8345,0
1.1232,0.0001456931,16.848,0,1.1232,2.014191E-05,16.848,0
1.1241,0.0003017929,16.8615,0,1.1241,7.788205E-05,16.8615,0
1.125,0.0002574807,16.875,0,1.125,3.356985E-07,16.875,0
1.1259,0.0002386816,16.8885,0,1.1259,-6.042573E-05,16.8885,0
1.1268,9.768826E-05,16.902,0,1.1268,-2.719158E-05,16.902,0
1.1277,-4.229801E-05,16.9155,0,1.1277,-4.901198E-05,16.9155,0
1.1286,-8.191043E-05,16.929,0,1.1286,-9.802396E-05,16.929,0
1.1295,-4.699779E-05,16.9425,0,1.1295,-2.1149E-05,16.9425,0
1.1304,-6.848249E-05,16.956,0,1.1304,1.913481E-05,16.956,0
1.1313,-5.975433E-05,16.9695,0,1.1313,-6.210422E-05,16.9695,0
1.1322,-2.719158E-05,16.983,0,1.1322,-7.821774E-05,16.983,0
1.1331,-4.43122E-05,16.9965,0,1.1331,9.063859E-06,16.9965,0
1.134,-2.987716E-05,17.01,0,1.134,1.678492E-05,17.01,0
1.1349,5.874724E-05,17.0235,0,1.1349,4.733349E-05,17.0235,0
1.1358,0.0001070878,17.037,0,1.1358,8.761731E-05,17.037,0
1.1367,-4.36408E-06,17.0505,0,1.1367,7.049668E-05,17.0505,0
1.1376,-0.0001812772,17.064,0,1.1376,1.947051E-05,17.064,0
1.1385,-0.0001853056,17.0775,0,1.1385,-2.987716E-05,17.0775,0
1.1394,-0.0001514,17.091,0,1.1394,-6.948959E-05,17.091,0
1.1403,-0.0001326009,17.1045,0,1.1403,-8.291753E-05,17.1045,0
1.1412,-3.826963E-05,17.118,0,1.1412,-4.061952E-05,17.118,0
1.1421,7.217517E-05,17.1315,0,1.1421,-5.975433E-05,17.1315,0
1.143,8.090334E-05,17.145,0,1.143,7.721065E-06,17.145,0
1.1439,2.517739E-05,17.1585,0,1.1439,3.021286E-05,17.1585,0
1.1448,0,17.172,0,1.1448,8.056763E-06,17.172,0
1.1457,-4.33051E-05,17.1855,0,1.1457,8.526741E-05,17.1855,0
1.1466,-6.948959E-05,17.199,0,1.1466,3.994812E-05,17.199,0
1.1475,3.994812E-05,17.2125,0,1.1475,-1.376364E-05,17.2125,0
1.1484,0.0002218967,17.226,0,1.1484,-1.342794E-06,17.226,0
1.1493,0.0003286488,17.2395,0,1.1493,-3.692683E-06,17.2395,0
1.1502,0.0002870222,17.253,0,1.1502,6.009003E-05,17.253,0
1.1511,8.123904E-05,17.2665,0,1.1511,0.0001080949,17.2665,0
1.152,-5.874724E-05,17.28,0,1.152,4.53193E-05,17.28,0
1.1529,-0.0001044022,17.2935,0,1.1529,-7.721065E-06,17.2935,0
1.1538,-0.0002081331,17.307,0,1.1538,-2.18204E-05,17.307,0
1.1547,-0.0001816129,17.3205,0,1.1547,-7.318227E-05,17.3205,0
1.1556,-2.719158E-05,17.334,0,1.1556,-0.0001681849,17.334,0
1.1565,9.332418E-05,17.3475,0,1.1565,-0.0001215228,17.3475,0
1.1574,8.795301E-05,17.361,0,1.1574,-0.0001185016,17.361,0
1.1583,-3.692683E-05,17.3745,0,1.1583,-0.0001571069,17.3745,0
1.1592,-0.0001060807,17.388,0,1.1592,-9.298848E-05,17.388,0
1.1601,-0.0001221943,17.4015,0,1.1601,-9.063859E-06,17.4015,0
1.161,-0.0001748989,17.415,0,1.161,3.692683E-06,17.415,0
1.1619,-0.0001920195,17.4285,0,1.1619,3.524834E-05,17.4285,0
1.1628,-8.090334E-05,17.442,0,1.1628,-7.385367E-06,17.442,0
1.1637,4.061952E-05,17.4555,0,1.1637,-1.208515E-05,17.4555,0
1.1646,1.007095E-06,17.469,0,1.1646,0.0001097734,17.469,0
1.1655,-4.36408E-06,17.4825,0,1.1655,9.835965E-05,17.4825,0
1.1664,-4.53193E-05,17.496,0,1.1664,-2.819867E-05,17.496,0
1.1673,-7.586786E-05,17.5095,0,1.1673,1.376364E-05,17.5095,0
1.1682,-1.678492E-05,17.523,0,1.1682,-4.766919E-05,17.523,0
1.1691,-5.035477E-06,17.5365,0,1.1691,-0.0001208515,17.5365,0
1.17,1.007095E-06,17.55,0,1.17,-3.121996E-05,17.55,0
1.1709,9.500267E-05,17.5635,0,1.1709,-5.102617E-05,17.5635,0
1.1718,6.411841E-05,17.577,0,1.1718,-7.956054E-05,17.577,0
1.1727,4.263371E-05,17.5905,0,1.1727,-2.719158E-05,17.5905,0
1.1736,-2.887007E-05,17.604,0,1.1736,-0.0001594568,17.604,0
1.1745,-4.867628E-05,17.6175,0,1.1745,-0.0002652018,17.6175,0
1.1754,-1.040665E-05,17.631,0,1.1754,-0.0001775845,17.631,0
1.1763,-3.356985E-06,17.6445,0,1.1763,-0.0001211871,17.6445,0
1.1772,7.385367E-06,17.658,0,1.1772,-2.081331E-05,17.658,0
1.1781,-3.524834E-05,17.6715,0,1.1781,8.191043E-05,17.6715,0
1.179,3.692683E-06,17.685,0,1.179,0.0002047761,17.685,0
1.1799,0.0001070878,17.6985,0,1.1799,0.0002903792,17.6985,0
1.1808,0.0001252155,17.712,0,1.1808,0.0002598306,17.712,0
1.1817,0.0001487144,17.7255,0,1.1817,9.231708E-05,17.7255,0
1.1826,3.289845E-05,17.739,0,1.1826,-1.644922E-05,17.739,0
1.1835,-0.0001211871,17.7525,0,1.1835,2.047761E-05,17.7525,0
1.1844,-0.0001383078,17.766,0,1.1844,1.443504E-05,17.766,0
1.1853,-6.277562E-05,17.7795,0,1.1853,-4.599069E-05,17.7795,0
1.1862,1.678492E-05,17.793,0,1.1862,-6.411841E-05,17.793,0
1.1871,-1.376364E-05,17.8065,0,1.1871,-5.404745E-05,17.8065,0
1.188,2.1149E-05,17.82,0,1.188,-7.486076E-05,17.82,0
1.1889,4.733349E-05,17.8335,0,1.1889,-6.54612E-05,17.8335,0
1.1898,4.39765E-05,17.847,0,1.1898,-6.076142E-05,17.847,0
1.1907,-7.721065E-06,17.8605,0,1.1907,3.860533E-05,17.8605,0
1.1916,3.994812E-05,17.874,0,1.1916,0.0001258869,17.874,0
1.1925,1.376364E-05,17.8875,0,1.1925,6.042573E-06,17.8875,0
1.1934,-9.567407E-05,17.901,0,1.1934,-7.989624E-05,17.901,0
1.1943,-7.284657E-05,17.9145,0,1.1943,-4.33051E-05,17.9145,0
1.1952,1.443504E-05,17.928,0,1.1952,-5.908293E-05,17.928,0
1.1961,1.510643E-05,17.9415,0,1.1961,-0.0001117876,17.9415,0
1.197,-3.860533E-05,17.955,0,1.197,-1.812772E-05,17.955,0
1.1979,1.443504E-05,17.9685,0,1.1979,1.409934E-05,17.9685,0
1.1988,9.903105E-05,17.982,0,1.1988,-4.934768E-05,17.982,0
1.1997,5.169757E-05,17.9955,0,1.1997,-9.298848E-05,17.9955,0
1.2006,-4.33051E-05,18.009,0,1.2006,-0.0001117876,18.009,0
1.2015,-4.632639E-05,18.0225,0,1.2015,-0.0001342794,18.0225,0
1.2024,-1.779202E-05,18.036,0,1.2024,-0.0001255512,18.036,0
1.2033,-2.819867E-05,18.0495,0,1.2033,-0.0001701991,18.0495,0
1.2042,-3.793393E-05,18.063,0,1.2042,-9.365987E-05,18.063,0
1.2051,-3.659113E-05,18.0765,0,1.2051,-1.443504E-05,18.0765,0
1.206,0.0001080949,18.09,0,1.206,7.016098E-05,18.09,0
1.2069,0.0001299153,18.1035,0,1.2069,0.0001497215,18.1035,0
1.2078,-7.016098E-05,18.117,0,1.2078,0.0002024262,18.117,0
1.2087,-4.53193E-05,18.1305,0,1.2087,0.0001715419,18.1305,0
1.2096,-7.821774E-05,18.144,0,1.2096,9.063859E-05,18.144,0
1.2105,-2.618448E-05,18.1575,0,1.2105,5.673304E-05,18.1575,0
1.2114,0.0001104448,18.171,0,1.2114,-2.450599E-05,18.171,0
1.2123,3.189136E-05,18.1845,0,1.2123,-0.0001010452,18.1845,0
1.2132,-9.500267E-05,18.198,0,1.2132,-6.814679E-05,18.198,0
1.2141,-5.639734E-05,18.2115,0,1.2141,-3.390555E-05,18.2115,0
1.215,-2.450599E-05,18.225,0,1.215,-5.606165E-05,18.225,0
1.2159,-6.61326E-05,18.2385,0,1.2159,-0.0001460288,18.2385,0
1.2168,-7.150377E-05,18.252,0,1.2168,-0.0001487144,18.252,0
1.2177,-2.383459E-05,18.2655,0,1.2177,-8.224613E-05,18.2655,0
1.2186,-5.169757E-05,18.279,0,1.2186,-0.0001064164,18.279,0
1.2195,-5.069047E-05,18.2925,0,1.2195,-6.57969E-05,18.2925,0
1.2204,-5.706874E-06,18.306,0,1.2204,2.316319E-05,18.306,0
1.2213,-8.358892E-05,18.3195,0,1.2213,0.0001836271,18.3195,0
1.2222,-0.0001013809,18.333,0,1.2222,0.0002212253,18.333,0
1.2231,2.349889E-06,18.3465,0,1.2231,5.203327E-05,18.3465,0
1.224,4.46479E-05,18.36,0,1.224,7.284657E-05,18.36,0
1.2249,1.174945E-05,18.3735,0,1.2249,6.948959E-05,18.3735,0
1.2258,-1.712062E-05,18.387,0,1.2258,-1.242084E-05,18.387,0
1.2267,3.692683E-06,18.4005,0,1.2267,-4.867628E-05,18.4005,0
1.2276,-5.404745E-05,18.414,0,1.2276,-9.835965E-05,18.414,0
1.2285,-1.712062E-05,18.4275,0,1.2285,-0.0001601282,18.4275,0
1.2294,1.443504E-05,18.441,0,1.2294,-0.0001218585,18.441,0
1.2303,4.263371E-05,18.4545,0,1.2303,-0.0001097734,18.4545,0
1.2312,2.014191E-05,18.468,0,1.2312,-4.934768E-05,18.468,0
1.2321,2.618448E-05,18.4815,0,1.2321,5.136187E-05,18.4815,0
1.233,0.0001440146,18.495,0,1.233,0.0001178302,18.495,0
1.2339,0.0001453574,18.5085,0,1.2339,7.418937E-05,18.5085,0
1.2348,8.157473E-05,18.522,0,1.2348,6.61326E-05,18.522,0
1.2357,3.189136E-05,18.5355,0,1.2357,-1.712062E-05,18.5355,0
1.2366,2.551309E-05,18.549,0,1.2366,-8.526741E-05,18.549,0
1.2375,5.706874E-06,18.5625,0,1.2375,-1.745632E-05,18.5625,0
1.2384,5.606165E-05,18.576,0,1.2384,-7.083238E-05,18.576,0
1.2393,4.934768E-05,18.5895,0,1.2393,-0.0001127947,18.5895,0
1.2402,6.176852E-05,18.603,0,1.2402,-0.0001000381,18.603,0
1.2411,6.378271E-06,18.6165,0,1.2411,-0.0001107805,18.6165,0
1.242,-6.277562E-05,18.63,0,1.242,-0.0001926909,18.63,0
1.2429,-0.0002752728,18.6435,0,1.2429,-0.0002084688,18.6435,0
1.2438,-0.0002222324,18.657,0,1.2438,-0.000109102,18.657,0
1.2447,-7.318227E-05,18.6705,0,1.2447,7.016098E-05,18.6705,0
1.2456,-0.0001493858,18.684,0,1.2456,2.719158E-05,18.684,0
1.2465,-0.0001185016,18.6975,0,1.2465,-1.712062E-05,18.6975,0
1.2474,-2.584878E-05,18.711,0,1.2474,6.109713E-05,18.711,0
1.2483,9.567407E-05,18.7245,0,1.2483,0.0001500572,18.7245,0
1.2492,0.0001500572,18.738,0,1.2492,6.915389E-05,18.738,0
1.2501,8.291753E-05,18.7515,0,1.2501,-1.007095E-06,18.7515,0
1.251,7.150377E-05,18.765,0,1.251,0.0001349508,18.765,0
1.2519,6.814679E-05,18.7785,0,1.2519,0.0001500572,18.7785,0
1.2528,-2.987716E-05,18.792,0,1.2528,5.505455E-05,18.792,0
1.2537,-5.337606E-05,18.8055,0,1.2537,3.289845E-05,18.8055,0
1.2546,-0.000109102,18.819,0,1.2546,1.074235E-05,18.819,0
1.2555,-8.92958E-05,18.8325,0,1.2555,-1.846342E-05,18.8325,0
1.2564,-0.0001080949,18.846,0,1.2564,5.035477E-06,18.846,0
1.2573,-9.365987E-05,18.8595,0,1.2573,-6.076142E-05,18.8595,0
1.2582,-9.063859E-06,18.873,0,1.2582,-0.0001138018,18.873,0
1.2591,0.0001255512,18.8865,0,1.2591,-0.0002383459,18.8865,0
1.26,0.0001362936,18.9,0,1.26,-0.0003132067,18.9,0
1.2609,0.0001420005,18.9135,0,1.2609,-0.0003098497,18.9135,0
1.2618,0.0001312581,18.927,0,1.2618,-0.0001641566,18.927,0
1.2627,0.0001654994,18.9405,0,1.2627,-4.968337E-05,18.9405,0
1.2636,3.289845E-05,18.954,0,1.2636,2.21561E-05,18.954,0
1.2645,-0.0001963836,18.9675,0,1.2645,0.0003286488,18.9675,0
1.2654,-0.0002111543,18.981,0,1.2654,0.0002480812,18.981,0
1.2663,-0.0001567712,18.9945,0,1.2663,5.404745E-05,18.9945,0
1.2672,-0.0001577783,19.008,0,1.2672,9.164568E-05,19.008,0
1.2681,-0.000115816,19.0215,0,1.2681,0.0001386435,19.0215,0
1.269,-7.888914E-05,19.035,0,1.269,1.443504E-05,19.035,0
1.2699,-1.846342E-05,19.0485,0,1.2699,-1.678492E-06,19.0485,0
1.2708,1.712062E-05,19.062,0,1.2708,5.035477E-06,19.062,0
1.2717,3.726253E-05,19.0755,0,1.2717,1.678492E-05,19.0755,0
1.2726,-4.39765E-05,19.089,0,1.2726,-4.867628E-05,19.089,0
1.2735,-3.256275E-05,19.1025,0,1.2735,-0.0001383078,19.1025,0
1.2744,2.349889E-05,19.116,0,1.2744,-0.0001668421,19.116,0
1.2753,-2.517739E-05,19.1295,0,1.2753,-0.000102388,19.1295,0
1.2762,6.713969E-07,19.143,0,1.2762,-0.0001077592,19.143,0
1.2771,5.270466E-05,19.1565,0,1.2771,-0.0001064164,19.1565,0
1.278,2.987716E-05,19.17,0,1.278,2.652018E-05,19.17,0
1.2789,5.941863E-05,19.1835,0,1.2789,8.526741E-05,19.1835,0
1.2798,3.524834E-05,19.197,0,1.2798,7.049668E-05,19.197,0
1.2807,2.652018E-05,19.2105,0,1.2807,8.291753E-05,19.2105,0
1.2816,5.337606E-05,19.224,0,1.2816,6.948959E-05,19.224,0
1.2825,-4.229801E-05,19.2375,0,1.2825,-1.007095E-05,19.2375,0
1.2834,-2.954147E-05,19.251,0,1.2834,-0.0001050736,19.251,0
1.2843,5.471885E-05,19.2645,0,1.2843,-0.0002521096,19.2645,0
1.2852,0.0002229038,19.278,0,1.2852,-0.0002960861,19.278,0
1.2861,0.0002262608,19.2915,0,1.2861,-0.00021149,19.2915,0
1.287,5.169757E-05,19.305,0,1.287,-0.000186984,19.305,0
1.2879,0,19.3185,0,1.2879,-5.606165E-05,19.3185,0
1.2888,-0.0001107805,19.332,0,1.2888,0.0001537499,19.332,0
1.2897,1.208515E-05,19.3455,0,1.2897,0.0003132067,19.3455,0
1.2906,3.994812E-05,19.359,0,1.2906,0.0002641947,19.359,0
1.2915,-0.0001211871,19.3725,0,1.2915,0.0001822843,19.3725,0
1.2924,-0.0002997787,19.386,0,1.2924,8.96315E-05,19.386,0
1.2933,-0.0001487144,19.3995,0,1.2933,-4.33051E-05,19.3995,0
1.2942,-2.014191E-06,19.413,0,1.2942,-4.733349E-05,19.413,0
1.2951,-6.378271E-05,19.4265,0,1.2951,-1.074235E-05,19.4265,0
1.296,4.53193E-05,19.44,0,1.296,-4.129091E-05,19.44,0
1.2969,0.0002319677,19.4535,0,1.2969,-1.712062E-05,19.4535,0
1.2978,0.000252781,19.467,0,1.2978,-6.814679E-05,19.467,0
1.2987,5.001907E-05,19.4805,0,1.2987,-0.0001148089,19.4805,0
1.2996,-0.0001080949,19.494,0,1.2996,-0.0001997406,19.494,0
1.3005,-0.0001668421,19.5075,0,1.3005,-0.0002991073,19.5075,0
1.3014,-0.0002104829,19.521,0,1.3014,-0.0002853437,19.521,0
1.3023,-9.298848E-05,19.5345,0,1.3023,-0.0001775845,19.5345,0
1.3032,5.874724E-05,19.548,0,1.3032,-0.0001104448,19.548,0
1.3041,7.452507E-05,19.5615,0,1.3041,-1.544213E-05,19.5615,0
1.305,0.0001668421,19.575,0,1.305,0.0001070878,19.575,0
1.3059,0.0002242466,19.5885,0,1.3059,6.478981E-05,19.5885,0
1.3068,7.486076E-05,19.602,0,1.3068,1.980621E-05,19.602,0
1.3077,7.049668E-06,19.6155,0,1.3077,-8.89601E-05,19.6155,0
1.3086,-5.505455E-05,19.629,0,1.3086,-0.0001228656,19.629,0
1.3095,-0.0002756084,19.6425,0,1.3095,-4.934768E-05,19.6425,0
1.3104,-0.0003051499,19.656,0,1.3104,0.0001742275,19.656,0
1.3113,-0.0001661708,19.6695,0,1.3113,0.0001178302,19.6695,0
1.3122,-7.486076E-05,19.683,0,1.3122,0.0002034333,19.683,0
1.3131,-0.0001211871,19.6965,0,1.3131,0.0003917601,19.6965,0
1.314,-6.042573E-05,19.71,0,1.314,0.0002534524,19.71,0
1.3149,-7.049668E-06,19.7235,0,1.3149,3.524834E-05,19.7235,0
1.3158,-4.095522E-05,19.737,0,1.3158,-2.551309E-05,19.737,0
1.3167,-2.517739E-05,19.7505,0,1.3167,-2.014191E-05,19.7505,0
1.3176,3.424125E-05,19.764,0,1.3176,-6.243992E-05,19.764,0
1.3185,7.083238E-05,19.7775,0,1.3185,9.063859E-05,19.7775,0
1.3194,0.0001420005,19.791,0,1.3194,0.0001604639,19.791,0
1.3203,6.64683E-05,19.8045,0,1.3203,8.493171E-05,19.8045,0
1.3212,1.242084E-05,19.818,0,1.3212,3.692683E-05,19.818,0
1.3221,2.21561E-05,19.8315,0,1.3221,-7.721065E-06,19.8315,0
1.323,-5.941863E-05,19.845,0,1.323,-7.083238E-05,19.845,0
1.3239,1.174945E-05,19.8585,0,1.3239,-9.433127E-05,19.8585,0
1.3248,4.129091E-05,19.872,0,1.3248,-0.000115816,19.872,0
1.3257,7.150377E-05,19.8855,0,1.3257,-3.994812E-05,19.8855,0
1.3266,8.627451E-05,19.899,0,1.3266,4.36408E-06,19.899,0
1.3275,6.64683E-05,19.9125,0,1.3275,-6.076142E-05,19.9125,0
1.3284,1.644922E-05,19.926,0,1.3284,-0.0001077592,19.926,0
1.3293,1.107805E-05,19.9395,0,1.3293,-0.0001111162,19.9395,0
1.3302,-7.049668E-06,19.953,0,1.3302,-0.0001923552,19.953,0
1.3311,8.023193E-05,19.9665,0,1.3311,-0.0002343175,19.9665,0
1.332,0.0003669185,19.98,0,1.332,-0.0001010452,19.98,0
1.3329,0.0002420386,19.9935,0,1.3329,2.24918E-05,19.9935,0
1.3338,5.471885E-05,20.007,0,1.3338,3.256275E-05,20.007,0
1.3347,-8.123904E-05,20.0205,0,1.3347,6.143282E-05,20.0205,0
1.3356,-0.0003209277,20.034,0,1.3356,6.948959E-05,20.034,0
1.3365,-0.0003716182,20.0475,0,1.3365,3.356985E-07,20.0475,0
1.3374,-0.0002467384,20.061,0,1.3374,-9.735256E-06,20.061,0
1.3383,-5.471885E-05,20.0745,0,1.3383,-7.687495E-05,20.0745,0
1.3392,-2.719158E-05,20.088,0,1.3392,-8.69459E-05,20.088,0
1.3401,1.577783E-05,20.1015,0,1.3401,-0.0001010452,20.1015,0
1.341,-6.713969E-06,20.115,0,1.341,-0.0001151446,20.115,0
1.3419,-0.0001077592,20.1285,0,1.3419,-0.0001017166,20.1285,0
1.3428,-5.572595E-05,20.142,0,1.3428,1.174945E-05,20.142,0
1.3437,4.867628E-05,20.1555,0,1.3437,-2.18204E-05,20.1555,0
1.3446,6.411841E-05,20.169,0,1.3446,-2.987716E-05,20.169,0
1.3455,0.0001198444,20.1825,0,1.3455,3.625543E-05,20.1825,0
1.3464,2.652018E-05,20.196,0,1.3464,4.263371E-05,20.196,0
1.3473,-3.491264E-05,20.2095,0,1.3473,-8.493171E-05,20.2095,0
1.3482,-8.023193E-05,20.223,0,1.3482,-0.0002077974,20.223,0
1.3491,-0.0001926909,20.2365,0,1.3491,-0.0002873579,20.2365,0
1.35,-5.035477E-05,20.25,0,1.35,-0.0002594949,20.25,0
1.3509,0.0001003738,20.2635,0,1.3509,-0.0002212253,20.2635,0
1.3518,4.263371E-05,20.277,0,1.3518,-0.0001007095,20.277,0
1.3527,-6.78111E-05,20.2905,0,1.3527,0.0001178302,20.2905,0
1.3536,3.692683E-06,20.304,0,1.3536,0.0002860151,20.304,0
1.3545,-2.853437E-05,20.3175,0,1.3545,0.0002168612,20.3175,0
1.3554,-3.927672E-05,20.331,0,1.3554,0.0001309224,20.331,0
1.3563,-3.994812E-05,20.3445,0,1.3563,0.0002195468,20.3445,0
1.3572,-3.021286E-05,20.358,0,1.3572,0.0002007477,20.358,0
1.3581,7.217517E-05,20.3715,0,1.3581,7.586786E-05,20.3715,0
1.359,0.0001594568,20.385,0,1.359,6.076142E-05,20.385,0
1.3599,0.0002185397,20.3985,0,1.3599,-0.0001675135,20.3985,0
1.3608,0.0003085069,20.412,0,1.3608,-0.0005112688,20.412,0
1.3617,0.0002625162,20.4255,0,1.3617,-0.0006556191,20.4255,0
1.3626,2.047761E-05,20.439,0,1.3626,-0.0007717708,20.439,0
1.3635,-5.035477E-05,20.4525,0,1.3635,-0.0006421912,20.4525,0
1.3644,-0.0001560998,20.466,0,1.3644,-0.0002729229,20.466,0
1.3653,-0.000207126,20.4795,0,1.3653,0.0003612116,20.4795,0
1.3662,-0.0001789273,20.493,0,1.3662,0.0008926223,20.493,0
1.3671,-0.0001420005,20.5065,0,1.3671,0.0008825513,20.5065,0
1.368,-1.242084E-05,20.52,0,1.368,0.0008449531,20.52,0
1.3689,2.383459E-05,20.5335,0,1.3689,0.0005240254,20.5335,0
1.3698,-9.466698E-05,20.547,0,1.3698,0.0002467384,20.547,0
1.3707,-0.0001312581,20.5605,0,1.3707,0.0001550927,20.5605,0
1.3716,-0.000158114,20.574,0,1.3716,3.021286E-06,20.574,0
1.3725,-7.788205E-05,20.5875,0,1.3725,2.752728E-05,20.5875,0
1.3734,-7.150377E-05,20.601,0,1.3734,-7.385367E-06,20.601,0
1.3743,-9.365987E-05,20.6145,0,1.3743,-0.0001279011,20.6145,0
1.3752,-4.33051E-05,20.628,0,1.3752,-0.0001262226,20.628,0
1.3761,-5.941863E-05,20.6415,0,1.3761,-7.116808E-05,20.6415,0
1.377,2.014191E-06,20.655,0,1.377,-7.083238E-05,20.655,0
1.3779,7.888914E-05,20.6685,0,1.3779,-9.030289E-05,20.6685,0
1.3788,3.189136E-05,20.682,0,1.3788,-0.0001406577,20.682,0
1.3797,0.0001171588,20.6955,0,1.3797,-0.0001406577,20.6955,0
1.3806,0.0002601663,20.709,0,1.3806,-0.0001957122,20.709,0
1.3815,0.0002104829,20.7225,0,1.3815,-0.0003004501,20.7225,0
1.3824,0.0002020905,20.736,0,1.3824,-0.0003132067,20.736,0
1.3833,0.0001715419,20.7495,0,1.3833,-0.0002349889,20.7495,0
1.3842,0.000109102,20.763,0,1.3842,-0.0002091402,20.763,0
1.3851,-2.24918E-05,20.7765,0,1.3851,-0.0001708705,20.7765,0
1.386,-0.000161471,20.79,0,1.386,0.0001252155,20.79,0
1.3869,-0.0003360342,20.8035,0,1.3869,0.000224918,20.8035,0
1.3878,-0.0002356603,20.817,0,1.3878,6.6804E-05,20.817,0
1.3887,3.927672E-05,20.8305,0,1.3887,-6.713969E-06,20.8305,0
1.3896,5.270466E-05,20.844,0,1.3896,-1.174945E-05,20.844,0
1.3905,-5.941863E-05,20.8575,0,1.3905,-6.109713E-05,20.8575,0
1.3914,-0.0001185016,20.871,0,1.3914,-0.0001208515,20.871,0
1.3923,-0.000130251,20.8845,0,1.3923,-0.0001322652,20.8845,0
1.3932,-8.526741E-05,20.898,0,1.3932,-8.560311E-05,20.898,0
1.3941,8.392462E-06,20.9115,0,1.3941,-5.203327E-05,20.9115,0
1.395,2.786297E-05,20.925,0,1.395,-0.0001621424,20.925,0
1.3959,-1.007095E-06,20.9385,0,1.3959,-0.0002688945,20.9385,0
1.3968,5.337606E-05,20.952,0,1.3968,-0.0002218967,20.952,0
1.3977,2.316319E-05,20.9655,0,1.3977,-0.0002212253,20.9655,0
1.3986,-7.418937E-05,20.979,0,1.3986,-0.0002188754,20.979,0
1.3995,9.063859E-06,20.9925,0,1.3995,3.591974E-05,20.9925,0
1.4004,0.0001393149,21.006,0,1.4004,0.0002286107,21.006,0
1.4013,0.0002118257,21.0195,0,1.4013,0.0001527428,21.0195,0
1.4022,0.000164828,21.033,0,1.4022,0.0002084688,21.033,0
1.4031,7.553216E-05,21.0465,0,1.4031,0.0001675135,21.0465,0
1.404,4.49836E-05,21.06,0,1.404,0.0001252155,21.06,0
1.4049,-3.860533E-05,21.0735,0,1.4049,0.0001453574,21.0735,0
1.4058,1.107805E-05,21.087,0,1.4058,7.016098E-05,21.087,0
1.4067,-8.728161E-06,21.1005,0,1.4067,3.726253E-05,21.1005,0
1.4076,-2.047761E-05,21.114,0,1.4076,-1.007095E-05,21.114,0
1.4085,-5.874724E-05,21.1275,0,1.4085,-9.500267E-05,21.1275,0
1.4094,-0.0001668421,21.141,0,1.4094,-0.0001775845,21.141,0
1.4103,9.231708E-05,21.1545,0,1.4103,-0.0001628138,21.1545,0
1.4112,2.786297E-05,21.168,0,1.4112,-0.0002010834,21.168,0
1.4121,-0.0002514381,21.1815,0,1.4121,-0.0002145113,21.1815,0
1.413,-0.0001544213,21.195,0,1.413,1.342794E-05,21.195,0
1.4139,1.309224E-05,21.2085,0,1.4139,0.0001440146,21.2085,0
1.4148,0.0001017166,21.222,0,1.4148,0.0001832914,21.222,0
1.4157,0.0001111162,21.2355,0,1.4157,0.0002104829,21.2355,0
1.4166,4.53193E-05,21.249,0,1.4166,0.0001272297,21.249,0
1.4175,0.0001765774,21.2625,0,1.4175,-2.349889E-06,21.2625,0
1.4184,0.0001013809,21.276,0,1.4184,-4.699779E-05,21.276,0
1.4193,3.390555E-05,21.2895,0,1.4193,-0.0001245441,21.2895,0
1.4202,-6.042573E-05,21.303,0,1.4202,-0.0001940337,21.303,0
1.4211,-0.0003860533,21.3165,0,1.4211,-0.0002299535,21.3165,0
1.422,-0.0003944457,21.33,0,1.422,-0.0002584878,21.33,0
1.4229,-0.0002923934,21.3435,0,1.4229,-0.0002067903,21.3435,0
1.4238,-0.000246067,21.357,0,1.4238,-1.107805E-05,21.357,0
1.4247,-7.351797E-05,21.3705,0,1.4247,0.0001621424,21.3705,0
1.4256,0.0001201801,21.384,0,1.4256,0.000270573,21.384,0
1.4265,0.0003541619,21.3975,0,1.4265,0.0003152209,21.3975,0
1.4274,0.0005582666,21.411,0,1.4274,0.0002601663,21.411,0
1.4283,0.0003806821,21.4245,0,1.4283,6.61326E-05,21.4245,0
1.4292,5.740444E-05,21.438,0,1.4292,-9.701686E-05,21.438,0
1.4301,-0.0001272297,21.4515,0,1.4301,-0.0001765774,21.4515,0
1.431,-0.0002954147,21.465,0,1.431,-0.000285008,21.465,0
1.4319,-0.0004421149,21.4785,0,1.4319,-0.0001473716,21.4785,0
1.4328,-0.0003048142,21.492,0,1.4328,5.941863E-05,21.492,0
1.4337,-5.908293E-05,21.5055,0,1.4337,0.0003675898,21.5055,0
1.4346,-0.0001658351,21.519,0,1.4346,0.0002453956,21.519,0
1.4355,-6.243992E-05,21.5325,0,1.4355,0.0001121233,21.5325,0
1.4364,6.378271E-06,21.546,0,1.4364,6.243992E-05,21.546,0
1.4373,1.007095E-06,21.5595,0,1.4373,9.768826E-05,21.5595,0
1.4382,3.189136E-05,21.573,0,1.4382,0.0001225299,21.573,0
1.4391,4.733349E-05,21.5865,0,1.4391,4.867628E-05,21.5865,0
1.44,7.721065E-06,21.6,0,1.44,1.141375E-05,21.6,0
1.4409,2.551309E-05,21.6135,0,1.4409,-7.721065E-06,21.6135,0
1.4418,8.96315E-05,21.627,0,1.4418,-7.284657E-05,21.627,0
1.4427,7.620356E-05,21.6405,0,1.4427,-0.0001470359,21.6405,0
1.4436,4.129091E-05,21.654,0,1.4436,-0.000239353,21.654,0
1.4445,6.411841E-05,21.6675,0,1.4445,-0.0003071641,21.6675,0
1.4454,6.64683E-05,21.681,0,1.4454,-0.0003236133,21.681,0
1.4463,9.869535E-05,21.6945,0,1.4463,-0.0003350271,21.6945,0
1.4472,0.0001463645,21.708,0,1.4472,-0.0002306248,21.708,0
1.4481,0.0001285725,21.7215,0,1.4481,-4.733349E-05,21.7215,0
1.449,0.000197055,21.735,0,1.449,0.0001144732,21.735,0
1.4499,0.0002641947,21.7485,0,1.4499,0.0001356222,21.7485,0
1.4508,0.0001876554,21.762,0,1.4508,8.023193E-05,21.762,0
1.4517,-1.913481E-05,21.7755,0,1.4517,-3.088426E-05,21.7755,0
1.4526,6.378271E-06,21.789,0,1.4526,-0.0001769131,21.789,0
1.4535,-1.846342E-05,21.8025,0,1.4535,-8.493171E-05,21.8025,0
1.4544,-0.000252781,21.816,0,1.4544,9.600977E-05,21.816,0
1.4553,-0.0001913481,21.8295,0,1.4553,0.0001312581,21.8295,0
1.4562,-3.994812E-05,21.843,0,1.4562,4.934768E-05,21.843,0
1.4571,1.409934E-05,21.8565,0,1.4571,0.0001514,21.8565,0
1.458,0.0001030594,21.87,0,1.458,0.0002265965,21.87,0
1.4589,-0.0001017166,21.8835,0,1.4589,0.0001084306,21.8835,0
1.4598,-0.00024271,21.897,0,1.4598,-9.735256E-06,21.897,0
1.4607,-0.0001564355,21.9105,0,1.4607,-1.712062E-05,21.9105,0
1.4616,-6.243992E-05,21.924,0,1.4616,-1.409934E-05,21.924,0
1.4625,7.016098E-05,21.9375,0,1.4625,-4.29694E-05,21.9375,0
1.4634,0.000256138,21.951,0,1.4634,-0.0001201801,21.951,0
1.4643,0.0002601663,21.9645,0,1.4643,-9.634547E-05,21.9645,0
1.4652,0.0001594568,21.978,0,1.4652,-5.807584E-05,21.978,0
1.4661,0.0001107805,21.9915,0,1.4661,-7.452507E-05,21.9915,0
1.467,-5.169757E-05,22.005,0,1.467,-1.342794E-05,22.005,0
1.4679,-0.0002789654,22.0185,0,1.4679,-8.92958E-05,22.0185,0
1.4688,-0.0004300298,22.032,0,1.4688,-0.0002205539,22.032,0
1.4697,-0.0002500954,22.0455,0,1.4697,-0.0003199207,22.0455,0
1.4706,-5.941863E-05,22.059,0,1.4706,-0.0002299535,22.059,0
1.4715,-2.786297E-05,22.0725,0,1.4715,-0.0001628138,22.0725,0
1.4724,0.000224918,22.086,0,1.4724,-1.309224E-05,22.086,0
1.4733,0.0002386816,22.0995,0,1.4733,0.0001067521,22.0995,0
1.4742,0.0001077592,22.113,0,1.4742,0.0003313344,22.113,0
1.4751,3.155566E-05,22.1265,0,1.4751,0.0002225681,22.1265,0
1.476,-4.43122E-05,22.14,0,1.476,-2.383459E-05,22.14,0
1.4769,-0.0001973907,22.1535,0,1.4769,-5.606165E-05,22.1535,0
1.4778,-0.0002406958,22.167,0,1.4778,5.606165E-05,22.167,0
1.4787,-0.0002343175,22.1805,0,1.4787,5.337606E-05,22.1805,0
1.4796,-0.0001601282,22.194,0,1.4796,-2.316319E-05,22.194,0
1.4805,-2.786297E-05,22.2075,0,1.4805,2.1149E-05,22.2075,0
1.4814,0.0001030594,22.221,0,1.4814,2.652018E-05,22.221,0
1.4823,2.18204E-05,22.2345,0,1.4823,-2.349889E-05,22.2345,0
1.4832,-0.000126894,22.248,0,1.4832,-5.404745E-05,22.248,0
1.4841,-9.265278E-05,22.2615,0,1.4841,-5.941863E-05,22.2615,0
1.485,0.000190341,22.275,0,1.485,-0.0002944076,22.275,0
1.4859,0.0002977645,22.2885,0,1.4859,-0.0004531929,22.2885,0
1.4868,0.0002081331,22.302,0,1.4868,-0.0004679637,22.302,0
1.4877,0.0001577783,22.3155,0,1.4877,-0.0004159304,22.3155,0
1.4886,8.291753E-05,22.329,0,1.4886,-0.0002017548,22.329,0
1.4895,-0.0002131685,22.3425,0,1.4895,0.0001634852,22.3425,0
1.4904,-0.0004448005,22.356,0,1.4904,0.000594522,22.356,0
1.4913,-0.0001846342,22.3695,0,1.4913,0.0006072785,22.3695,0
1.4922,-0.0001111162,22.383,0,1.4922,0.000351812,22.383,0
1.4931,-0.0001510643,22.3965,0,1.4931,0.0002514381,22.3965,0
1.494,-0.0002161898,22.41,0,1.494,0.0001634852,22.41,0
1.4949,-1.007095E-06,22.4235,0,1.4949,4.49836E-05,22.4235,0
1.4958,0.0001463645,22.437,0,1.4958,-4.599069E-05,22.437,0
1.4967,1.846342E-05,22.4505,0,1.4967,-1.678492E-05,22.4505,0
1.4976,-2.21561E-05,22.464,0,1.4976,-1.477073E-05,22.464,0
1.4985,3.021286E-06,22.4775,0,1.4985,-6.378271E-05,22.4775,0
1.4994,4.229801E-05,22.491,0,1.4994,-9.701686E-05,22.491,0
1.5003,4.39765E-05,22.5045,0,1.5003,-0.0001537499,22.5045,0
1.5012,0.0002091402,22.518,0,1.5012,-9.433127E-05,22.518,0
1.5021,0.0002987717,22.5315,0,1.5021,-2.719158E-05,22.5315,0
1.503,0.0004562142,22.545,0,1.503,-7.821774E-05,22.545,0
1.5039,0.0004750133,22.5585,0,1.5039,-0.0001225299,22.5585,0
1.5048,0.0001715419,22.572,0,1.5048,-0.0001282368,22.572,0
1.5057,-9.063859E-06,22.5855,0,1.5057,-0.0001990692,22.5855,0
1.5066,-0.0001017166,22.599,0,1.5066,-0.0003242847,22.599,0
1.5075,-0.0001755703,22.6125,0,1.5075,-0.0001460288,22.6125,0
1.5084,-0.0003387198,22.626,0,1.5084,0.000154757,22.626,0
1.5093,-0.0002245823,22.6395,0,1.5093,0.0001671778,22.6395,0
1.5102,-0.0002017548,22.653,0,1.5102,0.0001292439,22.653,0
1.5111,-0.0001366293,22.6665,0,1.5111,0.0001359579,22.6665,0
1.512,-0.0001097734,22.68,0,1.512,0.000203769,22.68,0
1.5129,-9.970245E-05,22.6935,0,1.5129,9.835965E-05,22.6935,0
1.5138,-0.0001151446,22.707,0,1.5138,3.457694E-05,22.707,0
1.5147,-1.544213E-05,22.7205,0,1.5147,4.061952E-05,22.7205,0
1.5156,5.706874E-05,22.734,0,1.5156,-2.484169E-05,22.734,0
1.5165,8.157473E-05,22.7475,0,1.5165,-7.385367E-05,22.7475,0
1.5174,4.934768E-05,22.761,0,1.5174,-0.0001420005,22.761,0
1.5183,2.551309E-05,22.7745,0,1.5183,-0.0002652018,22.7745,0
1.5192,2.920577E-05,22.788,0,1.5192,-0.000369604,22.788,0
1.5201,-2.450599E-05,22.8015,0,1.5201,-0.0004390936,22.8015,0
1.521,-5.035477E-05,22.815,0,1.521,-0.0002279393,22.815,0
1.5219,1.712062E-05,22.8285,0,1.5219,-4.53193E-05,22.8285,0
1.5228,5.001907E-05,22.842,0,1.5228,9.634547E-05,22.842,0
1.5237,-9.265278E-05,22.8555,0,1.5237,0.000340734,22.8555,0
1.5246,-0.0001329366,22.869,0,1.5246,0.0003578546,22.869,0
1.5255,2.081331E-05,22.8825,0,1.5255,0.0001232013,22.8825,0
1.5264,8.291753E-05,22.896,0,1.5264,4.43122E-05,22.896,0
1.5273,8.426032E-05,22.9095,0,1.5273,3.726253E-05,22.9095,0
1.5282,4.36408E-06,22.923,0,1.5282,-8.392462E-06,22.923,0
1.5291,-1.443504E-05,22.9365,0,1.5291,-3.390555E-05,22.9365,0
1.53,2.517739E-05,22.95,0,1.53,-0.0001433432,22.95,0
1.5309,-0.0001121233,22.9635,0,1.5309,-0.0001987335,22.9635,0
1.5318,-0.0001386435,22.977,0,1.5318,-0.0001305867,22.977,0
1.5327,5.874724E-05,22.9905,0,1.5327,-4.061952E-05,22.9905,0
1.5336,0.0001527428,23.004,0,1.5336,7.183947E-05,23.004,0
1.5345,0.0003541619,23.0175,0,1.5345,0.0001534142,23.0175,0
1.5354,0.0003994812,23.031,0,1.5354,0.0001104448,23.031,0
1.5363,7.888914E-05,23.0445,0,1.5363,6.54612E-05,23.0445,0
1.5372,-3.256275E-05,23.058,0,1.5372,-1.342794E-06,23.058,0
1.5381,-0.0001393149,23.0715,0,1.5381,-4.196231E-05,23.0715,0
1.539,-0.0003064927,23.085,0,1.539,-0.0001527428,23.085,0
1.5399,-0.0003420768,23.0985,0,1.5399,-0.0001782559,23.0985,0
1.5408,-4.666209E-05,23.112,0,1.5408,-0.0002124971,23.112,0
1.5417,3.457694E-05,23.1255,0,1.5417,-3.054856E-05,23.1255,0
1.5426,0.0001027237,23.139,0,1.5426,0.0001886625,23.139,0
1.5435,0.0001980621,23.1525,0,1.5435,0.000345098,23.1525,0
1.5444,0.0001272297,23.166,0,1.5444,8.090334E-05,23.166,0
1.5453,-0.0001201801,23.1795,0,1.5453,-1.409934E-05,23.1795,0
1.5462,-0.000256138,23.193,0,1.5462,-7.989624E-05,23.193,0
1.5471,-0.0001967193,23.2065,0,1.5471,-0.0001413291,23.2065,0
1.548,-1.007095E-06,23.22,0,1.548,-1.174945E-05,23.22,0
1.5489,0.0001225299,23.2335,0,1.5489,8.291753E-05,23.2335,0
1.5498,0.000109102,23.247,0,1.5498,6.411841E-05,23.247,0
1.5507,-2.618448E-05,23.2605,0,1.5507,-6.74754E-05,23.2605,0
1.5516,-0.000102388,23.274,0,1.5516,-0.0001376364,23.274,0
1.5525,-4.632639E-05,23.2875,0,1.5525,-0.0001906767,23.2875,0
1.5534,0.0001467002,23.301,0,1.5534,-0.0001393149,23.301,0
1.5543,5.874724E-05,23.3145,0,1.5543,-5.304036E-05,23.3145,0
1.5552,1.174945E-05,23.328,0,1.5552,3.121996E-05,23.328,0
1.5561,0.0001279011,23.3415,0,1.5561,-5.706874E-06,23.3415,0
1.557,0.0001171588,23.355,0,1.557,-9.298848E-05,23.355,0
1.5579,0.0001782559,23.3685,0,1.5579,-0.0002551308,23.3685,0
1.5588,-2.685588E-06,23.382,0,1.5588,-0.0002262608,23.382,0
1.5597,-0.0001245441,23.3955,0,1.5597,-0.0001500572,23.3955,0
1.5606,-0.0001836271,23.409,0,1.5606,-7.553216E-05,23.409,0
1.5615,-0.0002944076,23.4225,0,1.5615,5.337606E-05,23.4225,0
1.5624,-0.0002776226,23.436,0,1.5624,0.0001628138,23.436,0
1.5633,-1.275654E-05,23.4495,0,1.5633,9.869535E-05,23.4495,0
1.5642,0.0001027237,23.463,0,1.5642,0.0001117876,23.463,0
1.5651,-8.023193E-05,23.4765,0,1.5651,0.0001842985,23.4765,0
1.566,-0.000126894,23.49,0,1.566,0.0002198825,23.49,0
1.5669,-0.0001198444,23.5035,0,1.5669,0.0003316701,23.5035,0
1.5678,-0.0001245441,23.517,0,1.5678,0.0002064546,23.517,0
1.5687,-8.392462E-06,23.5305,0,1.5687,0.0001470359,23.5305,0
1.5696,0.0001107805,23.544,0,1.5696,3.793393E-05,23.544,0
1.5705,6.042573E-06,23.5575,0,1.5705,-5.941863E-05,23.5575,0
1.5714,0.0001305867,23.571,0,1.5714,-0.0001685206,23.571,0
1.5723,0.0001994049,23.5845,0,1.5723,-0.000218204,23.5845,0
1.5732,0.0001742275,23.598,0,1.5732,-0.0002960861,23.598,0
1.5741,0.0001715419,23.6115,0,1.5741,-0.000337377,23.6115,0
1.575,7.620356E-05,23.625,0,1.575,-0.0002433814,23.625,0
1.5759,-5.169757E-05,23.6385,0,1.5759,-0.000246067,23.6385,0
1.5768,-0.000214847,23.652,0,1.5768,-0.0002138399,23.652,0
1.5777,-8.090334E-05,23.6655,0,1.5777,-4.49836E-05,23.6655,0
1.5786,0.0001097734,23.679,0,1.5786,0.0001802701,23.679,0
1.5795,-1.879912E-05,23.6925,0,1.5795,0.000235996,23.6925,0
1.5804,-0.0003259632,23.706,0,1.5804,0.0002746014,23.706,0
1.5813,-0.000348455,23.7195,0,1.5813,0.0001701991,23.7195,0
1.5822,-0.0001292439,23.733,0,1.5822,0.0001886625,23.733,0
1.5831,-0.0001856413,23.7465,0,1.5831,8.72816E-05,23.7465,0
1.584,-7.586786E-05,23.76,0,1.584,1.040665E-05,23.76,0
1.5849,8.056763E-06,23.7735,0,1.5849,3.692683E-06,23.7735,0
1.5858,0.0001980621,23.787,0,1.5858,1.611353E-05,23.787,0
1.5867,0.0002987717,23.8005,0,1.5867,-0.0001913481,23.8005,0
1.5876,0.0003138781,23.814,0,1.5876,-0.0004155947,23.814,0
1.5885,0.0002057832,23.8275,0,1.5885,-0.0003816892,23.8275,0
1.5894,5.337606E-05,23.841,0,1.5894,-0.0002544594,23.841,0
1.5903,-0.0001295796,23.8545,0,1.5903,-0.0001423362,23.8545,0
1.5912,-0.0001822843,23.868,0,1.5912,0.0001799344,23.868,0
1.5921,-6.009003E-05,23.8815,0,1.5921,0.00042533,23.8815,0
1.593,0.0002064546,23.895,0,1.593,0.0001681849,23.895,0
1.5939,0.000418616,23.9085,0,1.5939,3.222705E-05,23.9085,0
1.5948,0.000436408,23.922,0,1.5948,-4.196231E-05,23.922,0
1.5957,0.0002897078,23.9355,0,1.5957,-0.0001040665,23.9355,0
1.5966,-4.666209E-05,23.949,0,1.5966,-0.0001665064,23.949,0
1.5975,-0.0003088426,23.9625,0,1.5975,-0.0001708705,23.9625,0
1.5984,-0.0003699397,23.976,0,1.5984,-6.378271E-05,23.976,0
1.5993,-0.0003988098,23.9895,0,1.5993,2.551309E-05,23.9895,0
1.6002,-0.0003813535,24.003,0,1.6002,5.270466E-05,24.003,0
1.6011,-0.0002400244,24.0165,0,1.6011,4.968337E-05,24.0165,0
1.602,-0.0001520714,24.03,0,1.602,8.69459E-05,24.03,0
1.6029,-0.0001238727,24.0435,0,1.6029,7.687495E-05,24.0435,0
1.6038,-5.337606E-05,24.057,0,1.6038,-5.136187E-05,24.057,0
1.6047,-1.174945E-05,24.0705,0,1.6047,-2.853437E-05,24.0705,0
1.6056,1.242084E-05,24.084,0,1.6056,5.471885E-05,24.084,0
1.6065,-7.385367E-06,24.0975,0,1.6065,-1.846342E-05,24.0975,0
1.6074,-4.36408E-06,24.111,0,1.6074,-0.0001701991,24.111,0
1.6083,0.0001168231,24.1245,0,1.6083,-0.0002517739,24.1245,0
1.6092,0.0002803082,24.138,0,1.6092,-0.000136965,24.138,0
1.6101,0.0003716182,24.1515,0,1.6101,-9.567407E-05,24.1515,0
1.611,0.0004333867,24.165,0,1.611,-0.000119173,24.165,0
1.6119,0.0002964218,24.1785,0,1.6119,-7.888914E-05,24.1785,0
1.6128,-3.189136E-05,24.192,0,1.6128,-0.0001456931,24.192,0
1.6137,-0.0002222324,24.2055,0,1.6137,-0.000231632,24.2055,0
1.6146,-0.0001926909,24.219,0,1.6146,-0.0002252537,24.219,0
1.6155,-0.0002161898,24.2325,0,1.6155,-5.102617E-05,24.2325,0
1.6164,-0.0001671778,24.246,0,1.6164,0.0001517357,24.246,0
1.6173,3.726253E-05,24.2595,0,1.6173,0.0003474479,24.2595,0
1.6182,4.129091E-05,24.273,0,1.6182,0.0005347677,24.273,0
1.6191,-0.0002521096,24.2865,0,1.6191,0.0005448386,24.2865,0
1.62,-0.0003168994,24.3,0,1.62,0.0002547952,24.3,0
1.6209,-8.526741E-05,24.3135,0,1.6209,7.586786E-05,24.3135,0
1.6218,-4.632639E-05,24.327,0,1.6218,1.376364E-05,24.327,0
1.6227,-4.36408E-06,24.3405,0,1.6227,3.155566E-05,24.3405,0
1.6236,6.64683E-05,24.354,0,1.6236,7.385367E-06,24.354,0
1.6245,7.284657E-05,24.3675,0,1.6245,-0.0001399863,24.3675,0
1.6254,9.735256E-06,24.381,0,1.6254,-0.0002514381,24.381,0
1.6263,5.740444E-05,24.3945,0,1.6263,-0.0001809415,24.3945,0
1.6272,8.191043E-05,24.408,0,1.6272,-0.0001755703,24.408,0
1.6281,9.634547E-05,24.4215,0,1.6281,-0.0001755703,24.4215,0
1.629,9.164568E-05,24.435,0,1.629,-1.443504E-05,24.435,0
1.6299,-5.001907E-05,24.4485,0,1.6299,1.779202E-05,24.4485,0
1.6308,-4.934768E-05,24.462,0,1.6308,-0.0001131304,24.462,0
1.6317,9.903105E-05,24.4755,0,1.6317,-0.0001420005,24.4755,0
1.6326,-7.049668E-06,24.489,0,1.6326,-9.332418E-05,24.489,0
1.6335,-4.699779E-05,24.5025,0,1.6335,-0.0001594568,24.5025,0
1.6344,2.383459E-05,24.516,0,1.6344,-0.0001104448,24.516,0
1.6353,0.0002615091,24.5295,0,1.6353,-2.383459E-05,24.5295,0
1.6362,0.0002863508,24.543,0,1.6362,0.0001668421,24.543,0
1.6371,0.0002024262,24.5565,0,1.6371,0.0001748989,24.5565,0
1.638,9.231708E-05,24.57,0,1.638,-1.040665E-05,24.57,0
1.6389,1.376364E-05,24.5835,0,1.6389,-0.0001070878,24.5835,0
1.6398,2.383459E-05,24.597,0,1.6398,-7.553216E-05,24.597,0
1.6407,-0.0001493858,24.6105,0,1.6407,-0.0001957122,24.6105,0
1.6416,-9.097429E-05,24.624,0,1.6416,-0.0002574807,24.624,0
1.6425,-0.0001332723,24.6375,0,1.6425,-0.0001238727,24.6375,0
1.6434,4.934768E-05,24.651,0,1.6434,3.189136E-05,24.651,0
1.6443,7.486076E-05,24.6645,0,1.6443,-3.591974E-05,24.6645,0
1.6452,-6.54612E-05,24.678,0,1.6452,0.0001067521,24.678,0
1.6461,0.0001628138,24.6915,0,1.6461,0.0003309987,24.6915,0
1.647,0.0004736705,24.705,0,1.647,0.0002876936,24.705,0
1.6479,0.0003709468,24.7185,0,1.6479,0.0001319295,24.7185,0
1.6488,-0.0001252155,24.732,0,1.6488,-3.558404E-05,24.732,0
1.6497,-0.0004149233,24.7455,0,1.6497,-8.69459E-05,24.7455,0
1.6506,-0.0005653162,24.759,0,1.6506,-5.505455E-05,24.759,0
1.6515,-0.0008271611,24.7725,0,1.6515,7.888914E-05,24.7725,0
1.6524,-0.0006314489,24.786,0,1.6524,5.136187E-05,24.786,0
1.6533,-0.0001923552,24.7995,0,1.6533,7.922484E-05,24.7995,0
1.6542,-0.0001668421,24.813,0,1.6542,0.0001044022,24.813,0
1.6551,1.577783E-05,24.8265,0,1.6551,3.759823E-05,24.8265,0
1.656,0.0002467384,24.84,0,1.656,-9.735256E-06,24.84,0
1.6569,0.000105745,24.8535,0,1.6569,-6.6804E-05,24.8535,0
1.6578,0.0001420005,24.867,0,1.6578,-0.0001789273,24.867,0
1.6587,0.0001819486,24.8805,0,1.6587,-0.0002346532,24.8805,0
1.6596,-0.0001255512,24.894,0,1.6596,-0.0001527428,24.894,0
1.6605,-0.0001775845,24.9075,0,1.6605,-0.0001007095,24.9075,0
1.6614,0.0001715419,24.921,0,1.6614,1.309224E-05,24.921,0
1.6623,3.021286E-06,24.9345,0,1.6623,-1.980621E-05,24.9345,0
1.6632,-0.0001473716,24.948,0,1.6632,5.035477E-05,24.948,0
1.6641,-7.049668E-06,24.9615,0,1.6641,0.0001339437,24.9615,0
1.665,4.800488E-05,24.975,0,1.665,4.46479E-05,24.975,0
1.6659,-4.36408E-05,24.9885,0,1.6659,-3.424125E-05,24.9885,0
1.6668,8.291753E-05,25.002,0,1.6668,-3.289845E-05,25.002,0
1.6677,0.0004051881,25.0155,0,1.6677,-9.466698E-05,25.0155,0
1.6686,0.0005471885,25.029,0,1.6686,-0.0002047761,25.029,0
1.6695,0.0003219348,25.0425,0,1.6695,-0.0002353246,25.0425,0
1.6704,0.0002621805,25.056,0,1.6704,-0.0002178683,25.056,0
1.6713,-3.356985E-05,25.0695,0,1.6713,-0.000179263,25.0695,0
1.6722,-0.0003444266,25.083,0,1.6722,-7.385367E-06,25.083,0
1.6731,-0.0005320821,25.0965,0,1.6731,8.82887E-05,25.0965,0
1.674,-0.0003410697,25.11,0,1.674,0.0002259251,25.11,0
1.6749,-0.0001889983,25.1235,0,1.6749,0.0002692302,25.1235,0
1.6758,-7.150377E-05,25.137,0,1.6758,-1.074235E-05,25.137,0
1.6767,-3.692683E-05,25.1505,0,1.6767,-0.0001168231,25.1505,0
1.6776,-7.318227E-05,25.164,0,1.6776,-0.0002910506,25.164,0
1.6785,9.567407E-05,25.1775,0,1.6785,-0.0004169375,25.1775,0
1.6794,0.0003622186,25.191,0,1.6794,-0.0003659113,25.191,0
1.6803,0.0005300679,25.2045,0,1.6803,-6.478981E-05,25.2045,0
1.6812,0.0005408102,25.218,0,1.6812,0.0001621424,25.218,0
1.6821,0.0003578546,25.2315,0,1.6821,0.0003508049,25.2315,0
1.683,6.948959E-05,25.245,0,1.683,0.0003716182,25.245,0
1.6839,-0.000252781,25.2585,0,1.6839,0.0003487907,25.2585,0
1.6848,-0.0005817655,25.272,0,1.6848,0.0001467002,25.272,0
1.6857,-0.0006200351,25.2855,0,1.6857,4.766919E-05,25.2855,0
1.6866,-0.0002856794,25.299,0,1.6866,0.0001299153,25.299,0
1.6875,-0.0001829557,25.3125,0,1.6875,9.903105E-05,25.3125,0
1.6884,-0.0001712062,25.326,0,1.6884,4.53193E-05,25.326,0
1.6893,-0.0001628138,25.3395,0,1.6893,9.735256E-06,25.3395,0
1.6902,9.365987E-05,25.353,0,1.6902,-6.6804E-05,25.353,0
1.6911,8.224613E-05,25.3665,0,1.6911,-0.0001114519,25.3665,0
1.692,-6.277562E-05,25.38,0,1.692,-0.0001628138,25.38,0
1.6929,-1.107805E-05,25.3935,0,1.6929,-0.0003132067,25.3935,0
1.6938,-3.927672E-05,25.407,0,1.6938,-0.0002531167,25.407,0
1.6947,-5.270466E-05,25.4205,0,1.6947,-0.0002531167,25.4205,0
1.6956,3.155566E-05,25.434,0,1.6956,-0.0002306248,25.434,0
1.6965,0.0001282368,25.4475,0,1.6965,-8.224613E-05,25.4475,0
1.6974,9.869535E-05,25.461,0,1.6974,3.189136E-05,25.461,0
1.6983,5.539025E-05,25.4745,0,1.6983,5.639734E-05,25.4745,0
1.6992,7.418937E-05,25.488,0,1.6992,5.035477E-05,25.488,0
1.7001,1.007095E-05,25.5015,0,1.7001,-6.74754E-05,25.5015,0
1.701,-6.143282E-05,25.515,0,1.701,-0.0003998169,25.515,0
1.7019,-3.961242E-05,25.5285,0,1.7019,-0.0004249943,25.5285,0
1.7028,4.129091E-05,25.542,0,1.7028,-0.0003326772,25.542,0
1.7037,0.0001577783,25.5555,0,1.7037,9.701686E-05,25.5555,0
1.7046,0.000158114,25.569,0,1.7046,0.0004582284,25.569,0
1.7055,0.0002030976,25.5825,0,1.7055,0.0004317082,25.5825,0
1.7064,0.0002977645,25.596,0,1.7064,0.0003769894,25.596,0
1.7073,0.0002504311,25.6095,0,1.7073,0.0001715419,25.6095,0
1.7082,4.196231E-05,25.623,0,1.7082,-3.994812E-05,25.623,0
1.7091,-3.021286E-05,25.6365,0,1.7091,-0.0001990692,25.6365,0
1.71,-1.443504E-05,25.65,0,1.71,-4.229801E-05,25.65,0
1.7109,-2.987716E-05,25.6635,0,1.7109,9.030289E-05,25.6635,0
1.7118,8.224613E-05,25.677,0,1.7118,0.0001399863,25.677,0
1.7127,0.000133608,25.6905,0,1.7127,0.0001497215,25.6905,0
1.7136,0.0002574807,25.704,0,1.7136,1.846342E-05,25.704,0
1.7145,0.0003125353,25.7175,0,1.7145,-0.0001309224,25.7175,0
1.7154,0.0001809415,25.731,0,1.7154,-0.0001460288,25.731,0
1.7163,0.0002088045,25.7445,0,1.7163,-4.733349E-05,25.7445,0
1.7172,0.0002500954,25.758,0,1.7172,0.000105745,25.758,0
1.7181,-0.0001745632,25.7715,0,1.7181,2.685588E-05,25.7715,0
1.719,-0.0005283894,25.785,0,1.719,7.049668E-06,25.785,0
1.7199,-0.000780499,25.7985,0,1.7199,3.021286E-06,25.7985,0
1.7208,-0.000953048,25.812,0,1.7208,-5.706874E-06,25.812,0
1.7217,-0.0005508812,25.8255,0,1.7217,1.678492E-06,25.8255,0
1.7226,-0.0001201801,25.839,0,1.7226,-0.0001138018,25.839,0
1.7235,-6.143282E-05,25.8525,0,1.7235,-2.316319E-05,25.8525,0
1.7244,-1.947051E-05,25.866,0,1.7244,1.409934E-05,25.866,0
1.7253,2.584878E-05,25.8795,0,1.7253,-7.888914E-05,25.8795,0
1.7262,0.0001070878,25.893,0,1.7262,-0.0001064164,25.893,0
1.7271,0.0001930266,25.9065,0,1.7271,-8.426032E-05,25.9065,0
1.728,0.0002440528,25.92,0,1.728,-4.229801E-05,25.92,0
1.7289,0.0002678874,25.9335,0,1.7289,5.606165E-05,25.9335,0
1.7298,3.558404E-05,25.947,0,1.7298,5.035477E-05,25.947,0
1.7307,-7.553216E-05,25.9605,0,1.7307,-3.524834E-05,25.9605,0
1.7316,-5.874724E-05,25.974,0,1.7316,-0.0002239109,25.974,0
1.7325,-0.0001379721,25.9875,0,1.7325,-0.0005126116,25.9875,0
1.7334,0.0001232013,26.001,0,1.7334,-0.0005545739,26.001,0
1.7343,0.0002121614,26.0145,0,1.7343,-0.0004202945,26.0145,0
1.7352,0.0001305867,26.028,0,1.7352,-0.0002296178,26.028,0
1.7361,2.987716E-05,26.0415,0,1.7361,0.0002121614,26.0415,0
1.737,-4.129091E-05,26.055,0,1.737,0.0007865416,26.055,0
1.7379,-0.0003575189,26.0685,0,1.7379,0.0007570001,26.0685,0
1.7388,-0.0004481575,26.082,0,1.7388,0.0003028,26.082,0
1.7397,-0.0001319295,26.0955,0,1.7397,0.0002245823,26.0955,0
1.7406,-1.644922E-05,26.109,0,1.7406,0.0002000763,26.109,0
1.7415,4.46479E-05,26.1225,0,1.7415,9.735256E-05,26.1225,0
1.7424,0.0001708705,26.136,0,1.7424,5.304036E-05,26.136,0
1.7433,0.0001272297,26.1495,0,1.7433,-5.807584E-05,26.1495,0
1.7442,4.901198E-05,26.163,0,1.7442,-0.0001131304,26.163,0
1.7451,0.0001913481,26.1765,0,1.7451,-9.164568E-05,26.1765,0
1.746,0.0002987717,26.19,0,1.746,-0.0001735561,26.19,0
1.7469,0.0004145876,26.2035,0,1.7469,-0.000252781,26.2035,0
1.7478,0.0007019455,26.217,0,1.7478,-0.0002245823,26.217,0
1.7487,0.0004682994,26.2305,0,1.7487,-0.0002024262,26.2305,0
1.7496,3.121996E-05,26.244,0,1.7496,-0.0001577783,26.244,0
1.7505,-0.0005260395,26.2575,0,1.7505,-2.081331E-05,26.2575,0
1.7514,-0.0009016861,26.271,0,1.7514,-0.0001305867,26.271,0
1.7523,-0.0004649424,26.2845,0,1.7523,-0.0002057832,26.2845,0
1.7532,-0.0001453574,26.298,0,1.7532,-0.0001027237,26.298,0
1.7541,-0.0002205539,26.3115,0,1.7541,0.0001070878,26.3115,0
1.755,-0.000186984,26.325,0,1.755,0.0002057832,26.325,0
1.7559,-4.800488E-05,26.3385,0,1.7559,0.0001379721,26.3385,0
1.7568,1.913481E-05,26.352,0,1.7568,-3.021286E-06,26.352,0
1.7577,-2.24918E-05,26.3655,0,1.7577,-5.404745E-05,26.3655,0
1.7586,-2.383459E-05,26.379,0,1.7586,-1.242084E-05,26.379,0
1.7595,1.409934E-05,26.3925,0,1.7595,-8.358892E-05,26.3925,0
1.7604,4.46479E-05,26.406,0,1.7604,-0.0001312581,26.406,0
1.7613,-1.443504E-05,26.4195,0,1.7613,-1.309224E-05,26.4195,0
1.7622,8.493171E-05,26.433,0,1.7622,7.989624E-05,26.433,0
1.7631,-1.007095E-05,26.4465,0,1.7631,-2.987716E-05,26.4465,0
1.764,3.356985E-07,26.46,0,1.764,-1.544213E-05,26.46,0
1.7649,0.0002145113,26.4735,0,1.7649,2.652018E-05,26.4735,0
1.7658,0.0002165255,26.487,0,1.7658,-0.0001215228,26.487,0
1.7667,0.0001802701,26.5005,0,1.7667,-0.0002265965,26.5005,0
1.7676,5.706874E-05,26.514,0,1.7676,-0.0002185397,26.514,0
1.7685,-6.74754E-05,26.5275,0,1.7685,-0.0002406958,26.5275,0
1.7694,-0.0002272679,26.541,0,1.7694,-0.0004323796,26.541,0
1.7703,-0.0001554284,26.5545,0,1.7703,-0.0004800488,26.5545,0
1.7712,7.016098E-05,26.568,0,1.7712,-0.0002175326,26.568,0
1.7721,0.0001487144,26.5815,0,1.7721,0.0001064164,26.5815,0
1.773,0.0001044022,26.595,0,1.773,0.0001665064,26.595,0
1.7739,-9.063859E-06,26.6085,0,1.7739,0.0002514381,26.6085,0
1.7748,-0.000136965,26.622,0,1.7748,0.0004867628,26.622,0
1.7757,-0.0001735561,26.6355,0,1.7757,0.0006133211,26.6355,0
1.7766,-6.176852E-05,26.649,0,1.7766,0.0004635996,26.649,0
1.7775,-5.404745E-05,26.6625,0,1.7775,0.0002544594,26.6625,0
1.7784,1.309224E-05,26.676,0,1.7784,0.000119173,26.676,0
1.7793,8.426032E-05,26.6895,0,1.7793,2.24918E-05,26.6895,0
1.7802,0.0002333104,26.703,0,1.7802,2.450599E-05,26.703,0
1.7811,0.0003313344,26.7165,0,1.7811,4.53193E-05,26.7165,0
1.782,0.0002061189,26.73,0,1.782,-4.733349E-05,26.73,0
1.7829,9.533837E-05,26.7435,0,1.7829,-0.0001362936,26.7435,0
1.7838,-5.337606E-05,26.757,0,1.7838,-0.0002047761,26.757,0
1.7847,-0.0001836271,26.7705,0,1.7847,-0.0002312963,26.7705,0
1.7856,-1.879912E-05,26.784,0,1.7856,-0.0003195849,26.784,0
1.7865,7.217517E-05,26.7975,0,1.7865,-0.0004266728,26.7975,0
1.7874,-0.0001359579,26.811,0,1.7874,-0.0002333104,26.811,0
1.7883,-0.0002024262,26.8245,0,1.7883,-0.0001252155,26.8245,0
1.7892,-0.0002208896,26.838,0,1.7892,-1.107805E-05,26.838,0
1.7901,-0.0001440146,26.8515,0,1.7901,0.0001634852,26.8515,0
1.791,-2.685588E-06,26.865,0,1.791,0.0003111925,26.865,0
1.7919,6.143282E-05,26.8785,0,1.7919,0.0001863127,26.8785,0
1.7928,6.411841E-05,26.892,0,1.7928,0.0001701991,26.892,0
1.7937,0.0001339437,26.9055,0,1.7937,0.0001393149,26.9055,0
1.7946,0.0001661708,26.919,0,1.7946,8.191043E-05,26.919,0
1.7955,-9.835965E-05,26.9325,0,1.7955,1.443504E-05,26.9325,0
1.7964,-0.0001255512,26.946,0,1.7964,-4.699779E-06,26.946,0
1.7973,-5.203327E-05,26.9595,0,1.7973,-7.721065E-05,26.9595,0
1.7982,-5.035477E-05,26.973,0,1.7982,-0.0001047379,26.973,0
1.7991,-0.0001097734,26.9865,0,1.7991,-6.143282E-05,26.9865,0
1.8,-8.627451E-05,27,0,1.8,-0.0001440146,27,0
1.8009,4.196231E-05,27.0135,0,1.8009,-0.000200412,27.0135,0
1.8018,-3.356985E-07,27.027,0,1.8018,-0.0001460288,27.027,0
1.8027,1.443504E-05,27.0405,0,1.8027,-0.0001510643,27.0405,0
1.8036,0.0001423362,27.054,0,1.8036,-0.0001463645,27.054,0
1.8045,0.0002232395,27.0675,0,1.8045,-0.0001064164,27.0675,0
1.8054,0.0002252537,27.081,0,1.8054,-7.418937E-05,27.081,0
1.8063,8.493171E-05,27.0945,0,1.8063,-0.0001483787,27.0945,0
1.8072,-0.0001628138,27.108,0,1.8072,-0.0002339818,27.108,0
1.8081,-0.0002554666,27.1215,0,1.8081,-0.0001641566,27.1215,0
1.809,-0.0002440528,27.135,0,1.809,-0.0001198444,27.135,0
1.8099,-0.0001957122,27.1485,0,1.8099,-5.606165E-05,27.1485,0
1.8108,-0.0001181659,27.162,0,1.8108,2.1149E-05,27.162,0
1.8117,0.0001211871,27.1755,0,1.8117,0.000221561,27.1755,0
1.8126,0.0002413672,27.189,0,1.8126,0.0002893721,27.189,0
1.8135,0.0001500572,27.2025,0,1.8135,0.0002615091,27.2025,0
1.8144,3.927672E-05,27.216,0,1.8144,0.0002329748,27.216,0
1.8153,-0.0001044022,27.2295,0,1.8153,0.0001221943,27.2295,0
1.8162,-0.0002306248,27.243,0,1.8162,4.766919E-05,27.243,0
1.8171,-0.0003655757,27.2565,0,1.8171,-4.53193E-05,27.2565,0
1.818,-0.0002101472,27.27,0,1.818,1.007095E-06,27.27,0
1.8189,-0.0001087663,27.2835,0,1.8189,-2.014191E-06,27.2835,0
1.8198,-3.121996E-05,27.297,0,1.8198,-7.083238E-05,27.297,0
1.8207,7.821774E-05,27.3105,0,1.8207,-3.256275E-05,27.3105,0
