X[s],"Trigno IM sensor 3: EMG 3 (IM)",X[s],"Trigno IM sensor 3: Mag 3.Z (IM)",X[s],"Trigno IM sensor 4: EMG 4 (IM)",X[s],"Trigno IM sensor 4: Mag 4.Z (IM)"
0.000000,-1.947051E-05,0.000000,116,0.000000,-2.450599E-05,0.000000,0
0.0009,-3.860533E-05,0.0135,116,0.0009,-4.36408E-06,0.0135,2
0.0018,-2.920577E-05,0.027,117,0.0018,2.920577E-05,0.027,3
0.0027,-1.409934E-05,0.0405,116,0.0027,7.721065E-06,0.0405,0
0.0036,1.376364E-05,0.054,116,0.0036,-3.088426E-05,0.054,2
0.0045,4.800488E-05,0.0675,116,0.0045,-3.256275E-05,0.0675,0
0.0054,7.083238E-05,0.081,116,0.0054,-5.807584E-05,0.081,2
0.0063,6.61326E-05,0.0945,116,0.0063,-5.001907E-05,0.0945,1
0.0072,3.054856E-05,0.108,114,0.0072,-3.289845E-05,0.108,0
0.0081,1.107805E-05,0.1215,115,0.0081,-1.913481E-05,0.1215,2
0.009000001,1.678492E-06,0.135,115,0.009000001,-3.524834E-05,0.135,0
0.0099,-2.349889E-06,0.1485,114,0.0099,-2.719158E-05,0.1485,0
0.0108,5.706874E-06,0.162,115,0.0108,-1.913481E-05,0.162,2
0.0117,-2.349889E-06,0.1755,117,0.0117,-3.256275E-05,0.1755,0
0.0126,-1.544213E-05,0.189,116,0.0126,-2.719158E-05,0.189,1
0.0135,1.007095E-05,0.2025,115,0.0135,1.342794E-06,0.2025,3
0.0144,-1.376364E-05,0.216,116,0.0144,-1.644922E-05,0.216,2
0.0153,-2.853437E-05,0.2295,116,0.0153,-2.887007E-05,0.2295,1
0.0162,1.409934E-05,0.243,115,0.0162,-9.063859E-06,0.243,1
0.0171,-4.632639E-05,0.2565,116,0.0171,-5.270466E-05,0.2565,1
0.018,-6.915389E-05,0.27,117,0.018,-3.726253E-05,0.27,0
0.0189,-5.874724E-05,0.2835,115,0.0189,-4.666209E-05,0.2835,1
0.0198,-3.826963E-05,0.297,117,0.0198,-3.121996E-05,0.297,1
0.0207,1.678492E-06,0.3105,116,0.0207,-1.309224E-05,0.3105,1
0.0216,-1.980621E-05,0.324,117,0.0216,-3.692683E-05,0.324,1
0.0225,6.378271E-06,0.3375,118,0.0225,-3.726253E-05,0.3375,1
0.0234,3.994812E-05,0.351,118,0.0234,-1.309224E-05,0.351,1
0.0243,2.24918E-05,0.3645,116,0.0243,-1.644922E-05,0.3645,2
0.0252,8.056763E-06,0.378,115,0.0252,-2.685588E-05,0.378,2
0.0261,8.392462E-06,0.3915,116,0.0261,-4.36408E-06,0.3915,0
0.027,1.376364E-05,0.405,116,0.027,-3.021286E-05,0.405,-2
0.0279,2.618448E-05,0.4185,117,0.0279,-2.18204E-05,0.4185,0
0.0288,-2.24918E-05,0.432,117,0.0288,-7.016098E-05,0.432,-1
0.0297,-3.390555E-05,0.4455,116,0.0297,-1.812772E-05,0.4455,4
0.0306,-2.24918E-05,0.459,116,0.0306,-3.021286E-06,0.459,1
0.0315,-3.356985E-07,0.4725,117,0.0315,-3.558404E-05,0.4725,0
0.0324,-1.443504E-05,0.486,116,0.0324,-5.337606E-05,0.486,0
0.0333,-1.913481E-05,0.4995,116,0.0333,1.040665E-05,0.4995,1
0.0342,-4.36408E-06,0.513,117,0.0342,-2.383459E-05,0.513,1
0.0351,-2.618448E-05,0.5265,118,0.0351,-5.807584E-05,0.5265,1
0.036,-7.721065E-06,0.54,116,0.036,2.047761E-05,0.54,2
0.0369,-2.853437E-05,0.5535,117,0.0369,-2.685588E-06,0.5535,0
0.0378,-6.478981E-05,0.567,117,0.0378,-5.203327E-05,0.567,0
0.0387,-0.0001131304,0.5805,118,0.0387,-5.471885E-05,0.5805,-2
0.0396,-7.956054E-05,0.594,117,0.0396,5.371176E-06,0.594,2
0.0405,-3.927672E-05,0.6075,117,0.0405,3.021286E-06,0.6075,0
0.0414,1.242084E-05,0.621,116,0.0414,6.378271E-06,0.621,0
0.0423,7.486076E-05,0.6345,116,0.0423,-4.632639E-05,0.6345,1
0.0432,0.0001225299,0.648,116,0.0432,-4.699779E-06,0.648,1
0.0441,5.136187E-05,0.6615,118,0.0441,1.510643E-05,0.6615,-1
0.045,-5.706874E-06,0.675,117,0.045,-8.728161E-06,0.675,0
0.0459,1.007095E-05,0.6885,116,0.0459,-3.591974E-05,0.6885,0
0.0468,-1.544213E-05,0.702,116,0.0468,3.088426E-05,0.702,1
0.0477,-6.009003E-05,0.7155,116,0.0477,2.316319E-05,0.7155,1
0.0486,-5.136187E-05,0.729,117,0.0486,-4.46479E-05,0.729,2
0.0495,-4.33051E-05,0.7425,115,0.0495,3.491264E-05,0.7425,1
0.0504,-1.879912E-05,0.756,117,0.0504,5.069047E-05,0.756,0
0.0513,-2.1149E-05,0.7695,117,0.0513,-3.356985E-05,0.7695,-1
0.0522,-2.014191E-05,0.783,116,0.0522,5.035477E-06,0.783,0
0.0531,-1.644922E-05,0.7965,116,0.0531,4.263371E-05,0.7965,-1
0.054,1.040665E-05,0.81,117,0.054,1.544213E-05,0.81,1
0.0549,1.846342E-05,0.8235,117,0.0549,-8.728161E-06,0.8235,1
0.0558,-4.36408E-06,0.837,117,0.0558,-4.263371E-05,0.837,0
0.0567,-1.376364E-05,0.8505,116,0.0567,-2.047761E-05,0.8505,-1
0.0576,1.443504E-05,0.864,117,0.0576,-6.915389E-05,0.864,0
0.0585,1.376364E-05,0.8775,117,0.0585,-0.0001044022,0.8775,1
0.0594,2.987716E-05,0.891,116,0.0594,-0.0001003738,0.891,1
0.0603,3.524834E-05,0.9045,117,0.0603,-2.786297E-05,0.9045,1
0.0612,3.659113E-05,0.918,116,0.0612,-8.392462E-06,0.918,0
0.0621,2.786297E-05,0.9315,116,0.0621,-1.477073E-05,0.9315,0
0.063,4.800488E-05,0.945,116,0.063,3.088426E-05,0.945,-1
0.0639,-2.887007E-05,0.9585,116,0.0639,1.846342E-05,0.9585,0
0.0648,-6.042573E-05,0.972,117,0.0648,-5.539025E-05,0.972,-2
0.0657,6.042573E-06,0.9855,118,0.0657,-1.947051E-05,0.9855,0
0.0666,-9.063859E-06,0.999,117,0.0666,-1.208515E-05,0.999,1
0.0675,-2.1149E-05,1.0125,117,0.0675,-3.323415E-05,1.0125,0
0.0684,3.356985E-07,1.026,117,0.0684,-3.021286E-05,1.026,0
0.0693,3.323415E-05,1.0395,117,0.0693,-6.277562E-05,1.0395,0
0.0702,3.021286E-06,1.053,118,0.0702,7.721065E-06,1.053,1
0.0711,2.047761E-05,1.0665,119,0.0711,4.49836E-05,1.0665,1
0.072,1.577783E-05,1.08,119,0.072,-2.618448E-05,1.08,3
0.0729,-8.728161E-06,1.0935,119,0.0729,-7.150377E-05,1.0935,3
0.07380001,5.035477E-06,1.107,119,0.07380001,1.779202E-05,1.107,1
0.07470001,1.477073E-05,1.1205,120,0.07470001,-1.007095E-06,1.1205,0
0.0756,-3.021286E-06,1.134,121,0.0756,-7.083238E-05,1.134,2
0.0765,-1.678492E-06,1.1475,119,0.0765,6.378271E-06,1.1475,2
0.0774,-3.356985E-05,1.161,119,0.0774,3.189136E-05,1.161,4
0.0783,-2.1149E-05,1.1745,120,0.0783,-3.591974E-05,1.1745,2
0.0792,1.242084E-05,1.188,120,0.0792,1.007095E-05,1.188,0
0.0801,-1.007095E-05,1.2015,120,0.0801,3.961242E-05,1.2015,3
0.081,-4.028382E-06,1.215,120,0.081,2.349889E-06,1.215,2
0.0819,-2.584878E-05,1.2285,121,0.0819,-4.33051E-05,1.2285,1
0.0828,-3.860533E-05,1.242,121,0.0828,-7.049668E-05,1.242,2
0.0837,-3.256275E-05,1.2555,120,0.0837,-1.376364E-05,1.2555,0
0.0846,-7.452507E-05,1.269,121,0.0846,-6.713969E-07,1.269,2
0.0855,-6.57969E-05,1.2825,121,0.0855,-4.061952E-05,1.2825,3
0.0864,-2.383459E-05,1.296,118,0.0864,-6.71397E-05,1.296,2
0.0873,-5.236896E-05,1.3095,119,0.0873,-1.376364E-05,1.3095,2
0.0882,-4.699779E-05,1.323,121,0.0882,-3.424125E-05,1.323,4
0.0891,-1.443504E-05,1.3365,119,0.0891,-8.82887E-05,1.3365,5
0.09,7.385367E-06,1.35,121,0.09,2.014191E-06,1.35,2
0.0909,3.155566E-05,1.3635,120,0.0909,-3.356985E-06,1.3635,2
0.0918,2.853437E-05,1.377,119,0.0918,-7.016098E-05,1.377,2
0.0927,1.242084E-05,1.3905,119,0.0927,-4.263371E-05,1.3905,0
0.0936,1.040665E-05,1.404,121,0.0936,5.706874E-06,1.404,6
0.09450001,3.356985E-07,1.4175,120,0.09450001,-2.719158E-05,1.4175,7
0.09540001,9.063859E-06,1.431,120,0.09540001,-2.618448E-05,1.431,4
0.09630001,-1.577783E-05,1.4445,120,0.09630001,-4.565499E-05,1.4445,2
0.0972,-1.040665E-05,1.458,120,0.0972,-3.021286E-06,1.458,0
0.0981,-5.706874E-06,1.4715,121,0.0981,2.484169E-05,1.4715,1
0.099,-2.047761E-05,1.485,120,0.099,-4.061952E-05,1.485,5
0.0999,-3.591974E-05,1.4985,121,0.0999,-5.136187E-05,1.4985,3
0.1008,-1.376364E-05,1.512,120,0.1008,2.24918E-05,1.512,6
0.1017,-9.735256E-06,1.5255,120,0.1017,1.947051E-05,1.5255,4
0.1026,-1.644922E-05,1.539,119,0.1026,-5.673304E-05,1.539,3
0.1035,1.040665E-05,1.5525,120,0.1035,2.719158E-05,1.5525,3
0.1044,-6.042573E-06,1.566,120,0.1044,5.136187E-05,1.566,1
0.1053,-6.243992E-05,1.5795,119,0.1053,-2.450599E-05,1.5795,3
0.1062,-6.109713E-05,1.593,120,0.1062,0,1.593,4
0.1071,-3.659113E-05,1.6065,120,0.1071,2.652018E-05,1.6065,4
0.108,-4.49836E-05,1.62,119,0.108,-1.712062E-05,1.62,1
0.1089,-4.36408E-05,1.6335,120,0.1089,-2.18204E-05,1.6335,2
0.1098,-1.644922E-05,1.647,120,0.1098,-2.316319E-05,1.647,1
0.1107,-1.376364E-05,1.6605,121,0.1107,-5.035477E-06,1.6605,2
0.1116,-5.035477E-06,1.674,120,0.1116,1.040665E-05,1.674,4
0.1125,5.706874E-06,1.6875,120,0.1125,-1.577783E-05,1.6875,2
0.1134,5.807584E-05,1.701,120,0.1134,-5.471885E-05,1.701,3
0.1143,6.277562E-05,1.7145,120,0.1143,1.510643E-05,1.7145,1
0.1152,3.994812E-05,1.728,120,0.1152,-1.275654E-05,1.728,1
0.1161,3.155566E-05,1.7415,120,0.1161,-7.284657E-05,1.7415,6
0.117,2.21561E-05,1.755,120,0.117,-3.692683E-06,1.755,0
0.1179,3.390555E-05,1.7685,120,0.1179,4.699779E-06,1.7685,3
0.1188,2.887007E-05,1.782,120,0.1188,-3.726253E-05,1.782,2
0.1197,3.659113E-05,1.7955,120,0.1197,-3.994812E-05,1.7955,3
0.1206,3.424125E-05,1.809,119,0.1206,8.056763E-06,1.809,3
0.1215,5.001907E-05,1.8225,120,0.1215,-6.378271E-06,1.8225,2
0.1224,7.049668E-06,1.836,120,0.1224,-2.920577E-05,1.836,3
0.1233,-7.049668E-06,1.8495,120,0.1233,-7.687495E-05,1.8495,2
0.1242,-5.035477E-06,1.863,119,0.1242,-3.054856E-05,1.863,2
0.1251,-4.934768E-05,1.8765,119,0.1251,1.376364E-05,1.8765,2
0.126,-7.922484E-05,1.89,119,0.126,-3.558404E-05,1.89,0
0.1269,-5.404745E-05,1.9035,120,0.1269,-7.016098E-05,1.9035,2
0.1278,-4.53193E-05,1.917,120,0.1278,1.107805E-05,1.917,1
0.1287,-6.54612E-05,1.9305,121,0.1287,2.014191E-06,1.9305,3
0.1296,-3.457694E-05,1.944,120,0.1296,-7.217517E-05,1.944,1
0.1305,2.28275E-05,1.9575,121,0.1305,3.692683E-06,1.9575,2
0.1314,5.975433E-05,1.971,120,0.1314,7.049668E-06,1.971,0
0.1323,5.069047E-05,1.9845,120,0.1323,-6.411841E-05,1.9845,4
0.1332,5.706874E-06,1.998,119,0.1332,-2.719158E-05,1.998,2
0.1341,-2.383459E-05,2.0115,119,0.1341,1.141375E-05,2.0115,0
0.135,-2.18204E-05,2.025,119,0.135,-5.706874E-06,2.025,0
0.1359,-3.121996E-05,2.0385,119,0.1359,-2.450599E-05,2.0385,5
0.1368,-3.558404E-05,2.052,120,0.1368,-4.901198E-05,2.052,2
0.1377,-2.383459E-05,2.0655,118,0.1377,6.378271E-06,2.0655,0
0.1386,-1.678492E-05,2.079,119,0.1386,2.383459E-05,2.079,3
0.1395,-5.706874E-06,2.0925,119,0.1395,-2.18204E-05,2.0925,2
0.1404,-8.056763E-06,2.106,119,0.1404,-4.599069E-05,2.106,3
0.1413,7.721065E-06,2.1195,119,0.1413,1.208515E-05,2.1195,3
0.1422,3.189136E-05,2.133,119,0.1422,3.356985E-07,2.133,2
0.1431,1.309224E-05,2.1465,119,0.1431,-3.356985E-05,2.1465,2
0.144,-2.081331E-05,2.16,119,0.144,2.014191E-06,2.16,2
0.1449,3.659113E-05,2.1735,119,0.1449,-2.987716E-05,2.1735,2
0.1458,3.726253E-05,2.187,119,0.1458,-4.36408E-05,2.187,1
0.1467,-6.210422E-05,2.2005,119,0.1467,4.028382E-06,2.2005,6
0.1476,-3.591974E-05,2.214,119,0.1476,6.076142E-05,2.214,-1
0.1485,-2.24918E-05,2.2275,120,0.1485,6.713969E-06,2.2275,3
0.1494,-2.987716E-05,2.241,119,0.1494,-1.107805E-05,2.241,0
0.1503,-2.21561E-05,2.2545,119,0.1503,-7.855344E-05,2.2545,2
0.1512,3.591974E-05,2.268,119,0.1512,-5.874724E-05,2.268,0
0.1521,3.390555E-05,2.2815,118,0.1521,-2.584878E-05,2.2815,4
0.153,2.081331E-05,2.295,118,0.153,-5.136187E-05,2.295,0
0.1539,2.1149E-05,2.3085,118,0.1539,-9.030289E-05,2.3085,1
0.1548,-1.107805E-05,2.322,119,0.1548,-1.208515E-05,2.322,1
0.1557,-2.24918E-05,2.3355,119,0.1557,3.021286E-06,2.3355,2
0.1566,-2.21561E-05,2.349,119,0.1566,-6.881819E-05,2.349,0
0.1575,-5.673304E-05,2.3625,118,0.1575,7.049668E-06,2.3625,4
0.1584,-4.162661E-05,2.376,118,0.1584,1.409934E-05,2.376,1
0.1593,1.712062E-05,2.3895,117,0.1593,-4.901198E-05,2.3895,1
0.1602,-2.014191E-06,2.403,118,0.1602,2.685588E-06,2.403,0
0.1611,4.699779E-06,2.4165,119,0.1611,2.887007E-05,2.4165,0
0.162,7.721065E-06,2.43,120,0.162,7.721065E-06,2.43,3
0.1629,9.735256E-06,2.4435,119,0.1629,-1.409934E-05,2.4435,1
0.1638,-1.712062E-05,2.457,118,0.1638,-5.102617E-05,2.457,0
0.1647,-3.356985E-07,2.4705,119,0.1647,-3.021286E-06,2.4705,2
0.1656,-1.477073E-05,2.484,119,0.1656,-5.706874E-06,2.484,1
0.1665,-5.136187E-05,2.4975,119,0.1665,-5.740444E-05,2.4975,0
0.1674,-2.316319E-05,2.511,118,0.1674,-6.411841E-05,2.511,3
0.1683,-1.779202E-05,2.5245,119,0.1683,1.342794E-06,2.5245,3
0.1692,-5.471885E-05,2.538,117,0.1692,-1.577783E-05,2.538,2
0.1701,-3.659113E-05,2.5515,119,0.1701,-7.083238E-05,2.5515,1
0.171,6.713969E-07,2.565,118,0.171,5.035477E-06,2.565,6
0.1719,5.035477E-06,2.5785,119,0.1719,2.316319E-05,2.5785,5
0.1728,-1.309224E-05,2.592,119,0.1728,-3.356985E-05,2.592,2
0.1737,2.920577E-05,2.6055,119,0.1737,-2.316319E-05,2.6055,2
0.1746,6.64683E-05,2.619,118,0.1746,3.021286E-06,2.619,0
0.1755,3.927672E-05,2.6325,118,0.1755,-1.007095E-05,2.6325,2
0.1764,1.812772E-05,2.646,120,0.1764,-2.28275E-05,2.646,5
0.1773,1.846342E-05,2.6595,118,0.1773,-5.001907E-05,2.6595,4
0.1782,-1.141375E-05,2.673,119,0.1782,-6.042573E-06,2.673,3
0.1791,-3.054856E-05,2.6865,118,0.1791,3.625543E-05,2.6865,1
0.18,2.349889E-06,2.7,119,0.18,-2.014191E-06,2.7,5
0.1809,0,2.7135,118,0.1809,-3.927672E-05,2.7135,0
0.1818,4.699779E-06,2.727,120,0.1818,3.256275E-05,2.727,4
0.1827,-4.36408E-06,2.7405,119,0.1827,-1.712062E-05,2.7405,1
0.1836,-2.920577E-05,2.754,118,0.1836,-7.754635E-05,2.754,3
0.1845,-3.793393E-05,2.7675,120,0.1845,-5.371176E-06,2.7675,3
0.1854,-6.378271E-05,2.781,118,0.1854,5.035477E-06,2.781,2
0.1863,-5.136187E-05,2.7945,117,0.1863,-7.150377E-05,2.7945,1
0.1872,-1.007095E-06,2.808,117,0.1872,-7.922484E-05,2.808,2
0.1881,-1.242084E-05,2.8215,118,0.1881,-2.484169E-05,2.8215,0
0.189,5.035477E-06,2.835,119,0.189,-3.524834E-05,2.835,1
0.1899,-2.24918E-05,2.8485,119,0.1899,-8.728161E-06,2.8485,2
0.1908,-2.719158E-05,2.862,117,0.1908,-1.376364E-05,2.862,2
0.1917,-2.349889E-06,2.8755,117,0.1917,9.063859E-06,2.8755,2
0.1926,-2.685588E-06,2.889,116,0.1926,3.759823E-05,2.889,4
0.1935,-1.510643E-05,2.9025,116,0.1935,5.706874E-06,2.9025,1
0.1944,7.049668E-06,2.916,117,0.1944,-2.786297E-05,2.916,4
0.1953,-2.21561E-05,2.9295,115,0.1953,2.853437E-05,2.9295,0
0.1962,-1.242084E-05,2.943,116,0.1962,2.349889E-06,2.943,0
0.1971,1.678492E-06,2.9565,117,0.1971,-9.701686E-05,2.9565,1
0.198,-1.678492E-06,2.97,116,0.198,-2.853437E-05,2.97,0
0.1989,-1.812772E-05,2.9835,116,0.1989,-2.316319E-05,2.9835,3
0.1998,-1.309224E-05,2.997,0,0.1998,-7.016098E-05,2.997,0
0.2007,8.056763E-06,3.0105,0,0.2007,8.728161E-06,3.0105,0
0.2016,1.174945E-05,3.024,0,0.2016,7.049668E-05,3.024,0
0.2025,-5.371176E-06,3.0375,0,0.2025,-4.028382E-06,3.0375,0
0.2034,-2.349889E-05,3.051,0,0.2034,-3.256275E-05,3.051,0
0.2043,-2.987716E-05,3.0645,0,0.2043,-5.169757E-05,3.0645,0
0.2052,-2.349889E-05,3.078,0,0.2052,-3.356985E-07,3.078,0
0.2061,-1.678492E-06,3.0915,0,0.2061,1.779202E-05,3.0915,0
0.207,-2.584878E-05,3.105,0,0.207,-2.786297E-05,3.105,0
0.2079,-3.524834E-05,3.1185,0,0.2079,-4.733349E-05,3.1185,0
0.2088,1.712062E-05,3.132,0,0.2088,6.378271E-06,3.132,0
0.2097,1.242084E-05,3.1455,0,0.2097,-4.699779E-06,3.1455,0
0.2106,-3.021286E-05,3.159,0,0.2106,-7.586786E-05,3.159,0
0.2115,-2.349889E-05,3.1725,0,0.2115,6.713969E-07,3.1725,0
0.2124,-1.443504E-05,3.186,0,0.2124,2.081331E-05,3.186,0
0.2133,-2.652018E-05,3.1995,0,0.2133,-5.841154E-05,3.1995,0
0.2142,9.735256E-06,3.213,0,0.2142,-3.390555E-05,3.213,0
0.2151,3.054856E-05,3.2265,0,0.2151,2.316319E-05,3.2265,0
0.216,-1.678492E-05,3.24,0,0.216,-1.678492E-05,3.24,0
0.2169,-7.049668E-06,3.2535,0,0.2169,-2.786297E-05,3.2535,0
0.2178,-1.208515E-05,3.267,0,0.2178,-3.726253E-05,3.267,0
0.2187,2.1149E-05,3.2805,0,0.2187,-1.846342E-05,3.2805,0
0.2196,8.392462E-06,3.294,0,0.2196,-2.316319E-05,3.294,0
0.2205,-2.584878E-05,3.3075,0,0.2205,-5.740444E-05,3.3075,0
0.2214,4.028382E-06,3.321,0,0.2214,-5.807584E-05,3.321,0
0.2223,-1.846342E-05,3.3345,0,0.2223,3.692683E-06,3.3345,0
0.2232,-2.652018E-05,3.348,0,0.2232,-1.678492E-06,3.348,0
0.2241,-4.36408E-06,3.3615,0,0.2241,-7.754635E-05,3.3615,0
0.225,-1.007095E-05,3.375,0,0.225,-1.107805E-05,3.375,0
0.2259,3.121996E-05,3.3885,0,0.2259,2.014191E-06,3.3885,0
0.2268,1.376364E-05,3.402,0,0.2268,-4.901198E-05,3.402,0
0.2277,-6.378271E-06,3.4155,0,0.2277,-4.061952E-05,3.4155,0
0.2286,-5.706874E-06,3.429,0,0.2286,9.735256E-06,3.429,0
0.2295,-6.378271E-06,3.4425,0,0.2295,2.349889E-06,3.4425,0
0.2304,-2.24918E-05,3.456,0,0.2304,-2.551309E-05,3.456,0
0.2313,9.063859E-06,3.4695,0,0.2313,-5.136187E-05,3.4695,0
0.2322,4.263371E-05,3.483,0,0.2322,-5.706874E-06,3.483,0
0.2331,1.040665E-05,3.4965,0,0.2331,1.376364E-05,3.4965,0
0.234,-2.584878E-05,3.51,0,0.234,-3.524834E-05,3.51,0
0.2349,1.644922E-05,3.5235,0,0.2349,-5.136187E-05,3.5235,0
0.2358,4.36408E-06,3.537,0,0.2358,1.846342E-05,3.537,0
0.2367,-1.107805E-05,3.5505,0,0.2367,1.409934E-05,3.5505,0
0.2376,-6.713969E-07,3.564,0,0.2376,-6.74754E-05,3.564,0
0.2385,2.014191E-06,3.5775,0,0.2385,1.779202E-05,3.5775,0
0.2394,-6.378271E-06,3.591,0,0.2394,5.169757E-05,3.591,0
0.2403,3.356985E-06,3.6045,0,0.2403,-1.712062E-05,3.6045,0
0.2412,4.599069E-05,3.618,0,0.2412,1.040665E-05,3.618,0
0.2421,-3.356985E-07,3.6315,0,0.2421,2.786297E-05,3.6315,0
0.243,-6.042573E-06,3.645,0,0.243,-3.558404E-05,3.645,0
0.2439,-2.349889E-06,3.6585,0,0.2439,-3.894102E-05,3.6585,0
0.2448,-4.229801E-05,3.672,0,0.2448,-7.486076E-05,3.672,0
0.2457,-7.083238E-05,3.6855,0,0.2457,-3.323415E-05,3.6855,0
0.2466,-7.754635E-05,3.699,0,0.2466,3.356985E-06,3.699,0
0.2475,-4.800488E-05,3.7125,0,0.2475,-1.309224E-05,3.7125,0
0.2484,-1.745632E-05,3.726,0,0.2484,-4.196231E-05,3.726,0
0.2493,3.927672E-05,3.7395,0,0.2493,2.987716E-05,3.7395,0
0.2502,4.766919E-05,3.753,0,0.2502,4.766919E-05,3.753,0
0.2511,1.141375E-05,3.7665,0,0.2511,-4.766919E-05,3.7665,0
0.252,-1.107805E-05,3.78,0,0.252,-1.712062E-05,3.78,0
0.2529,5.001907E-05,3.7935,0,0.2529,-6.713969E-06,3.7935,0
0.2538,3.726253E-05,3.807,0,0.2538,-5.841154E-05,3.807,0
0.2547,2.517739E-05,3.8205,0,0.2547,-4.028382E-05,3.8205,0
0.2556,1.107805E-05,3.834,0,0.2556,-3.021286E-06,3.834,0
0.2565,1.342794E-05,3.8475,0,0.2565,-6.713969E-07,3.8475,0
0.2574,-1.007095E-06,3.861,0,0.2574,-1.007095E-06,3.861,0
0.2583,1.712062E-05,3.8745,0,0.2583,-5.639734E-05,3.8745,0
0.2592,-1.678492E-06,3.888,0,0.2592,-5.706874E-06,3.888,0
0.2601,-2.21561E-05,3.9015,0,0.2601,3.860533E-05,3.9015,0
0.261,-3.692683E-06,3.915,0,0.261,-2.081331E-05,3.915,0
0.2619,-9.735256E-06,3.9285,0,0.2619,-5.673304E-05,3.9285,0
0.2628,-2.987716E-05,3.942,0,0.2628,1.376364E-05,3.942,0
0.2637,-9.399558E-06,3.9555,0,0.2637,-2.014191E-06,3.9555,0
0.2646,-3.289845E-05,3.969,0,0.2646,-8.224613E-05,3.969,0
0.2655,-5.404745E-05,3.9825,0,0.2655,1.644922E-05,3.9825,0
0.2664,-4.733349E-05,3.996,0,0.2664,5.035477E-06,3.996,0
0.2673,-3.961242E-05,4.0095,0,0.2673,-7.687495E-05,4.0095,0
0.2682,-4.733349E-05,4.023,0,0.2682,-6.344701E-05,4.023,0
0.2691,-5.136187E-05,4.0365,0,0.2691,-9.735256E-06,4.0365,0
0.27,2.21561E-05,4.05,0,0.27,-2.517739E-05,4.05,0
0.2709,4.162661E-05,4.0635,0,0.2709,-1.678492E-06,4.0635,0
0.2718,-4.028382E-06,4.077,0,0.2718,-4.43122E-05,4.077,0
0.2727,-1.342794E-06,4.0905,0,0.2727,-6.713969E-06,4.0905,0
0.2736,-4.699779E-05,4.104,0,0.2736,-6.713969E-07,4.104,0
0.2745,-4.666209E-05,4.1175,0,0.2745,-4.867628E-05,4.1175,0
0.2754,-2.450599E-05,4.131,0,0.2754,-5.236896E-05,4.131,0
0.2763,-1.107805E-05,4.1445,0,0.2763,1.913481E-05,4.1445,0
0.2772,-1.174945E-05,4.158,0,0.2772,1.846342E-05,4.158,0
0.2781,-1.376364E-05,4.1715,0,0.2781,-7.251087E-05,4.1715,0
0.279,-9.735256E-06,4.185,0,0.279,-2.417029E-05,4.185,0
0.2799,4.196231E-05,4.1985,0,0.2799,7.721065E-06,4.1985,0
0.2808,2.1149E-05,4.212,0,0.2808,-5.807584E-05,4.212,0
0.2817,2.719158E-05,4.2255,0,0.2817,-1.174945E-05,4.2255,0
0.2826,9.063859E-06,4.239,0,0.2826,6.210422E-05,4.239,0
0.2835,-1.007095E-06,4.2525,0,0.2835,1.577783E-05,4.2525,0
0.2844,4.028382E-06,4.266,0,0.2844,0,4.266,0
0.2853,7.721065E-06,4.2795,0,0.2853,-5.069047E-05,4.2795,0
0.2862,-5.035477E-06,4.293,0,0.2862,-1.611353E-05,4.293,0
0.2871,-1.107805E-05,4.3065,0,0.2871,3.356985E-06,4.3065,0
0.288,-7.385367E-06,4.32,0,0.288,-3.726253E-05,4.32,0
0.2889,-2.450599E-05,4.3335,0,0.2889,-3.927672E-05,4.3335,0
0.2898,-1.007095E-05,4.347,0,0.2898,2.517739E-05,4.347,0
0.2907,1.040665E-05,4.3605,0,0.2907,-2.047761E-05,4.3605,0
0.2916,-3.356985E-06,4.374,0,0.2916,-8.493171E-05,4.374,0
0.2925,-1.913481E-05,4.3875,0,0.2925,-1.040665E-05,4.3875,0
0.2934,6.378271E-06,4.401,0,0.2934,1.409934E-05,4.401,0
0.2943,7.721065E-06,4.4145,0,0.2943,-5.673304E-05,4.4145,0
0.2952,-1.913481E-05,4.428,0,0.2952,-5.774014E-05,4.428,0
0.2961,-1.174945E-05,4.4415,0,0.2961,1.510643E-05,4.4415,0
0.297,5.371176E-06,4.455,0,0.297,-1.107805E-05,4.455,0
0.2979,4.699779E-06,4.4685,0,0.2979,-2.987716E-05,4.4685,0
0.2988,8.392462E-06,4.482,0,0.2988,-5.337606E-05,4.482,0
0.2997,-1.779202E-05,4.4955,0,0.2997,-1.007095E-06,4.4955,0
0.3006,-4.599069E-05,4.509,0,0.3006,-1.107805E-05,4.509,0
0.3015,-2.685588E-06,4.5225,0,0.3015,-2.450599E-05,4.5225,0
0.3024,5.035477E-06,4.536,0,0.3024,-4.061952E-05,4.536,0
0.3033,-3.558404E-05,4.5495,0,0.3033,1.879912E-05,4.5495,0
0.3042,-4.061952E-05,4.563,0,0.3042,-3.356985E-07,4.563,0
0.3051,-3.558404E-05,4.5765,0,0.3051,-6.042573E-05,4.5765,0
0.306,-2.920577E-05,4.59,0,0.306,1.309224E-05,4.59,0
0.3069,-1.544213E-05,4.6035,0,0.3069,2.21561E-05,4.6035,0
0.3078,-2.349889E-06,4.617,0,0.3078,-3.457694E-05,4.617,0
0.3087,-5.035477E-05,4.6305,0,0.3087,-2.652018E-05,4.6305,0
0.3096,-2.987716E-05,4.644,0,0.3096,1.007095E-06,4.644,0
0.3105,-1.443504E-05,4.6575,0,0.3105,-1.242084E-05,4.6575,0
0.3114,-2.18204E-05,4.671,0,0.3114,-9.063859E-06,4.671,0
0.3123,-2.316319E-05,4.6845,0,0.3123,-4.39765E-05,4.6845,0
0.3132,5.706874E-06,4.698,0,0.3132,4.36408E-06,4.698,0
0.3141,4.800488E-05,4.7115,0,0.3141,-1.678492E-06,4.7115,0
0.315,2.987716E-05,4.725,0,0.315,-4.33051E-05,4.725,0
0.3159,1.007095E-05,4.7385,0,0.3159,-5.774014E-05,4.7385,0
0.3168,-8.392462E-06,4.752,0,0.3168,1.376364E-05,4.752,0
0.3177,-2.24918E-05,4.7655,0,0.3177,4.699779E-06,4.7655,0
0.3186,-3.021286E-06,4.779,0,0.3186,-0.0001033951,4.779,0
0.3195,1.040665E-05,4.7925,0,0.3195,-3.424125E-05,4.7925,0
0.3204,-1.846342E-05,4.806,0,0.3204,-1.309224E-05,4.806,0
0.3213,-1.947051E-05,4.8195,0,0.3213,-7.284657E-05,4.8195,0
0.3222,4.129091E-05,4.833,0,0.3222,-3.927672E-05,4.833,0
0.3231,1.443504E-05,4.8465,0,0.3231,6.210422E-05,4.8465,0
0.324,-7.049668E-06,4.86,0,0.324,4.263371E-05,4.86,0
0.3249,5.706874E-06,4.8735,0,0.3249,-7.721065E-06,4.8735,0
0.3258,-7.049668E-06,4.887,0,0.3258,-4.666209E-05,4.887,0
0.3267,-1.644922E-05,4.9005,0,0.3267,-2.383459E-05,4.9005,0
0.3276,-5.404745E-05,4.914,0,0.3276,1.007095E-06,4.914,0
0.3285,-3.894102E-05,4.9275,0,0.3285,-3.692683E-05,4.9275,0
0.3294,-2.584878E-05,4.941,0,0.3294,-4.599069E-05,4.941,0
0.3303,-3.793393E-05,4.9545,0,0.3303,-2.349889E-06,4.9545,0
0.3312,-3.189136E-05,4.968,0,0.3312,-1.342794E-05,4.968,0
0.3321,-8.392462E-06,4.9815,0,0.3321,-6.009003E-05,4.9815,0
0.333,1.242084E-05,4.995,0,0.333,1.577783E-05,4.995,0
0.3339,4.599069E-05,5.0085,0,0.3339,3.524834E-05,5.0085,0
0.3348,-1.275654E-05,5.022,0,0.3348,-3.256275E-05,5.022,0
0.3357,-2.383459E-05,5.0355,0,0.3357,-3.356985E-07,5.0355,0
0.3366,1.007095E-05,5.049,0,0.3366,4.53193E-05,5.049,0
0.3375,-1.242084E-05,5.0625,0,0.3375,3.961242E-05,5.0625,0
0.3384,-2.786297E-05,5.076,0,0.3384,-2.349889E-06,5.076,0
0.3393,-2.920577E-05,5.0895,0,0.3393,-3.793393E-05,5.0895,0
0.3402,5.035477E-06,5.103,0,0.3402,-1.275654E-05,5.103,0
0.3411,-8.392462E-06,5.1165,0,0.3411,-2.517739E-05,5.1165,0
0.342,-3.289845E-05,5.13,0,0.342,-7.586786E-05,5.13,0
0.3429,1.040665E-05,5.1435,0,0.3429,-7.452507E-05,5.1435,0
0.3438,3.189136E-05,5.157,0,0.3438,-9.735256E-06,5.157,0
0.3447,5.606165E-05,5.1705,0,0.3447,-1.779202E-05,5.1705,0
0.3456,5.337606E-05,5.184,0,0.3456,-8.090334E-05,5.184,0
0.3465,2.383459E-05,5.1975,0,0.3465,-1.275654E-05,5.1975,0
0.3474,2.853437E-05,5.211,0,0.3474,-1.812772E-05,5.211,0
0.3483,2.853437E-05,5.2245,0,0.3483,-7.620356E-05,5.2245,0
0.3492,5.673304E-05,5.238,0,0.3492,-3.793393E-05,5.238,0
0.3501,-7.385367E-06,5.2515,0,0.3501,-1.577783E-05,5.2515,0
0.351,-6.378271E-06,5.265,0,0.351,-4.733349E-05,5.265,0
0.3519,1.309224E-05,5.2785,0,0.3519,-4.43122E-05,5.2785,0
0.3528,-2.081331E-05,5.292,0,0.3528,-6.78111E-05,5.292,0
0.3537,-3.356985E-07,5.3055,0,0.3537,6.713969E-06,5.3055,0
0.3546,-2.047761E-05,5.319,0,0.3546,4.028382E-05,5.319,0
0.3555,-5.606165E-05,5.3325,0,0.3555,-9.399558E-06,5.3325,0
0.3564,-2.786297E-05,5.346,0,0.3564,-3.323415E-05,5.346,0
0.3573,8.392462E-06,5.3595,0,0.3573,1.141375E-05,5.3595,0
0.3582,-2.047761E-05,5.373,0,0.3582,7.049668E-06,5.373,0
0.3591,-3.793393E-05,5.3865,0,0.3591,-4.766919E-05,5.3865,0
0.36,-3.054856E-05,5.4,0,0.36,2.081331E-05,5.4,0
0.3609,-4.699779E-06,5.4135,0,0.3609,1.443504E-05,5.4135,0
0.3618,-1.678492E-06,5.427,0,0.3618,-4.39765E-05,5.427,0
0.3627,-5.304036E-05,5.4405,0,0.3627,-3.524834E-05,5.4405,0
0.3636,-2.853437E-05,5.454,0,0.3636,1.477073E-05,5.454,0
0.3645,-2.24918E-05,5.4675,0,0.3645,-1.107805E-05,5.4675,0
0.3654,-1.174945E-05,5.481,0,0.3654,-1.678492E-06,5.481,0
0.3663,-1.812772E-05,5.4945,0,0.3663,-5.539025E-05,5.4945,0
0.3672,-4.028382E-06,5.508,0,0.3672,-2.584878E-05,5.508,0
0.3681,-1.913481E-05,5.5215,0,0.3681,1.007095E-06,5.5215,0
0.369,5.035477E-06,5.535,0,0.369,-5.304036E-05,5.535,0
0.3699,2.014191E-05,5.5485,0,0.3699,-6.54612E-05,5.5485,0
0.3708,6.042573E-06,5.562,0,0.3708,1.141375E-05,5.562,0
0.3717,2.081331E-05,5.5755,0,0.3717,-3.927672E-05,5.5755,0
0.3726,3.021286E-06,5.589,0,0.3726,-8.92958E-05,5.589,0
0.3735,2.349889E-05,5.6025,0,0.3735,2.987716E-05,5.6025,0
0.3744,1.812772E-05,5.616,0,0.3744,1.376364E-05,5.616,0
0.3753,-1.376364E-05,5.6295,0,0.3753,-5.035477E-05,5.6295,0
0.3762,-1.846342E-05,5.643,0,0.3762,-4.599069E-05,5.643,0
0.3771,-4.36408E-06,5.6565,0,0.3771,1.275654E-05,5.6565,0
0.378,-3.356985E-07,5.67,0,0.378,-1.107805E-05,5.67,0
0.3789,-2.047761E-05,5.6835,0,0.3789,-3.189136E-05,5.6835,0
0.3798,-4.934768E-05,5.697,0,0.3798,-6.71397E-05,5.697,0
0.3807,-2.652018E-05,5.7105,0,0.3807,-8.392462E-06,5.7105,0
0.3816,-8.291753E-05,5.724,0,0.3816,-4.028382E-06,5.724,0
0.3825,-8.96315E-05,5.7375,0,0.3825,-2.719158E-05,5.7375,0
0.3834,-3.457694E-05,5.751,0,0.3834,-4.061952E-05,5.751,0
0.3843,-1.678492E-06,5.7645,0,0.3843,2.920577E-05,5.7645,0
0.3852,-3.021286E-06,5.778,0,0.3852,2.047761E-05,5.778,0
0.3861,6.713969E-07,5.7915,0,0.3861,-6.445411E-05,5.7915,0
0.387,-5.706874E-06,5.805,0,0.387,2.24918E-05,5.805,0
0.3879,-1.644922E-05,5.8185,0,0.3879,5.035477E-05,5.8185,0
0.3888,-2.887007E-05,5.832,0,0.3888,-1.443504E-05,5.832,0
0.3897,-1.309224E-05,5.8455,0,0.3897,-2.349889E-06,5.8455,0
0.3906,-3.692683E-06,5.859,0,0.3906,3.054856E-05,5.859,0
0.3915,-6.042573E-06,5.8725,0,0.3915,-7.049668E-06,5.8725,0
0.3924,4.36408E-06,5.886,0,0.3924,-1.644922E-05,5.886,0
0.3933,2.853437E-05,5.8995,0,0.3933,-7.016098E-05,5.8995,0
0.3942,4.129091E-05,5.913,0,0.3942,-1.980621E-05,5.913,0
0.3951,7.016098E-05,5.9265,0,0.3951,4.46479E-05,5.9265,0
0.396,2.1149E-05,5.94,0,0.396,-1.007095E-06,5.94,0
0.3969,5.706874E-06,5.9535,0,0.3969,-3.491264E-05,5.9535,0
0.3978,-5.706874E-06,5.967,0,0.3978,1.712062E-05,5.967,0
0.3987,-6.713969E-07,5.9805,0,0.3987,-1.913481E-05,5.9805,0
0.3996,-1.913481E-05,5.994,0,0.3996,-8.056764E-05,5.994,0
0.4005,-1.510643E-05,6.0075,0,0.4005,3.356985E-07,6.0075,0
0.4014,5.035477E-06,6.021,0,0.4014,2.014191E-05,6.021,0
0.4023,2.887007E-05,6.0345,0,0.4023,-7.217517E-05,6.0345,0
0.4032,4.36408E-05,6.048,0,0.4032,-2.349889E-06,6.048,0
0.4041,2.081331E-05,6.0615,0,0.4041,3.155566E-05,6.0615,0
0.405,-2.316319E-05,6.075,0,0.405,-1.309224E-05,6.075,0
0.4059,-1.644922E-05,6.0885,0,0.4059,-2.584878E-05,6.0885,0
0.4068,3.189136E-05,6.102,0,0.4068,-4.934768E-05,6.102,0
0.4077,6.378271E-06,6.1155,0,0.4077,-2.719158E-05,6.1155,0
0.4086,-6.109713E-05,6.129,0,0.4086,-3.726253E-05,6.129,0
0.4095,-6.076142E-05,6.1425,0,0.4095,-4.766919E-05,6.1425,0
0.4104,-1.510643E-05,6.156,0,0.4104,-7.888914E-05,6.156,0
0.4113,-2.584878E-05,6.1695,0,0.4113,1.174945E-05,6.1695,0
0.4122,-3.726253E-05,6.183,0,0.4122,-6.378271E-06,6.183,0
0.4131,-2.954147E-05,6.1965,0,0.4131,-7.351797E-05,6.1965,0
0.414,-4.36408E-05,6.21,0,0.414,2.014191E-06,6.21,0
0.4149,-1.007095E-05,6.2235,0,0.4149,2.920577E-05,6.2235,0
0.4158,1.443504E-05,6.237,0,0.4158,-4.666209E-05,6.237,0
0.4167,-1.141375E-05,6.2505,0,0.4167,1.342794E-06,6.2505,0
0.4176,-2.21561E-05,6.264,0,0.4176,2.618448E-05,6.264,0
0.4185,1.376364E-05,6.2775,0,0.4185,7.721065E-06,6.2775,0
0.4194,-5.035477E-06,6.291,0,0.4194,-7.049668E-06,6.291,0
0.4203,3.692683E-06,6.3045,0,0.4203,-4.867628E-05,6.3045,0
0.4212,2.1149E-05,6.318,0,0.4212,-4.36408E-06,6.318,0
0.4221,4.196231E-05,6.3315,0,0.4221,-4.699779E-06,6.3315,0
0.423,2.887007E-05,6.345,0,0.423,-3.155566E-05,6.345,0
0.4239,2.853437E-05,6.3585,0,0.4239,-6.076142E-05,6.3585,0
0.4248,1.712062E-05,6.372,0,0.4248,3.021286E-06,6.372,0
0.4257,-1.376364E-05,6.3855,0,0.4257,-1.107805E-05,6.3855,0
0.4266,-1.174945E-05,6.399,0,0.4266,-8.593881E-05,6.399,0
0.4275,3.692683E-06,6.4125,0,0.4275,6.713969E-07,6.4125,0
0.4284,-3.021286E-05,6.426,0,0.4284,4.061952E-05,6.426,0
0.4293,-4.028382E-05,6.4395,0,0.4293,-4.39765E-05,6.4395,0
0.4302,-5.606165E-05,6.453,0,0.4302,-4.028382E-05,6.453,0
0.4311,-4.263371E-05,6.4665,0,0.4311,2.349889E-05,6.4665,0
0.432,-3.491264E-05,6.48,0,0.432,-2.752728E-05,6.48,0
0.4329,-1.510643E-05,6.4935,0,0.4329,-1.611353E-05,6.4935,0
0.4338,-5.035477E-06,6.507,0,0.4338,-3.860533E-05,6.507,0
0.4347,2.28275E-05,6.5205,0,0.4347,-1.678492E-05,6.5205,0
0.4356,9.735256E-06,6.534,0,0.4356,7.049668E-06,6.534,0
0.4365,-1.812772E-05,6.5475,0,0.4365,-4.632639E-05,6.5475,0
0.4374,-1.712062E-05,6.561,0,0.4374,-5.774014E-05,6.561,0
0.4383,-1.678492E-05,6.5745,0,0.4383,-6.042573E-06,6.5745,0
0.4392,6.713969E-06,6.588,0,0.4392,-9.735256E-06,6.588,0
0.4401,-1.007095E-05,6.6015,0,0.4401,-7.553216E-05,6.6015,0
0.441,-2.752728E-05,6.615,0,0.441,-1.174945E-05,6.615,0
0.4419,1.510643E-05,6.6285,0,0.4419,7.721065E-06,6.6285,0
0.4428,-6.378271E-06,6.642,0,0.4428,-5.001907E-05,6.642,0
0.4437,2.987716E-05,6.6555,0,0.4437,-3.558404E-05,6.6555,0
0.4446,1.779202E-05,6.669,0,0.4446,-3.356985E-06,6.669,0
0.4455,-8.728161E-06,6.6825,0,0.4455,-1.107805E-05,6.6825,0
0.4464,3.692683E-06,6.696,0,0.4464,-1.443504E-05,6.696,0
0.4473,9.063859E-06,6.7095,0,0.4473,-3.121996E-05,6.7095,0
0.4482,2.047761E-05,6.723,0,0.4482,2.349889E-06,6.723,0
0.4491,-1.275654E-05,6.7365,0,0.4491,3.054856E-05,6.7365,0
0.45,-3.591974E-05,6.75,0,0.45,-2.047761E-05,6.75,0
0.4509,-1.678492E-05,6.7635,0,0.4509,-2.618448E-05,6.7635,0
0.4518,-4.46479E-05,6.777,0,0.4518,3.390555E-05,6.777,0
0.4527,-7.553216E-05,6.7905,0,0.4527,1.309224E-05,6.7905,0
0.4536,-1.644922E-05,6.804,0,0.4536,-7.284657E-05,6.804,0
0.4545,-1.242084E-05,6.8175,0,0.4545,3.021286E-06,6.8175,0
0.4554,-9.399558E-06,6.831,0,0.4554,6.378271E-06,6.831,0
0.4563,-5.035477E-06,6.8445,0,0.4563,-7.385367E-05,6.8445,0
0.4572,1.510643E-05,6.858,0,0.4572,-5.539025E-05,6.858,0
0.4581,5.572595E-05,6.8715,0,0.4581,-2.383459E-05,6.8715,0
0.459,1.040665E-05,6.885,0,0.459,-5.203327E-05,6.885,0
0.4599,-1.007095E-05,6.8985,0,0.4599,-5.304036E-05,6.8985,0
0.4608,-2.450599E-05,6.912,0,0.4608,-7.083238E-05,6.912,0
0.4617,-8.392462E-06,6.9255,0,0.4617,-1.376364E-05,6.9255,0
0.4626,3.994812E-05,6.939,0,0.4626,7.418937E-05,6.939,0
0.4635,-1.275654E-05,6.9525,0,0.4635,9.063859E-06,6.9525,0
0.4644,3.692683E-06,6.966,0,0.4644,-3.054856E-05,6.966,0
0.4653,1.443504E-05,6.9795,0,0.4653,2.450599E-05,6.9795,0
0.4662,-1.846342E-05,6.993,0,0.4662,3.692683E-06,6.993,0
0.4671,-8.056763E-06,7.0065,0,0.4671,-5.270466E-05,7.0065,0
0.468,8.728161E-06,7.02,0,0.468,7.049668E-06,7.02,0
0.4689,-2.349889E-06,7.0335,0,0.4689,2.349889E-05,7.0335,0
0.4698,-3.390555E-05,7.047,0,0.4698,-5.941863E-05,7.047,0
0.4707,-7.519646E-05,7.0605,0,0.4707,-6.6804E-05,7.0605,0
0.4716,-3.256275E-05,7.074,0,0.4716,-1.644922E-05,7.074,0
0.4725,-3.323415E-05,7.0875,0,0.4725,-1.980621E-05,7.0875,0
0.4734,-1.678492E-05,7.101,0,0.4734,-2.349889E-05,7.101,0
0.4743,-7.049668E-06,7.1145,0,0.4743,-6.54612E-05,7.1145,0
0.4752,3.356985E-06,7.128,0,0.4752,-2.047761E-05,7.128,0
0.4761,-1.779202E-05,7.1415,0,0.4761,-3.356985E-07,7.1415,0
0.477,-3.860533E-05,7.155,0,0.477,-4.129091E-05,7.155,0
0.4779,1.107805E-05,7.1685,0,0.4779,-4.229801E-05,7.1685,0
0.4788,1.812772E-05,7.182,0,0.4788,3.323415E-05,7.182,0
0.4797,3.356985E-07,7.1955,0,0.4797,2.28275E-05,7.1955,0
0.4806,-8.728161E-06,7.209,0,0.4806,-3.994812E-05,7.209,0
0.4815,0,7.2225,0,0.4815,1.611353E-05,7.2225,0
0.4824,4.061952E-05,7.236,0,0.4824,2.551309E-05,7.236,0
0.4833,3.457694E-05,7.2495,0,0.4833,-3.625543E-05,7.2495,0
0.4842,-3.524834E-05,7.263,0,0.4842,-3.692683E-06,7.263,0
0.4851,-1.913481E-05,7.2765,0,0.4851,4.968337E-05,7.2765,0
0.486,4.028382E-06,7.29,0,0.486,1.644922E-05,7.29,0
0.4869,-1.242084E-05,7.3035,0,0.4869,-1.678492E-06,7.3035,0
0.4878,-7.385367E-06,7.317,0,0.4878,-2.752728E-05,7.317,0
0.4887,3.491264E-05,7.3305,0,0.4887,-3.356985E-07,7.3305,0
0.4896,-4.36408E-06,7.344,0,0.4896,-1.141375E-05,7.344,0
0.4905,-3.692683E-05,7.3575,0,0.4905,-5.572595E-05,7.3575,0
0.4914,1.342794E-06,7.371,0,0.4914,-7.821774E-05,7.371,0
0.4923,-1.510643E-05,7.3845,0,0.4923,-1.577783E-05,7.3845,0
0.4932,-2.28275E-05,7.398,0,0.4932,-3.222705E-05,7.398,0
0.4941,-2.517739E-05,7.4115,0,0.4941,-0.0001265583,7.4115,0
0.495,-1.678492E-05,7.425,0,0.495,-3.155566E-05,7.425,0
0.4959,-2.584878E-05,7.4385,0,0.4959,-1.879912E-05,7.4385,0
0.4968,-1.846342E-05,7.452,0,0.4968,-6.243992E-05,7.452,0
0.4977,9.063859E-06,7.4655,0,0.4977,-1.913481E-05,7.4655,0
0.4986,-3.826963E-05,7.479,0,0.4986,1.980621E-05,7.479,0
0.4995,-2.18204E-05,7.4925,0,0.4995,1.342794E-06,7.4925,0
0.5004,3.524834E-05,7.506,0,0.5004,1.477073E-05,7.506,0
0.5013,1.980621E-05,7.5195,0,0.5013,1.678492E-06,7.5195,0
0.5022,2.987716E-05,7.533,0,0.5022,5.539025E-05,7.533,0
0.5031,5.606165E-05,7.5465,0,0.5031,5.203327E-05,7.5465,0
0.504,2.987716E-05,7.56,0,0.504,-4.36408E-06,7.56,0
0.5049,1.947051E-05,7.5735,0,0.5049,-1.644922E-05,7.5735,0
0.5058,2.047761E-05,7.587,0,0.5058,3.189136E-05,7.587,0
0.5067,3.726253E-05,7.6005,0,0.5067,3.692683E-06,7.6005,0
0.5076,9.735256E-06,7.614,0,0.5076,-7.586786E-05,7.614,0
0.5085,6.378271E-06,7.6275,0,0.5085,1.007095E-06,7.6275,0
0.5094,-3.054856E-05,7.641,0,0.5094,3.390555E-05,7.641,0
0.5103,-7.989624E-05,7.6545,0,0.5103,-6.076142E-05,7.6545,0
0.5112,-1.409934E-05,7.668,0,0.5112,-6.881819E-05,7.668,0
0.5121,-3.659113E-05,7.6815,0,0.5121,3.356985E-07,7.6815,0
0.513,-3.323415E-05,7.695,0,0.513,-2.551309E-05,7.695,0
0.5139,-7.721065E-06,7.7085,0,0.5139,-3.256275E-05,7.7085,0
0.5148,9.399558E-06,7.722,0,0.5148,-5.270466E-05,7.722,0
0.5157,-1.812772E-05,7.7355,0,0.5157,-2.417029E-05,7.7355,0
0.5166,-4.666209E-05,7.749,0,0.5166,-1.409934E-05,7.749,0
0.5175,-3.524834E-05,7.7625,0,0.5175,-4.867628E-05,7.7625,0
0.5184,-8.392462E-06,7.776,0,0.5184,-5.471885E-05,7.776,0
0.5193,-3.591974E-05,7.7895,0,0.5193,9.399558E-06,7.7895,0
0.5202,-2.987716E-05,7.803,0,0.5202,-1.208515E-05,7.803,0
0.5211,-1.577783E-05,7.8165,0,0.5211,-7.586786E-05,7.8165,0
0.522,-1.242084E-05,7.83,0,0.522,-6.378271E-06,7.83,0
0.5229,1.242084E-05,7.8435,0,0.5229,1.141375E-05,7.8435,0
0.5238,-1.577783E-05,7.857,0,0.5238,-6.57969E-05,7.857,0
0.5247,-3.692683E-06,7.8705,0,0.5247,-3.927672E-05,7.8705,0
0.5256,-2.316319E-05,7.884,0,0.5256,2.047761E-05,7.884,0
0.5265,-8.728161E-06,7.8975,0,0.5265,4.36408E-06,7.8975,0
0.5274,-2.047761E-05,7.911,0,0.5274,-5.069047E-05,7.911,0
0.5283,-1.040665E-05,7.9245,0,0.5283,-0.0001010452,7.9245,0
0.5292,5.471885E-05,7.938,0,0.5292,-1.443504E-05,7.938,0
0.5301,3.356985E-07,7.9515,0,0.5301,-2.484169E-05,7.9515,0
0.531,-3.659113E-05,7.965,0,0.531,-3.155566E-05,7.965,0
0.5319,-1.007095E-06,7.9785,0,0.5319,2.920577E-05,7.9785,0
0.5328,-9.399558E-06,7.992,0,0.5328,7.486076E-05,7.992,0
0.5337,-3.021286E-06,8.0055,0,0.5337,3.726253E-05,8.0055,0
0.5346,1.779202E-05,8.019,0,0.5346,-3.659113E-05,8.019,0
0.5355,-6.713969E-07,8.0325,0,0.5355,2.887007E-05,8.0325,0
0.5364,1.779202E-05,8.046,0,0.5364,3.289845E-05,8.046,0
0.5373,9.399558E-06,8.0595,0,0.5373,-6.61326E-05,8.0595,0
0.5382,5.874724E-05,8.073,0,0.5382,-5.673304E-05,8.073,0
0.5391,2.24918E-05,8.0865,0,0.5391,5.035477E-06,8.0865,0
0.54,-3.021286E-06,8.1,0,0.54,6.74754E-05,8.1,0
0.5409,2.24918E-05,8.1135,0,0.5409,0.0001393149,8.1135,0
0.5418,2.551309E-05,8.127,0,0.5418,6.009003E-05,8.127,0
0.5427,-1.376364E-05,8.1405,0,0.5427,1.342794E-06,8.1405,0
0.5436,-4.162661E-05,8.154,0,0.5436,-2.786297E-05,8.154,0
0.5445,-1.779202E-05,8.1675,0,0.5445,-9.433127E-05,8.1675,0
0.5454,-1.644922E-05,8.181,0,0.5454,-0.0002010834,8.181,0
0.5463,1.141375E-05,8.1945,0,0.5463,-0.0001594568,8.1945,0
0.5472,3.692683E-06,8.208,0,0.5472,-9.936675E-05,8.208,0
0.5481,-9.735256E-06,8.2215,0,0.5481,-0.0001114519,8.2215,0
0.549,-3.692683E-06,8.235,0,0.549,-4.632639E-05,8.235,0
0.5499,-2.316319E-05,8.2485,0,0.5499,6.378271E-06,8.2485,0
0.5508,-4.666209E-05,8.262,0,0.5508,-5.001907E-05,8.262,0
0.5517,-8.89601E-05,8.2755,0,0.5517,-1.242084E-05,8.2755,0
0.5526,-8.560311E-05,8.289,0,0.5526,1.174945E-05,8.289,0
0.5535,-1.208515E-05,8.3025,0,0.5535,-1.007095E-06,8.3025,0
0.5544,-1.007095E-05,8.316,0,0.5544,-3.860533E-05,8.316,0
0.5553,-1.409934E-05,8.3295,0,0.5553,-6.6804E-05,8.3295,0
0.5562,1.040665E-05,8.343,0,0.5562,-2.987716E-05,8.343,0
0.5571,-7.049668E-06,8.3565,0,0.5571,1.577783E-05,8.3565,0
0.558,-9.735256E-06,8.37,0,0.558,-4.599069E-05,8.37,0
0.5589,5.706874E-06,8.3835,0,0.5589,-4.028382E-05,8.3835,0
0.5598,-3.256275E-05,8.397,0,0.5598,5.807584E-05,8.397,0
0.5607,-3.424125E-05,8.4105,0,0.5607,9.399558E-06,8.4105,0
0.5616,-1.510643E-05,8.424,0,0.5616,-4.53193E-05,8.424,0
0.5625,-3.659113E-05,8.4375,0,0.5625,1.309224E-05,8.4375,0
0.5634,-1.644922E-05,8.451,0,0.5634,-2.047761E-05,8.451,0
0.5643,-1.779202E-05,8.4645,0,0.5643,-6.61326E-05,8.4645,0
0.5652,4.061952E-05,8.478,0,0.5652,-1.678492E-06,8.478,0
0.5661,6.210422E-05,8.4915,0,0.5661,3.659113E-05,8.4915,0
0.567,5.001907E-05,8.505,0,0.567,1.309224E-05,8.505,0
0.5679,2.417029E-05,8.5185,0,0.5679,5.706874E-06,8.5185,0
0.5688,-3.692683E-06,8.532,0,0.5688,-2.719158E-05,8.532,0
0.5697,-3.356985E-07,8.5455,0,0.5697,-1.644922E-05,8.5455,0
0.5706,-1.678492E-05,8.559,0,0.5706,-1.779202E-05,8.559,0
0.5715,-4.061952E-05,8.5725,0,0.5715,-4.800488E-05,8.5725,0
0.5724,-1.376364E-05,8.586,0,0.5724,-6.915389E-05,8.586,0
0.5733,1.174945E-05,8.5995,0,0.5733,-3.021286E-06,8.5995,0
0.5742,-1.678492E-06,8.613,0,0.5742,-1.812772E-05,8.613,0
0.5751,-2.081331E-05,8.6265,0,0.5751,-7.418937E-05,8.6265,0
0.576,-2.752728E-05,8.64,0,0.576,-5.035477E-06,8.64,0
0.5769,-1.376364E-05,8.6535,0,0.5769,4.968337E-05,8.6535,0
0.5778,-3.994812E-05,8.667,0,0.5778,-3.021286E-05,8.667,0
0.5787,-3.524834E-05,8.6805,0,0.5787,-4.46479E-05,8.6805,0
0.5796,-1.376364E-05,8.694,0,0.5796,7.721065E-06,8.694,0
0.5805,-2.484169E-05,8.7075,0,0.5805,-1.644922E-05,8.7075,0
0.5814,-3.356985E-07,8.721,0,0.5814,-3.121996E-05,8.721,0
0.5823,1.678492E-05,8.7345,0,0.5823,-5.136187E-05,8.7345,0
0.5832,1.644922E-05,8.748,0,0.5832,6.378271E-06,8.748,0
0.5841,-6.713969E-07,8.7615,0,0.5841,5.270466E-05,8.7615,0
0.585,-2.719158E-05,8.775,0,0.585,-9.735256E-06,8.775,0
0.5859,-1.174945E-05,8.7885,0,0.5859,-2.383459E-05,8.7885,0
0.5868,1.107805E-05,8.802,0,0.5868,3.155566E-05,8.802,0
0.5877,1.141375E-05,8.8155,0,0.5877,-1.309224E-05,8.8155,0
0.5886,3.021286E-06,8.829,0,0.5886,-9.970245E-05,8.829,0
0.5895,3.021286E-06,8.8425,0,0.5895,-3.424125E-05,8.8425,0
0.5904,1.342794E-05,8.856,0,0.5904,-5.572595E-05,8.856,0
0.5913,1.443504E-05,8.8695,0,0.5913,-0.000126894,8.8695,0
0.5922,1.040665E-05,8.883,0,0.5922,-0.0001017166,8.883,0
0.5931,1.040665E-05,8.8965,0,0.5931,-4.39765E-05,8.8965,0
0.594,2.349889E-06,8.91,0,0.594,-5.001907E-05,8.91,0
0.5949,1.309224E-05,8.9235,0,0.5949,-2.450599E-05,8.9235,0
0.5958,2.517739E-05,8.937,0,0.5958,1.947051E-05,8.937,0
0.5967,4.53193E-05,8.9505,0,0.5967,8.96315E-05,8.9505,0
0.5976,3.793393E-05,8.964,0,0.5976,0.0001232013,8.964,0
0.5985,1.947051E-05,8.9775,0,0.5985,7.486076E-05,8.9775,0
0.5994,3.457694E-05,8.991,0,0.5994,2.853437E-05,8.991,0
0.6003,3.692683E-06,9.0045,0,0.6003,6.411841E-05,9.0045,0
0.6012,-1.342794E-05,9.018,0,0.6012,3.860533E-05,9.018,0
0.6021,-1.107805E-05,9.0315,0,0.6021,-7.351797E-05,9.0315,0
0.603,1.007095E-06,9.045,0,0.603,-2.014191E-06,9.045,0
0.6039,-4.162661E-05,9.0585,0,0.6039,5.572595E-05,9.0585,0
0.6048,-4.800488E-05,9.072001,0,0.6048,-2.349889E-06,9.072001,0
0.6057,1.544213E-05,9.0855,0,0.6057,-5.337606E-05,9.0855,0
0.6066,-1.309224E-05,9.099,0,0.6066,-1.544213E-05,9.099,0
0.6075,-1.376364E-05,9.1125,0,0.6075,-9.399558E-06,9.1125,0
0.6084,-1.342794E-05,9.126,0,0.6084,-1.544213E-05,9.126,0
0.6093,-2.584878E-05,9.1395,0,0.6093,-7.318227E-05,9.1395,0
0.6102,-1.376364E-05,9.153,0,0.6102,-2.28275E-05,9.153,0
0.6111,-1.174945E-05,9.1665,0,0.6111,2.18204E-05,9.1665,0
0.612,4.36408E-06,9.18,0,0.612,-1.376364E-05,9.18,0
0.6129,-1.477073E-05,9.1935,0,0.6129,-3.591974E-05,9.1935,0
0.6138,-2.24918E-05,9.207,0,0.6138,1.779202E-05,9.207,0
0.6147,-3.323415E-05,9.2205,0,0.6147,9.063859E-06,9.2205,0
0.6156,-3.457694E-05,9.234,0,0.6156,-6.210422E-05,9.234,0
0.6165,-3.054856E-05,9.2475,0,0.6165,1.678492E-05,9.2475,0
0.6174,-3.894102E-05,9.261,0,0.6174,1.409934E-05,9.261,0
0.6183,-4.46479E-05,9.2745,0,0.6183,-3.659113E-05,9.2745,0
0.6192,2.24918E-05,9.288,0,0.6192,-1.678492E-06,9.288,0
0.6201,-1.577783E-05,9.3015,0,0.6201,6.713969E-06,9.3015,0
0.621,-4.229801E-05,9.315,0,0.621,-4.632639E-05,9.315,0
0.6219,-2.584878E-05,9.3285,0,0.6219,-5.337606E-05,9.3285,0
0.6228,-3.356985E-05,9.342,0,0.6228,-7.888914E-05,9.342,0
0.6237,-1.141375E-05,9.3555,0,0.6237,-3.491264E-05,9.3555,0
0.6246,-7.687495E-05,9.369,0,0.6246,-9.735256E-06,9.369,0
0.6255,-7.116808E-05,9.3825,0,0.6255,-5.941863E-05,9.3825,0
0.6264,1.309224E-05,9.396,0,0.6264,-5.673304E-05,9.396,0
0.6273,-2.081331E-05,9.4095,0,0.6273,3.524834E-05,9.4095,0
0.6282,2.349889E-06,9.423,0,0.6282,4.39765E-05,9.423,0
0.6291,2.685588E-05,9.4365,0,0.6291,-5.941863E-05,9.4365,0
0.63,-1.544213E-05,9.45,0,0.63,-4.39765E-05,9.45,0
0.6309,2.316319E-05,9.4635,0,0.6309,-4.834058E-05,9.4635,0
0.6318,7.721065E-06,9.477,0,0.6318,-8.426032E-05,9.477,0
0.6327,4.028382E-06,9.4905,0,0.6327,-5.471885E-05,9.4905,0
0.6336,9.735256E-06,9.504,0,0.6336,-2.786297E-05,9.504,0
0.6345,1.779202E-05,9.5175,0,0.6345,-5.908293E-05,9.5175,0
0.6354,-1.678492E-05,9.531,0,0.6354,-5.270466E-05,9.531,0
0.6363,-1.007095E-05,9.5445,0,0.6363,-6.54612E-05,9.5445,0
0.6372,4.49836E-05,9.558,0,0.6372,2.484169E-05,9.558,0
0.6381,1.745632E-05,9.5715,0,0.6381,7.553216E-05,9.5715,0
0.639,-2.349889E-06,9.585,0,0.639,2.081331E-05,9.585,0
0.6399,2.349889E-05,9.5985,0,0.6399,-5.236896E-05,9.5985,0
0.6408,2.920577E-05,9.612,0,0.6408,7.385367E-06,9.612,0
0.6417,-3.457694E-05,9.6255,0,0.6417,-4.263371E-05,9.6255,0
0.6426,-3.491264E-05,9.639,0,0.6426,-0.0001225299,9.639,0
0.6435,-3.793393E-05,9.6525,0,0.6435,-1.577783E-05,9.6525,0
0.6444,-8.89601E-05,9.666,0,0.6444,5.035477E-06,9.666,0
0.6453,-6.344701E-05,9.6795,0,0.6453,-5.203327E-05,9.6795,0
0.6462,1.980621E-05,9.693,0,0.6462,-1.779202E-05,9.693,0
0.6471,1.678492E-05,9.7065,0,0.6471,5.035477E-06,9.7065,0
0.648,2.954147E-05,9.72,0,0.648,-8.795301E-05,9.72,0
0.6489,4.46479E-05,9.7335,0,0.6489,-7.351797E-05,9.7335,0
0.6498,2.920577E-05,9.747,0,0.6498,-0.0001319295,9.747,0
0.6507,2.652018E-05,9.7605,0,0.6507,-8.96315E-05,9.7605,0
0.6516,-3.256275E-05,9.774,0,0.6516,4.666209E-05,9.774,0
0.6525,-4.162661E-05,9.7875,0,0.6525,6.61326E-05,9.7875,0
0.6534,-3.625543E-05,9.801,0,0.6534,-5.673304E-05,9.801,0
0.6543,-3.961242E-05,9.8145,0,0.6543,-7.049668E-06,9.8145,0
0.6552,-2.450599E-05,9.828,0,0.6552,-6.378271E-06,9.828,0
0.6561,1.443504E-05,9.8415,0,0.6561,-4.061952E-05,9.8415,0
0.657,3.591974E-05,9.855,0,0.657,5.001907E-05,9.855,0
0.6579,6.378271E-06,9.8685,0,0.6579,4.46479E-05,9.8685,0
0.6588,-3.692683E-06,9.882,0,0.6588,-2.316319E-05,9.882,0
0.6597,3.625543E-05,9.8955,0,0.6597,5.706874E-06,9.8955,0
0.6606,1.678492E-06,9.909,0,0.6606,6.277562E-05,9.909,0
0.6615,-3.894102E-05,9.9225,0,0.6615,-6.78111E-05,9.9225,0
0.6624,-4.666209E-05,9.936,0,0.6624,-0.0001279011,9.936,0
0.6633,-2.047761E-05,9.9495,0,0.6633,-9.567407E-05,9.9495,0
0.6642,-2.24918E-05,9.963,0,0.6642,-2.584878E-05,9.963,0
0.6651,-1.510643E-05,9.976501,0,0.6651,9.768826E-05,9.976501,0
0.666,3.289845E-05,9.99,0,0.666,0.0001604639,9.99,0
0.6669,5.069047E-05,10.0035,0,0.6669,0.0001433432,10.0035,0
0.6678,3.356985E-05,10.017,0,0.6678,9.265278E-05,10.017,0
0.6687,4.263371E-05,10.0305,0,0.6687,4.095522E-05,10.0305,0
0.6696,4.733349E-05,10.044,0,0.6696,-3.793393E-05,10.044,0
0.6705,-7.385367E-06,10.0575,0,0.6705,2.450599E-05,10.0575,0
0.6714,-2.853437E-05,10.071,0,0.6714,1.980621E-05,10.071,0
0.6723,-6.713969E-07,10.0845,0,0.6723,-7.385367E-05,10.0845,0
0.6732,-4.33051E-05,10.098,0,0.6732,-6.814679E-05,10.098,0
0.6741,-2.618448E-05,10.1115,0,0.6741,-2.786297E-05,10.1115,0
0.675,-1.678492E-06,10.125,0,0.675,-4.49836E-05,10.125,0
0.6759,-2.719158E-05,10.1385,0,0.6759,-5.404745E-05,10.1385,0
0.6768,-3.625543E-05,10.152,0,0.6768,-8.996719E-05,10.152,0
0.6777,-2.047761E-05,10.1655,0,0.6777,-5.841154E-05,10.1655,0
0.6786,1.174945E-05,10.179,0,0.6786,-3.726253E-05,10.179,0
0.6795,4.36408E-06,10.1925,0,0.6795,-7.418937E-05,10.1925,0
0.6804,-1.141375E-05,10.206,0,0.6804,-9.970245E-05,10.206,0
0.6813,-7.721065E-06,10.2195,0,0.6813,-3.994812E-05,10.2195,0
0.6822,-7.721065E-06,10.233,0,0.6822,-3.021286E-05,10.233,0
0.6831,0,10.2465,0,0.6831,-8.69459E-05,10.2465,0
0.684,1.443504E-05,10.26,0,0.684,1.309224E-05,10.26,0
0.6849,-2.954147E-05,10.2735,0,0.6849,7.217517E-05,10.2735,0
0.6858,-5.807584E-05,10.287,0,0.6858,-3.054856E-05,10.287,0
0.6867,-3.759823E-05,10.3005,0,0.6867,-1.409934E-05,10.3005,0
0.6876,-4.46479E-05,10.314,0,0.6876,2.786297E-05,10.314,0
0.6885,-2.316319E-05,10.3275,0,0.6885,6.378271E-06,10.3275,0
0.6894,-1.242084E-05,10.341,0,0.6894,-2.21561E-05,10.341,0
0.6903,-5.069047E-05,10.3545,0,0.6903,-5.673304E-05,10.3545,0
0.6912,-1.107805E-05,10.368,0,0.6912,-6.713969E-06,10.368,0
0.6921,3.524834E-05,10.3815,0,0.6921,4.699779E-06,10.3815,0
0.693,-1.779202E-05,10.395,0,0.693,-7.284657E-05,10.395,0
0.6939,2.24918E-05,10.4085,0,0.6939,-6.948959E-05,10.4085,0
0.6948,5.069047E-05,10.422,0,0.6948,1.846342E-05,10.422,0
0.6957,3.524834E-05,10.4355,0,0.6957,5.035477E-06,10.4355,0
0.6966,-5.035477E-06,10.449,0,0.6966,-6.378271E-05,10.449,0
0.6975,-5.706874E-06,10.4625,0,0.6975,1.678492E-06,10.4625,0
0.6984,1.712062E-05,10.476,0,0.6984,2.081331E-05,10.476,0
0.6993,7.049668E-06,10.4895,0,0.6993,-5.471885E-05,10.4895,0
0.7002,-1.409934E-05,10.503,0,0.7002,-3.961242E-05,10.503,0
0.7011,-3.356985E-07,10.5165,0,0.7011,2.517739E-05,10.5165,0
0.702,-6.713969E-07,10.53,0,0.702,1.275654E-05,10.53,0
0.7029,1.007095E-06,10.5435,0,0.7029,-4.36408E-06,10.5435,0
0.7038,7.385367E-06,10.557,0,0.7038,-2.24918E-05,10.557,0
0.7047,-2.28275E-05,10.5705,0,0.7047,3.927672E-05,10.5705,0
0.7056,-0.0001030594,10.584,0,0.7056,4.061952E-05,10.584,0
0.7065,-8.69459E-05,10.5975,0,0.7065,-1.477073E-05,10.5975,0
0.7074,-6.042573E-05,10.611,0,0.7074,-3.726253E-05,10.611,0
0.7083,-6.814679E-05,10.6245,0,0.7083,1.342794E-05,10.6245,0
0.7092,-4.49836E-05,10.638,0,0.7092,-1.846342E-05,10.638,0
0.7101,2.349889E-06,10.6515,0,0.7101,-9.768826E-05,10.6515,0
0.711,3.457694E-05,10.665,0,0.711,-7.049668E-06,10.665,0
0.7119,8.023193E-05,10.6785,0,0.7119,2.014191E-05,10.6785,0
0.7128,7.687495E-05,10.692,0,0.7128,-3.323415E-05,10.692,0
0.7137,3.021286E-06,10.7055,0,0.7137,-1.174945E-05,10.7055,0
0.7146,1.712062E-05,10.719,0,0.7146,2.786297E-05,10.719,0
0.7155,2.685588E-06,10.7325,0,0.7155,-1.443504E-05,10.7325,0
0.7164,-1.644922E-05,10.746,0,0.7164,-6.814679E-05,10.746,0
0.7173,-3.021286E-05,10.7595,0,0.7173,-7.150377E-05,10.7595,0
0.7182,7.721065E-06,10.773,0,0.7182,2.752728E-05,10.773,0
0.7191,6.71397E-05,10.7865,0,0.7191,6.64683E-05,10.7865,0
0.72,4.800488E-05,10.8,0,0.72,1.577783E-05,10.8,0
0.7209,4.263371E-05,10.8135,0,0.7209,-5.706874E-06,10.8135,0
0.7218,2.719158E-05,10.827,0,0.7218,2.1149E-05,10.827,0
0.7227,-2.719158E-05,10.8405,0,0.7227,-1.779202E-05,10.8405,0
0.7236,-2.719158E-05,10.854,0,0.7236,-6.042573E-05,10.854,0
0.7245,-5.001907E-05,10.8675,0,0.7245,-2.685588E-06,10.8675,0
0.7254,-6.109713E-05,10.881,0,0.7254,-2.517739E-05,10.881,0
0.7263,-7.016098E-05,10.8945,0,0.7263,-8.89601E-05,10.8945,0
0.7272,-9.970245E-05,10.908,0,0.7272,-4.766919E-05,10.908,0
0.7281,-4.46479E-05,10.9215,0,0.7281,0,10.9215,0
0.729,2.349889E-06,10.935,0,0.729,-2.18204E-05,10.935,0
0.7299,1.779202E-05,10.9485,0,0.7299,-3.021286E-06,10.9485,0
0.7308,8.392462E-06,10.962,0,0.7308,-4.599069E-05,10.962,0
0.7317,2.618448E-05,10.9755,0,0.7317,-2.18204E-05,10.9755,0
0.7326,-8.392462E-06,10.989,0,0.7326,1.007095E-06,10.989,0
0.7335,-9.735256E-06,11.0025,0,0.7335,-4.46479E-05,11.0025,0
0.7344,2.853437E-05,11.016,0,0.7344,-2.047761E-05,11.016,0
0.7353,2.316319E-05,11.0295,0,0.7353,7.150377E-05,11.0295,0
0.7362,-1.913481E-05,11.043,0,0.7362,-3.994812E-05,11.043,0
0.7371,-3.826963E-05,11.0565,0,0.7371,-0.0001174945,11.0565,0
0.738,1.208515E-05,11.07,0,0.738,-4.263371E-05,11.07,0
0.7389,9.097429E-05,11.0835,0,0.7389,-5.807584E-05,11.0835,0
0.7398,1.409934E-05,11.097,0,0.7398,-0.0001940337,11.097,0
0.7407,-8.493171E-05,11.1105,0,0.7407,-0.0001285725,11.1105,0
0.7416,-3.793393E-05,11.124,0,0.7416,4.162661E-05,11.124,0
0.7425,1.007095E-06,11.1375,0,0.7425,9.500267E-05,11.1375,0
0.7434,-1.040665E-05,11.151,0,0.7434,-7.284657E-05,11.151,0
0.7443,2.316319E-05,11.1645,0,0.7443,-0.0001007095,11.1645,0
0.7452,4.934768E-05,11.178,0,0.7452,-1.913481E-05,11.178,0
0.7461,4.36408E-06,11.1915,0,0.7461,-7.385367E-06,11.1915,0
0.747,7.721065E-06,11.205,0,0.747,-5.203327E-05,11.205,0
0.7479,2.1149E-05,11.2185,0,0.7479,-8.86244E-05,11.2185,0
0.7488,-3.591974E-05,11.232,0,0.7488,-3.256275E-05,11.232,0
0.7497,-4.33051E-05,11.2455,0,0.7497,-3.826963E-05,11.2455,0
0.7506,-2.349889E-06,11.259,0,0.7506,-4.53193E-05,11.259,0
0.7515,1.678492E-06,11.2725,0,0.7515,9.063859E-05,11.2725,0
0.7524,2.349889E-06,11.286,0,0.7524,0.0001013809,11.286,0
0.7533,-3.356985E-06,11.2995,0,0.7533,3.591974E-05,11.2995,0
0.7542,6.54612E-05,11.313,0,0.7542,6.411841E-05,11.313,0
0.7551,5.539025E-05,11.3265,0,0.7551,0.0001352865,11.3265,0
0.756,3.659113E-05,11.34,0,0.756,0.0001040665,11.34,0
0.7569,4.162661E-05,11.3535,0,0.7569,1.040665E-05,11.3535,0
0.7578,-2.349889E-05,11.367,0,0.7578,-8.392462E-05,11.367,0
0.7587,-4.196231E-05,11.3805,0,0.7587,-9.433127E-05,11.3805,0
0.7596,-9.802396E-05,11.394,0,0.7596,-5.807584E-05,11.394,0
0.7605,-9.701686E-05,11.4075,0,0.7605,-6.6804E-05,11.4075,0
0.7614,-5.975433E-05,11.421,0,0.7614,-8.661021E-05,11.421,0
0.7623,-5.539025E-05,11.4345,0,0.7623,-1.779202E-05,11.4345,0
0.7632,-5.740444E-05,11.448,0,0.7632,-4.934768E-05,11.448,0
0.7641,-2.987716E-05,11.4615,0,0.7641,-0.000148043,11.4615,0
0.765,7.721065E-06,11.475,0,0.765,-8.023193E-05,11.475,0
0.7659,1.040665E-05,11.4885,0,0.7659,-4.49836E-05,11.4885,0
0.7668,-1.779202E-05,11.502,0,0.7668,-6.54612E-05,11.502,0
0.7677,-5.505455E-05,11.5155,0,0.7677,-1.577783E-05,11.5155,0
0.7686,-1.879912E-05,11.529,0,0.7686,6.915389E-05,11.529,0
0.7695,-2.652018E-05,11.5425,0,0.7695,9.567407E-05,11.5425,0
0.7704,-1.913481E-05,11.556,0,0.7704,1.141375E-05,11.556,0
0.7713,2.786297E-05,11.5695,0,0.7713,-5.941863E-05,11.5695,0
0.7722,2.652018E-05,11.583,0,0.7722,6.378271E-06,11.583,0
0.7731,-1.644922E-05,11.5965,0,0.7731,5.203327E-05,11.5965,0
0.774,-1.107805E-05,11.61,0,0.774,2.1149E-05,11.61,0
0.7749,2.349889E-06,11.6235,0,0.7749,3.692683E-06,11.6235,0
0.7758,2.383459E-05,11.637,0,0.7758,1.779202E-05,11.637,0
0.7767,2.24918E-05,11.6505,0,0.7767,-8.593881E-05,11.6505,0
0.7776,-9.735256E-06,11.664,0,0.7776,-0.0001211871,11.664,0
0.7785,1.174945E-05,11.6775,0,0.7785,2.1149E-05,11.6775,0
0.7794,9.533837E-05,11.691,0,0.7794,0.000105745,11.691,0
0.7803,5.874724E-05,11.7045,0,0.7803,4.028382E-06,11.7045,0
0.7812,-1.745632E-05,11.718,0,0.7812,-4.36408E-06,11.718,0
0.7821,-5.035477E-06,11.7315,0,0.7821,3.994812E-05,11.7315,0
0.783,9.735256E-06,11.745,0,0.783,5.169757E-05,11.745,0
0.7839,-4.699779E-06,11.7585,0,0.7839,9.835965E-05,11.7585,0
0.7848,-2.349889E-06,11.772,0,0.7848,6.243992E-05,11.772,0
0.7857,1.779202E-05,11.7855,0,0.7857,2.652018E-05,11.7855,0
0.7866,-2.081331E-05,11.799,0,0.7866,1.712062E-05,11.799,0
0.7875,-1.544213E-05,11.8125,0,0.7875,-7.049668E-05,11.8125,0
0.7884,-5.706874E-06,11.826,0,0.7884,-0.0001550927,11.826,0
0.7893,-3.726253E-05,11.8395,0,0.7893,-1.141375E-05,11.8395,0
0.7902,-5.136187E-05,11.853,0,0.7902,7.821774E-05,11.853,0
0.7911,-3.692683E-05,11.8665,0,0.7911,-0.0001047379,11.8665,0
0.792,-2.1149E-05,11.88,0,0.792,-5.203327E-05,11.88,0
0.7929,-3.625543E-05,11.8935,0,0.7929,-1.812772E-05,11.8935,0
0.7938,-4.666209E-05,11.907,0,0.7938,-0.0001198444,11.907,0
0.7947,-4.129091E-05,11.9205,0,0.7947,-8.72816E-05,11.9205,0
0.7956,-1.779202E-05,11.934,0,0.7956,-3.659113E-05,11.934,0
0.7965,-3.121996E-05,11.9475,0,0.7965,-4.666209E-05,11.9475,0
0.7974,-2.584878E-05,11.961,0,0.7974,-7.888914E-05,11.961,0
0.7983,-4.229801E-05,11.9745,0,0.7983,-0.0001362936,11.9745,0
0.7992,1.947051E-05,11.988,0,0.7992,-2.1149E-05,11.988,0
0.8001,4.028382E-05,12.0015,0,0.8001,9.903105E-05,12.0015,0
0.801,-3.390555E-05,12.015,0,0.801,9.198138E-05,12.015,0
0.8019,-3.390555E-05,12.0285,0,0.8019,1.779202E-05,12.0285,0
0.8028,-3.692683E-06,12.042,0,0.8028,5.740444E-05,12.042,0
0.8037,5.706874E-06,12.0555,0,0.8037,4.028382E-06,12.0555,0
0.8046,1.309224E-05,12.069,0,0.8046,-6.243992E-05,12.069,0
0.8055,5.774014E-05,12.0825,0,0.8055,-2.450599E-05,12.0825,0
0.8064,6.948959E-05,12.096,0,0.8064,-1.712062E-05,12.096,0
0.8073,5.136187E-05,12.1095,0,0.8073,-7.150377E-05,12.1095,0
0.8082,6.74754E-05,12.123,0,0.8082,-7.183947E-05,12.123,0
0.8091,3.121996E-05,12.1365,0,0.8091,-4.53193E-05,12.1365,0
0.81,2.316319E-05,12.15,0,0.81,-7.116808E-05,12.15,0
0.8109,8.392462E-06,12.1635,0,0.8109,-7.989624E-05,12.1635,0
0.8118,3.021286E-06,12.177,0,0.8118,-0.000105745,12.177,0
0.8127,-1.443504E-05,12.1905,0,0.8127,-6.243992E-05,12.1905,0
0.8136,-9.735256E-06,12.204,0,0.8136,1.342794E-06,12.204,0
0.8145,-3.356985E-07,12.2175,0,0.8145,-1.376364E-05,12.2175,0
0.8154,5.035477E-06,12.231,0,0.8154,-4.666209E-05,12.231,0
0.8163,-1.678492E-06,12.2445,0,0.8163,4.162661E-05,12.2445,0
0.8172,-1.745632E-05,12.258,0,0.8172,9.399558E-06,12.258,0
0.8181,-1.980621E-05,12.2715,0,0.8181,-6.311131E-05,12.2715,0
0.819,-1.779202E-05,12.285,0,0.819,1.712062E-05,12.285,0
0.8199,-2.719158E-05,12.2985,0,0.8199,3.961242E-05,12.2985,0
0.8208,-4.49836E-05,12.312,0,0.8208,-4.028382E-06,12.312,0
0.8217,-2.752728E-05,12.3255,0,0.8217,-1.443504E-05,12.3255,0
0.8226,-4.196231E-05,12.339,0,0.8226,3.457694E-05,12.339,0
0.8235,-3.826963E-05,12.3525,0,0.8235,1.812772E-05,12.3525,0
0.8244,-1.174945E-05,12.366,0,0.8244,1.174945E-05,12.366,0
0.8253,-5.136187E-05,12.3795,0,0.8253,-6.143282E-05,12.3795,0
0.8262,-5.606165E-05,12.393,0,0.8262,-5.304036E-05,12.393,0
0.8271,-6.109713E-05,12.4065,0,0.8271,-2.349889E-06,12.4065,0
0.828,-4.229801E-05,12.42,0,0.828,-2.484169E-05,12.42,0
0.8289,-7.721065E-06,12.4335,0,0.8289,-3.256275E-05,12.4335,0
0.8298,-2.450599E-05,12.447,0,0.8298,1.712062E-05,12.447,0
0.8307,-7.049668E-06,12.4605,0,0.8307,1.745632E-05,12.4605,0
0.8316,2.752728E-05,12.474,0,0.8316,-5.270466E-05,12.474,0
0.8325,-4.36408E-06,12.4875,0,0.8325,-8.056763E-06,12.4875,0
0.8334,5.035477E-06,12.501,0,0.8334,3.323415E-05,12.501,0
0.8343,1.007095E-06,12.5145,0,0.8343,-5.102617E-05,12.5145,0
0.8352,3.289845E-05,12.528,0,0.8352,-6.54612E-05,12.528,0
0.8361,-3.424125E-05,12.5415,0,0.8361,-3.155566E-05,12.5415,0
0.837,-1.846342E-05,12.555,0,0.837,-5.069047E-05,12.555,0
0.8379,-1.577783E-05,12.5685,0,0.8379,-7.150377E-05,12.5685,0
0.8388,-9.735256E-06,12.582,0,0.8388,-0.000115816,12.582,0
0.8397,-1.913481E-05,12.5955,0,0.8397,-7.049668E-05,12.5955,0
0.8406,-1.174945E-05,12.609,0,0.8406,-2.014191E-06,12.609,0
0.8415,3.189136E-05,12.6225,0,0.8415,-1.779202E-05,12.6225,0
0.8424,5.941863E-05,12.636,0,0.8424,-2.081331E-05,12.636,0
0.8433,1.644922E-05,12.6495,0,0.8433,4.599069E-05,12.6495,0
0.8442,-1.007095E-05,12.663,0,0.8442,5.874724E-05,12.663,0
0.8451,2.014191E-06,12.6765,0,0.8451,-4.36408E-06,12.6765,0
0.846,2.517739E-05,12.69,0,0.846,5.606165E-05,12.69,0
0.8469,-1.409934E-05,12.7035,0,0.8469,2.920577E-05,12.7035,0
0.8478,-5.941863E-05,12.717,0,0.8478,-3.826963E-05,12.717,0
0.8487,3.457694E-05,12.7305,0,0.8487,7.049668E-06,12.7305,0
0.8496,5.035477E-06,12.744,0,0.8496,2.652018E-05,12.744,0
0.8505,-3.121996E-05,12.7575,0,0.8505,-7.721065E-06,12.7575,0
0.8514,-1.443504E-05,12.771,0,0.8514,-1.544213E-05,12.771,0
0.8523,-2.786297E-05,12.7845,0,0.8523,-3.424125E-05,12.7845,0
0.8532,-2.014191E-05,12.798,0,0.8532,2.014191E-06,12.798,0
0.8541,-9.231708E-05,12.8115,0,0.8541,-8.392462E-06,12.8115,0
0.855,-6.948959E-05,12.825,0,0.855,-3.726253E-05,12.825,0
0.8559,-6.713969E-06,12.8385,0,0.8559,-5.606165E-05,12.8385,0
0.8568,-2.18204E-05,12.852,0,0.8568,3.054856E-05,12.852,0
0.8577,-2.081331E-05,12.8655,0,0.8577,7.049668E-06,12.8655,0
0.8586,-4.36408E-06,12.879,0,0.8586,-4.599069E-05,12.879,0
0.8595001,-3.189136E-05,12.8925,0,0.8595001,5.169757E-05,12.8925,0
0.8604,9.063859E-06,12.906,0,0.8604,5.539025E-05,12.906,0
0.8613,7.385367E-06,12.9195,0,0.8613,-1.107805E-05,12.9195,0
0.8622,-1.678492E-06,12.933,0,0.8622,-4.766919E-05,12.933,0
0.8631,-8.392462E-06,12.9465,0,0.8631,-4.061952E-05,12.9465,0
0.864,-1.007095E-06,12.96,0,0.864,-3.659113E-05,12.96,0
0.8649,1.980621E-05,12.9735,0,0.8649,-3.927672E-05,12.9735,0
0.8658,-9.063859E-06,12.987,0,0.8658,-0.0001255512,12.987,0
0.8667,-1.107805E-05,13.0005,0,0.8667,-8.191043E-05,13.0005,0
0.8676,-2.719158E-05,13.014,0,0.8676,1.040665E-05,13.014,0
0.8685,4.699779E-06,13.0275,0,0.8685,-1.812772E-05,13.0275,0
0.8694,4.39765E-05,13.041,0,0.8694,-5.774014E-05,13.041,0
0.8703,5.572595E-05,13.0545,0,0.8703,7.217517E-05,13.0545,0
0.8712,4.632639E-05,13.068,0,0.8712,0.0001067521,13.068,0
0.8721,1.376364E-05,13.0815,0,0.8721,-7.653925E-05,13.0815,0
0.873,1.510643E-05,13.095,0,0.873,-2.047761E-05,13.095,0
0.8739,3.994812E-05,13.1085,0,0.8739,6.713969E-07,13.1085,0
0.8748,3.021286E-05,13.122,0,0.8748,-0.0001104448,13.122,0
0.8757,-3.524834E-05,13.1355,0,0.8757,-0.0001037308,13.1355,0
0.8766,4.699779E-06,13.149,0,0.8766,-2.18204E-05,13.149,0
0.8775,-1.913481E-05,13.1625,0,0.8775,-3.726253E-05,13.1625,0
0.8784,-2.719158E-05,13.176,0,0.8784,-2.316319E-05,13.176,0
0.8793,-5.874724E-05,13.1895,0,0.8793,-3.457694E-05,13.1895,0
0.8802,-5.404745E-05,13.203,0,0.8802,2.551309E-05,13.203,0
0.8811,9.735256E-06,13.2165,0,0.8811,4.53193E-05,13.2165,0
0.882,3.591974E-05,13.23,0,0.882,3.222705E-05,13.23,0
0.8829,1.577783E-05,13.2435,0,0.8829,-1.544213E-05,13.2435,0
0.8838,-1.107805E-05,13.257,0,0.8838,2.517739E-05,13.257,0
0.8847,-1.678492E-06,13.2705,0,0.8847,-6.378271E-06,13.2705,0
0.8856,-3.591974E-05,13.284,0,0.8856,-5.236896E-05,13.284,0
0.8865,-3.457694E-05,13.2975,0,0.8865,1.477073E-05,13.2975,0
0.8874,-6.344701E-05,13.311,0,0.8874,2.517739E-05,13.311,0
0.8883,-9.298848E-05,13.3245,0,0.8883,-2.719158E-05,13.3245,0
0.8892,-2.014191E-05,13.338,0,0.8892,-3.323415E-05,13.338,0
0.8901,-3.692683E-06,13.3515,0,0.8901,5.740444E-05,13.3515,0
0.891,7.351797E-05,13.365,0,0.891,7.217517E-05,13.365,0
0.8919,9.231708E-05,13.3785,0,0.8919,3.625543E-05,13.3785,0
0.8928,8.157473E-05,13.392,0,0.8928,-4.599069E-05,13.392,0
0.8937,8.258183E-05,13.4055,0,0.8937,-4.901198E-05,13.4055,0
0.8946,4.53193E-05,13.419,0,0.8946,1.846342E-05,13.419,0
0.8955,2.652018E-05,13.4325,0,0.8955,0,13.4325,0
0.8964,-1.342794E-06,13.446,0,0.8964,-0.0001705348,13.446,0
0.8973,-5.706874E-06,13.4595,0,0.8973,-0.0001920195,13.4595,0
0.8982,-2.450599E-05,13.473,0,0.8982,-9.701686E-05,13.473,0
0.8991,-2.887007E-05,13.4865,0,0.8991,-0.0001507286,13.4865,0
0.9,-8.392462E-06,13.5,0,0.9,-8.86244E-05,13.5,0
0.9009,-6.210422E-05,13.5135,0,0.9009,-5.304036E-05,13.5135,0
0.9018,-6.848249E-05,13.527,0,0.9018,-9.164568E-05,13.527,0
0.9027,-9.198138E-05,13.5405,0,0.9027,-4.33051E-05,13.5405,0
0.9036,-8.560311E-05,13.554,0,0.9036,2.014191E-05,13.554,0
0.9045,-3.021286E-05,13.5675,0,0.9045,-3.659113E-05,13.5675,0
0.9054,-1.947051E-05,13.581,0,0.9054,-0.0001201801,13.581,0
0.9063,-7.721065E-06,13.5945,0,0.9063,-0.0001007095,13.5945,0
0.9072,2.081331E-05,13.608,0,0.9072,-3.323415E-05,13.608,0
0.9081,4.46479E-05,13.6215,0,0.9081,-5.203327E-05,13.6215,0
0.909,1.342794E-06,13.635,0,0.909,-2.618448E-05,13.635,0
0.9099,-3.692683E-05,13.6485,0,0.9099,2.18204E-05,13.6485,0
0.9108,-2.987716E-05,13.662,0,0.9108,0.0001416648,13.662,0
0.9117,-2.28275E-05,13.6755,0,0.9117,0.0001661708,13.6755,0
0.9126,-5.069047E-05,13.689,0,0.9126,0.0001017166,13.689,0
0.9135,-3.121996E-05,13.7025,0,0.9135,0.0001238727,13.7025,0
0.9144,-2.18204E-05,13.716,0,0.9144,9.198138E-05,13.716,0
0.9153,-5.304036E-05,13.7295,0,0.9153,-6.378271E-06,13.7295,0
0.9162,-1.443504E-05,13.743,0,0.9162,2.484169E-05,13.743,0
0.9171,1.107805E-05,13.7565,0,0.9171,8.96315E-05,13.7565,0
0.918,-1.107805E-05,13.77,0,0.918,9.130999E-05,13.77,0
0.9189,-2.920577E-05,13.7835,0,0.9189,9.030289E-05,13.7835,0
0.9198,-1.107805E-05,13.797,0,0.9198,2.383459E-05,13.797,0
0.9207,2.349889E-06,13.8105,0,0.9207,-9.097429E-05,13.8105,0
0.9216,4.666209E-05,13.824,0,0.9216,-0.0001920195,13.824,0
0.9225,4.901198E-05,13.8375,0,0.9225,-0.0002685588,13.8375,0
0.9234,1.577783E-05,13.851,0,0.9234,-0.0002312963,13.851,0
0.9243,-1.577783E-05,13.8645,0,0.9243,-0.000102388,13.8645,0
0.9252,-1.577783E-05,13.878,0,0.9252,-0.0001295796,13.878,0
0.9261,-2.652018E-05,13.8915,0,0.9261,-8.358892E-05,13.8915,0
0.927,-1.712062E-05,13.905,0,0.927,0.0001275654,13.905,0
0.9279,-1.846342E-05,13.9185,0,0.9279,0.000172549,13.9185,0
0.9288,-3.994812E-05,13.932,0,0.9288,4.263371E-05,13.932,0
0.9297,-4.39765E-05,13.9455,0,0.9297,-2.047761E-05,13.9455,0
0.9306,-8.96315E-05,13.959,0,0.9306,-1.544213E-05,13.959,0
0.9315,-0.0001144732,13.9725,0,0.9315,-1.007095E-06,13.9725,0
0.9324,-6.61326E-05,13.986,0,0.9324,-1.947051E-05,13.986,0
0.9333,-1.275654E-05,13.9995,0,0.9333,-7.553216E-05,13.9995,0
0.9342,7.150377E-05,14.013,0,0.9342,-1.242084E-05,14.013,0
0.9351,0.0001779202,14.0265,0,0.9351,7.486076E-05,14.0265,0
0.936,0.0001554284,14.04,0,0.936,9.265278E-05,14.04,0
0.9369,0.0001003738,14.0535,0,0.9369,0.0001138018,14.0535,0
0.9378,6.64683E-05,14.067,0,0.9378,0.0001866484,14.067,0
0.9387,-2.1149E-05,14.0805,0,0.9387,7.284657E-05,14.0805,0
0.9396001,-9.735256E-06,14.094,0,0.9396001,-1.510643E-05,14.094,0
0.9405,1.510643E-05,14.1075,0,0.9405,5.505455E-05,14.1075,0
0.9414001,-1.174945E-05,14.121,0,0.9414001,2.484169E-05,14.121,0
0.9423,1.577783E-05,14.1345,0,0.9423,-6.378271E-05,14.1345,0
0.9432001,6.143282E-05,14.148,0,0.9432001,-1.947051E-05,14.148,0
0.9441,1.174945E-05,14.1615,0,0.9441,-6.713969E-07,14.1615,0
0.9450001,7.049668E-06,14.175,0,0.9450001,-3.222705E-05,14.175,0
0.9459,6.378271E-06,14.1885,0,0.9459,-4.599069E-05,14.1885,0
0.9468,3.121996E-05,14.202,0,0.9468,-8.89601E-05,14.202,0
0.9477,-9.063859E-06,14.2155,0,0.9477,-6.982528E-05,14.2155,0
0.9486,-8.090334E-05,14.229,0,0.9486,-3.894102E-05,14.229,0
0.9495,-8.392462E-05,14.2425,0,0.9495,-0.0001174945,14.2425,0
0.9504,-4.800488E-05,14.256,0,0.9504,-0.0001299153,14.256,0
0.9513,-5.069047E-05,14.2695,0,0.9513,-4.196231E-05,14.2695,0
0.9522,-6.6804E-05,14.283,0,0.9522,-9.063859E-06,14.283,0
0.9531,-7.049668E-05,14.2965,0,0.9531,-0.0001027237,14.2965,0
0.954,-3.793393E-05,14.31,0,0.954,-8.627451E-05,14.31,0
0.9549,6.881819E-05,14.3235,0,0.9549,-7.016098E-05,14.3235,0
0.9558,1.779202E-05,14.337,0,0.9558,-0.0001188373,14.337,0
0.9567,-1.644922E-05,14.3505,0,0.9567,-8.89601E-05,14.3505,0
0.9576,2.24918E-05,14.364,0,0.9576,9.399558E-06,14.364,0
0.9585,-3.121996E-05,14.3775,0,0.9585,2.618448E-05,14.3775,0
0.9594,-8.023193E-05,14.391,0,0.9594,2.987716E-05,14.391,0
0.9603,7.754635E-05,14.4045,0,0.9603,-2.014191E-05,14.4045,0
0.9612,0.0001957122,14.418,0,0.9612,-6.881819E-05,14.418,0
0.9621,0.0002910506,14.4315,0,0.9621,-6.61326E-05,14.4315,0
0.963,0.0001836271,14.445,0,0.963,-6.982528E-05,14.445,0
0.9639,4.766919E-05,14.4585,0,0.9639,-8.090334E-05,14.4585,0
0.9648,-1.644922E-05,14.472,0,0.9648,-5.706874E-06,14.472,0
0.9657,-2.853437E-05,14.4855,0,0.9657,-2.18204E-05,14.4855,0
0.9666,-0.0001221943,14.499,0,0.9666,-4.263371E-05,14.499,0
0.9675,-0.0003897459,14.5125,0,0.9675,4.632639E-05,14.5125,0
0.9684,-0.0003749752,14.526,0,0.9684,4.263371E-05,14.526,0
0.9693,-0.0001413291,14.5395,0,0.9693,-1.678492E-06,14.5395,0
0.9702,-0.0001070878,14.553,0,0.9702,-9.735256E-06,14.553,0
0.9711,-6.881819E-05,14.5665,0,0.9711,4.36408E-06,14.5665,0
0.972,-2.752728E-05,14.58,0,0.972,-5.471885E-05,14.58,0
0.9729,-7.922484E-05,14.5935,0,0.9729,-0.0001393149,14.5935,0
0.9738,-9.097429E-05,14.607,0,0.9738,-0.000144686,14.607,0
0.9747,-1.712062E-05,14.6205,0,0.9747,-0.0001077592,14.6205,0
0.9756,-4.36408E-06,14.634,0,0.9756,-6.243992E-05,14.634,0
0.9765,-5.001907E-05,14.6475,0,0.9765,6.713969E-06,14.6475,0
0.9774,-1.712062E-05,14.661,0,0.9774,-3.390555E-05,14.661,0
0.9783,-5.236896E-05,14.6745,0,0.9783,5.337606E-05,14.6745,0
0.9792,2.719158E-05,14.688,0,0.9792,0.0001151446,14.688,0
0.9801,5.337606E-05,14.7015,0,0.9801,-1.107805E-05,14.7015,0
0.981,3.390555E-05,14.715,0,0.981,1.879912E-05,14.715,0
0.9819,1.812772E-05,14.7285,0,0.9819,7.486076E-05,14.7285,0
0.9828,-3.659113E-05,14.742,0,0.9828,-2.920577E-05,14.742,0
0.9837,7.217517E-05,14.7555,0,0.9837,-3.826963E-05,14.7555,0
0.9846,0.0001305867,14.769,0,0.9846,0.0001245441,14.769,0
0.9855,8.69459E-05,14.7825,0,0.9855,8.761731E-05,14.7825,0
0.9864,-1.007095E-06,14.796,0,0.9864,1.510643E-05,14.796,0
0.9873,-5.874724E-05,14.8095,0,0.9873,-6.143282E-05,14.8095,0
0.9882,-3.524834E-05,14.823,0,0.9882,-3.390555E-05,14.823,0
0.9891,1.107805E-05,14.8365,0,0.9891,-4.061952E-05,14.8365,0
0.99,-5.035477E-06,14.85,0,0.99,-8.258183E-05,14.85,0
0.9909,-2.719158E-05,14.8635,0,0.9909,-5.539025E-05,14.8635,0
0.9918,2.987716E-05,14.877,0,0.9918,5.706874E-06,14.877,0
0.9927,6.009003E-05,14.8905,0,0.9927,2.719158E-05,14.8905,0
0.9936,1.712062E-05,14.904,0,0.9936,2.652018E-05,14.904,0
0.9945,3.021286E-06,14.9175,0,0.9945,0.0001242084,14.9175,0
0.9954,4.49836E-05,14.931,0,0.9954,9.365987E-05,14.931,0
0.9963,2.887007E-05,14.9445,0,0.9963,3.021286E-05,14.9445,0
0.9972,0.0001161517,14.958,0,0.9972,1.007095E-06,14.958,0
0.9981,3.793393E-05,14.9715,0,0.9981,1.644922E-05,14.9715,0
0.999,-4.028382E-06,14.985,0,0.999,-7.452507E-05,14.985,0
0.9999,4.733349E-05,14.9985,0,0.9999,-0.0001033951,14.9985,0
1.0008,0.0001654994,15.012,0,1.0008,-0.0001084306,15.012,0
1.0017,0.0001141375,15.0255,0,1.0017,-9.835965E-05,15.0255,0
1.0026,-1.644922E-05,15.039,0,1.0026,-8.89601E-05,15.039,0
1.0035,-0.0001050736,15.0525,0,1.0035,-5.203327E-05,15.0525,0
1.0044,-0.0001285725,15.066,0,1.0044,-3.323415E-05,15.066,0
1.0053,-5.471885E-05,15.0795,0,1.0053,2.987716E-05,15.0795,0
1.0062,-7.721065E-06,15.093,0,1.0062,6.478981E-05,15.093,0
1.0071,-2.752728E-05,15.1065,0,1.0071,-4.33051E-05,15.1065,0
1.008,-2.853437E-05,15.12,0,1.008,-3.121996E-05,15.12,0
1.0089,-2.047761E-05,15.1335,0,1.0089,-7.888914E-05,15.1335,0
1.0098,-1.376364E-05,15.147,0,1.0098,-0.0001319295,15.147,0
1.0107,-5.404745E-05,15.1605,0,1.0107,-5.471885E-05,15.1605,0
1.0116,-3.121996E-05,15.174,0,1.0116,6.378271E-06,15.174,0
1.0125,-1.812772E-05,15.1875,0,1.0125,2.484169E-05,15.1875,0
1.0134,-3.659113E-05,15.201,0,1.0134,6.6804E-05,15.201,0
1.0143,-2.618448E-05,15.2145,0,1.0143,0.0001067521,15.2145,0
1.0152,-1.846342E-05,15.228,0,1.0152,0.0001017166,15.228,0
1.0161,-8.090334E-05,15.2415,0,1.0161,-4.129091E-05,15.2415,0
1.017,9.399558E-06,15.255,0,1.017,-0.0001161517,15.255,0
1.0179,5.941863E-05,15.2685,0,1.0179,-0.0001047379,15.2685,0
1.0188,6.344701E-05,15.282,0,1.0188,-2.920577E-05,15.282,0
1.0197,0.0001497215,15.2955,0,1.0197,-6.009003E-05,15.2955,0
1.0206,0.0002155184,15.309,0,1.0206,-8.627451E-05,15.309,0
1.0215,0.0002662089,15.3225,0,1.0215,9.903105E-05,15.3225,0
1.0224,0.000186984,15.336,0,1.0224,0.000102388,15.336,0
1.0233,5.941863E-05,15.3495,0,1.0233,-7.318227E-05,15.3495,0
1.0242,5.807584E-05,15.363,0,1.0242,-0.0001326009,15.363,0
1.0251,-1.913481E-05,15.3765,0,1.0251,-0.0001587854,15.3765,0
1.026,-0.0001174945,15.39,0,1.026,-0.0001594568,15.39,0
1.0269,-0.000239353,15.4035,0,1.0269,-0.0001309224,15.4035,0
1.0278,-0.0002668803,15.417,0,1.0278,-0.0001517357,15.417,0
1.0287,-0.0002178683,15.4305,0,1.0287,-0.0001010452,15.4305,0
1.0296,-5.169757E-05,15.444,0,1.0296,6.54612E-05,15.444,0
1.0305,-5.438316E-05,15.4575,0,1.0305,0.0001507286,15.4575,0
1.0314,-7.989624E-05,15.471,0,1.0314,2.383459E-05,15.471,0
1.0323,9.063859E-06,15.4845,0,1.0323,3.323415E-05,15.4845,0
1.0332,2.047761E-05,15.498,0,1.0332,-9.399558E-06,15.498,0
1.0341,-0.0001077592,15.5115,0,1.0341,-4.196231E-05,15.5115,0
1.035,-0.0001460288,15.525,0,1.035,-2.417029E-05,15.525,0
1.0359,-0.0001013809,15.5385,0,1.0359,-0.0001386435,15.5385,0
1.0368,-8.89601E-05,15.552,0,1.0368,-0.0001530785,15.552,0
1.0377,-6.78111E-05,15.5655,0,1.0377,9.399558E-06,15.5655,0
1.0386,-3.558404E-05,15.579,0,1.0386,0.0001406577,15.579,0
1.0395,-1.107805E-05,15.5925,0,1.0395,0.0001473716,15.5925,0
1.0404,-3.256275E-05,15.606,0,1.0404,0.0001715419,15.606,0
1.0413,-1.409934E-05,15.6195,0,1.0413,5.304036E-05,15.6195,0
1.0422,0.0001460288,15.633,0,1.0422,9.869535E-05,15.633,0
1.0431,0.0001033951,15.6465,0,1.0431,9.500267E-05,15.6465,0
1.044,5.706874E-06,15.66,0,1.044,5.941863E-05,15.66,0
1.0449,7.754635E-05,15.6735,0,1.0449,4.901198E-05,15.6735,0
1.0458,5.807584E-05,15.687,0,1.0458,7.284657E-05,15.687,0
1.0467,-5.035477E-06,15.7005,0,1.0467,-8.090334E-05,15.7005,0
1.0476,8.72816E-05,15.714,0,1.0476,-0.0002323034,15.714,0
1.0485,0.0001228656,15.7275,0,1.0485,-0.0002584878,15.7275,0
1.0494,9.701686E-05,15.741,0,1.0494,-0.0003024643,15.741,0
1.0503,-8.325322E-05,15.7545,0,1.0503,-0.0003326772,15.7545,0
1.0512,-0.0001836271,15.768,0,1.0512,-0.0002762798,15.768,0
1.0521,-0.0001634852,15.7815,0,1.0521,-5.807584E-05,15.7815,0
1.053,-3.457694E-05,15.795,0,1.053,0.0001067521,15.795,0
1.0539,0.0001597925,15.8085,0,1.0539,3.994812E-05,15.8085,0
1.0548,0.0002984359,15.822,0,1.0548,-0.0001107805,15.822,0
1.0557,0.0001285725,15.8355,0,1.0557,-0.000158114,15.8355,0
1.0566,6.848249E-05,15.849,0,1.0566,-0.0001772488,15.849,0
1.0575,-9.231708E-05,15.8625,0,1.0575,-0.0001258869,15.8625,0
1.0584,-0.0002390173,15.876,0,1.0584,0.0001456931,15.876,0
1.0593,-0.0001255512,15.8895,0,1.0593,0.0005938506,15.8895,0
1.0602,-4.46479E-05,15.903,0,1.0602,0.0006811322,15.903,0
1.0611,-4.867628E-05,15.9165,0,1.0611,0.0004199588,15.9165,0
1.062,6.948959E-05,15.93,0,1.062,0.0003320058,15.93,0
1.0629,0.000340734,15.9435,0,1.0629,0.0001889983,15.9435,0
1.0638,0.0002118257,15.957,0,1.0638,-3.558404E-05,15.957,0
1.0647,-0.0001315938,15.9705,0,1.0647,-7.989624E-05,15.9705,0
1.0656,-0.000154757,15.984,0,1.0656,-5.706874E-05,15.984,0
1.0665,-0.0001319295,15.9975,0,1.0665,-0.0001195087,15.9975,0
1.0674,-9.735256E-06,16.011,0,1.0674,-0.000193698,16.011,0
1.0683,-8.392462E-06,16.0245,0,1.0683,-0.0001816129,16.0245,0
1.0692,2.887007E-05,16.038,0,1.0692,-0.0001215228,16.038,0
1.0701,3.994812E-05,16.0515,0,1.0701,-0.0001329366,16.0515,0
1.071,3.356985E-07,16.065,0,1.071,-0.0001527428,16.065,0
1.0719,3.860533E-05,16.0785,0,1.0719,-4.53193E-05,16.0785,0
1.0728,0.0003756466,16.092,0,1.0728,4.028382E-06,16.092,0
1.0737,0.000355169,16.1055,0,1.0737,-0.0001171588,16.1055,0
1.0746,0.000148043,16.119,0,1.0746,-0.000186984,16.119,0
1.0755,-0.0001077592,16.1325,0,1.0755,-5.740444E-05,16.1325,0
1.0764,-0.0002756084,16.146,0,1.0764,-4.33051E-05,16.146,0
1.0773,-0.000263859,16.1595,0,1.0773,-5.001907E-05,16.1595,0
1.0782,-0.0004078737,16.173,0,1.0782,2.652018E-05,16.173,0
1.0791,-0.0004283513,16.1865,0,1.0791,6.64683E-05,16.1865,0
1.08,-0.0001107805,16.2,0,1.08,5.337606E-05,16.2,0
1.0809,0.0001174945,16.2135,0,1.0809,3.894102E-05,16.2135,0
1.0818,0.0001148089,16.227,0,1.0818,-6.009003E-05,16.227,0
1.0827,8.023193E-05,16.2405,0,1.0827,-6.61326E-05,16.2405,0
1.0836,2.047761E-05,16.254,0,1.0836,-9.869535E-05,16.254,0
1.0845,3.457694E-05,16.2675,0,1.0845,-0.0002373388,16.2675,0
1.0854,7.553216E-05,16.281,0,1.0854,-0.0003182421,16.281,0
1.0863,-5.941863E-05,16.2945,0,1.0863,-0.0001641566,16.2945,0
1.0872,-0.0001812772,16.308,0,1.0872,-3.692683E-06,16.308,0
1.0881,-0.0001228656,16.3215,0,1.0881,-0.0001467002,16.3215,0
1.089,-9.164568E-05,16.335,0,1.089,-3.256275E-05,16.335,0
1.0899,-6.814679E-05,16.3485,0,1.0899,0.0001507286,16.3485,0
1.0908,8.392462E-06,16.362,0,1.0908,0.0001342794,16.362,0
1.0917,5.337606E-05,16.3755,0,1.0917,6.74754E-05,16.3755,0
1.0926,2.584878E-05,16.389,0,1.0926,-9.701686E-05,16.389,0
1.0935,1.947051E-05,16.4025,0,1.0935,-0.0002067903,16.4025,0
1.0944,4.46479E-05,16.416,0,1.0944,-0.000175906,16.416,0
1.0953,7.989624E-05,16.4295,0,1.0953,-0.0001138018,16.4295,0
1.0962,0.0001416648,16.443,0,1.0962,7.620356E-05,16.443,0
1.0971,4.800488E-05,16.4565,0,1.0971,0.0001990692,16.4565,0
1.098,1.376364E-05,16.47,0,1.098,0.0003783322,16.47,0
1.0989,8.224613E-05,16.4835,0,1.0989,0.0003534905,16.4835,0
1.0998,0.0002024262,16.497,0,1.0998,0.0001980621,16.497,0
1.1007,6.61326E-05,16.5105,0,1.1007,3.894102E-05,16.5105,0
1.1016,-2.047761E-05,16.524,0,1.1016,-0.000119173,16.524,0
1.1025,1.678492E-06,16.5375,0,1.1025,-0.0002306248,16.5375,0
1.1034,-6.478981E-05,16.551,0,1.1034,-0.0002437171,16.551,0
1.1043,-0.0002769512,16.5645,0,1.1043,-0.000309514,16.5645,0
1.1052,-0.0003172351,16.578,0,1.1052,-0.0002410315,16.578,0
1.1061,-0.0002145113,16.5915,0,1.1061,-6.243992E-05,16.5915,0
1.107,-0.0003142138,16.605,0,1.107,8.291753E-05,16.605,0
1.1079,-0.0003064927,16.6185,0,1.1079,0.0003608759,16.6185,0
1.1088,-0.0001144732,16.632,0,1.1088,0.0003343557,16.632,0
1.1097,8.358892E-05,16.6455,0,1.1097,0.0002464027,16.6455,0
1.1106,0.0001164874,16.659,0,1.1106,0.0001305867,16.659,0
1.1115,0.0001701991,16.6725,0,1.1115,1.477073E-05,16.6725,0
1.1124,0.0001500572,16.686,0,1.1124,9.399558E-06,16.686,0
1.1133,7.653925E-05,16.6995,0,1.1133,2.1149E-05,16.6995,0
1.1142,0.0001621424,16.713,0,1.1142,4.33051E-05,16.713,0
1.1151,0.0001550927,16.7265,0,1.1151,-6.378271E-06,16.7265,0
1.116,0.0002131685,16.74,0,1.116,4.33051E-05,16.74,0
1.1169,0.0001618067,16.7535,0,1.1169,3.826963E-05,16.7535,0
1.1178,1.846342E-05,16.767,0,1.1178,-8.493171E-05,16.767,0
1.1187,-5.539025E-05,16.7805,0,1.1187,-0.0001487144,16.7805,0
1.1196,-0.0001420005,16.794,0,1.1196,-0.0001665064,16.794,0
1.1205,-0.000115816,16.8075,0,1.1205,-0.0001332723,16.8075,0
1.1214,-0.000130251,16.821,0,1.1214,-0.0001185016,16.821,0
1.1223,-0.0001161517,16.8345,0,1.1223,-0.0002534524,16.8345,0
1.1232,0.0001111162,16.848,0,1.1232,-0.0003323415,16.848,0
1.1241,0.0002413672,16.8615,0,1.1241,-0.0003108568,16.8615,0
1.125,0.0002876936,16.875,0,1.125,-0.0002474098,16.875,0
1.1259,0.0003414054,16.8885,0,1.1259,-0.0001587854,16.8885,0
1.1268,0.0003420768,16.902,0,1.1268,0.0001218585,16.902,0
1.1277,0.0002205539,16.9155,0,1.1277,0.0003508049,16.9155,0
1.1286,8.224613E-05,16.929,0,1.1286,0.0001930266,16.929,0
1.1295,-9.735256E-05,16.9425,0,1.1295,0.0001017166,16.9425,0
1.1304,-0.0002682231,16.956,0,1.1304,4.49836E-05,16.956,0
1.1313,-0.0005105974,16.9695,0,1.1313,-5.203327E-05,16.9695,0
1.1322,-0.0004699779,16.983,0,1.1322,1.376364E-05,16.983,0
1.1331,-0.0003296559,16.9965,0,1.1331,6.009003E-05,16.9965,0
1.134,-0.0002944076,17.01,0,1.134,0.0001641566,17.01,0
1.1349,-0.0001916838,17.0235,0,1.1349,0.000169192,17.0235,0
1.1358,-8.627451E-05,17.037,0,1.1358,-1.309224E-05,17.037,0
1.1367,-8.090334E-05,17.0505,0,1.1367,-5.941863E-05,17.0505,0
1.1376,-4.196231E-05,17.064,0,1.1376,-7.452507E-05,17.064,0
1.1385,7.754635E-05,17.0775,0,1.1385,-0.0001413291,17.0775,0
1.1394,0.0002225681,17.091,0,1.1394,-0.0001953765,17.091,0
1.1403,0.0001218585,17.1045,0,1.1403,-0.0001467002,17.1045,0
1.1412,0.0001033951,17.118,0,1.1412,-0.0002178683,17.118,0
1.1421,4.934768E-05,17.1315,0,1.1421,-0.0002970932,17.1315,0
1.143,-9.768826E-05,17.145,0,1.143,-0.0002467384,17.145,0
1.1439,-0.0002044404,17.1585,0,1.1439,-0.0001940337,17.1585,0
1.1448,-3.894102E-05,17.172,0,1.1448,-0.0001399863,17.172,0
1.1457,0.000109102,17.1855,0,1.1457,-3.356985E-06,17.1855,0
1.1466,1.812772E-05,17.199,0,1.1466,0.0001806058,17.199,0
1.1475,7.956054E-05,17.2125,0,1.1475,0.0002541238,17.2125,0
1.1484,0.0001510643,17.226,0,1.1484,0.0002205539,17.226,0
1.1493,0.0001520714,17.2395,0,1.1493,0.0001994049,17.2395,0
1.1502,0.0001433432,17.253,0,1.1502,0.0003575189,17.253,0
1.1511,-4.39765E-05,17.2665,0,1.1511,0.0002457313,17.2665,0
1.152,-9.198138E-05,17.28,0,1.152,-7.721065E-06,17.28,0
1.1529,-0.0001775845,17.2935,0,1.1529,-0.0001332723,17.2935,0
1.1538,-0.000256138,17.307,0,1.1538,-0.000115816,17.307,0
1.1547,-0.0001426719,17.3205,0,1.1547,-0.0001003738,17.3205,0
1.1556,-2.450599E-05,17.334,0,1.1556,-0.0001373007,17.334,0
1.1565,4.632639E-05,17.3475,0,1.1565,-1.174945E-05,17.3475,0
1.1574,8.123904E-05,17.361,0,1.1574,2.316319E-05,17.361,0
1.1583,8.82887E-05,17.3745,0,1.1583,-2.316319E-05,17.3745,0
1.1592,0.0001161517,17.388,0,1.1592,7.385367E-06,17.388,0
1.1601,0.0001245441,17.4015,0,1.1601,8.493171E-05,17.4015,0
1.161,0.0002601663,17.415,0,1.161,0.0001258869,17.415,0
1.1619,0.0001873197,17.4285,0,1.1619,5.337606E-05,17.4285,0
1.1628,0.0001393149,17.442,0,1.1628,-0.0001282368,17.442,0
1.1637,5.270466E-05,17.4555,0,1.1637,-0.0002225681,17.4555,0
1.1646,-0.0001926909,17.469,0,1.1646,-0.0003051499,17.469,0
1.1655,-0.0001957122,17.4825,0,1.1655,-0.0003790036,17.4825,0
1.1664,-0.0001900053,17.496,0,1.1664,-0.0003048142,17.496,0
1.1673,-0.000105745,17.5095,0,1.1673,-5.941863E-05,17.5095,0
1.1682,-0.0001863127,17.523,0,1.1682,0.0001460288,17.523,0
1.1691,-9.600977E-05,17.5365,0,1.1691,0.0001765774,17.5365,0
1.17,0.0001376364,17.55,0,1.17,0.0002202182,17.55,0
1.1709,0.0001037308,17.5635,0,1.1709,0.0001715419,17.5635,0
1.1718,0.0002628519,17.577,0,1.1718,4.028382E-05,17.577,0
1.1727,0.0003024643,17.5905,0,1.1727,-6.378271E-06,17.5905,0
1.1736,0.0001836271,17.604,0,1.1736,3.189136E-05,17.604,0
1.1745,-5.941863E-05,17.6175,0,1.1745,6.57969E-05,17.6175,0
1.1754,-0.0001695277,17.631,0,1.1754,8.157473E-05,17.631,0
1.1763,-0.0002581521,17.6445,0,1.1763,-2.383459E-05,17.6445,0
1.1772,-0.0004441291,17.658,0,1.1772,-1.242084E-05,17.658,0
1.1781,-0.0001883268,17.6715,0,1.1781,1.846342E-05,17.6715,0
1.179,0.0001473716,17.685,0,1.179,-6.009003E-05,17.685,0
1.1799,0.0001571069,17.6985,0,1.1799,-0.0001393149,17.6985,0
1.1808,5.001907E-05,17.712,0,1.1808,-7.788205E-05,17.712,0
1.1817,-1.275654E-05,17.7255,0,1.1817,-1.477073E-05,17.7255,0
1.1826,-9.970245E-05,17.739,0,1.1826,3.860533E-05,17.739,0
1.1835,-0.0002098116,17.7525,0,1.1835,0.0001131304,17.7525,0
1.1844,2.853437E-05,17.766,0,1.1844,-1.879912E-05,17.766,0
1.1853,0.0001151446,17.7795,0,1.1853,-0.0001084306,17.7795,0
1.1862,-4.095522E-05,17.793,0,1.1862,-0.0001607996,17.793,0
1.1871,-6.009003E-05,17.8065,0,1.1871,-9.500267E-05,17.8065,0
1.188,-8.526741E-05,17.82,0,1.188,-2.21561E-05,17.82,0
1.1889,-0.0001920195,17.8335,0,1.1889,-8.291753E-05,17.8335,0
1.1898,-0.0001634852,17.847,0,1.1898,-0.0001483787,17.847,0
1.1907,2.349889E-05,17.8605,0,1.1907,-0.0001275654,17.8605,0
1.1916,4.095522E-05,17.874,0,1.1916,-5.136187E-05,17.874,0
1.1925,-4.699779E-05,17.8875,0,1.1925,-0.0001426719,17.8875,0
1.1934,7.754635E-05,17.901,0,1.1934,-0.0001121233,17.901,0
1.1943,0.0001728847,17.9145,0,1.1943,0.000164828,17.9145,0
1.1952,0.0002306248,17.928,0,1.1952,0.0001309224,17.928,0
1.1961,0.000327306,17.9415,0,1.1961,4.632639E-05,17.9415,0
1.197,0.0003474479,17.955,0,1.197,0.0001027237,17.955,0
1.1979,0.0002678874,17.9685,0,1.1979,-1.846342E-05,17.9685,0
1.1988,6.51255E-05,17.982,0,1.1988,-0.0001493858,17.982,0
1.1997,-0.0002699016,17.9955,0,1.1997,-1.644922E-05,17.9955,0
1.2006,-0.0005213398,18.009,0,1.2006,7.888914E-05,18.009,0
1.2015,-0.0003679255,18.0225,0,1.2015,1.846342E-05,18.0225,0
1.2024,-0.0002937362,18.036,0,1.2024,-7.351797E-05,18.036,0
1.2033,-9.936675E-05,18.0495,0,1.2033,1.779202E-05,18.0495,0
1.2042,0.0002178683,18.063,0,1.2042,8.526741E-05,18.063,0
1.2051,0.0001537499,18.0765,0,1.2051,5.572595E-05,18.0765,0
1.206,4.53193E-05,18.09,0,1.206,0.0001154803,18.09,0
1.2069,0.000119173,18.1035,0,1.2069,0.0002225681,18.1035,0
1.2078,0.0001554284,18.117,0,1.2078,0.0001003738,18.117,0
1.2087,0.0001352865,18.1305,0,1.2087,-7.721065E-05,18.1305,0
1.2096,0.0001326009,18.144,0,1.2096,-0.0002051118,18.144,0
1.2105,-2.853437E-05,18.1575,0,1.2105,-0.0001426719,18.1575,0
1.2114,-0.0001571069,18.171,0,1.2114,-0.0001185016,18.171,0
1.2123,-0.0001221943,18.1845,0,1.2123,-9.433127E-05,18.1845,0
1.2132,-0.0001775845,18.198,0,1.2132,4.263371E-05,18.198,0
1.2141,-0.0002668803,18.2115,0,1.2141,0.0001634852,18.2115,0
1.215,-0.0001215228,18.225,0,1.215,9.365987E-05,18.225,0
1.2159,0.0001030594,18.2385,0,1.2159,3.054856E-05,18.2385,0
1.2168,7.620356E-05,18.252,0,1.2168,-9.735256E-06,18.252,0
1.2177,5.706874E-05,18.2655,0,1.2177,-5.539025E-05,18.2655,0
1.2186,0.0001359579,18.279,0,1.2186,-0.0002299535,18.279,0
1.2195,2.484169E-05,18.2925,0,1.2195,-0.0004635996,18.2925,0
1.2204,-0.0001114519,18.306,0,1.2204,-0.000499855,18.306,0
1.2213,9.399558E-06,18.3195,0,1.2213,-0.0003420768,18.3195,0
1.2222,9.097429E-05,18.333,0,1.2222,-7.418937E-05,18.333,0
1.2231,-5.572595E-05,18.3465,0,1.2231,0.0001587854,18.3465,0
1.224,-0.0001910124,18.36,0,1.224,0.0005988861,18.36,0
1.2249,-0.0001309224,18.3735,0,1.2249,0.0005649806,18.3735,0
1.2258,-7.721065E-05,18.387,0,1.2258,0.000200412,18.387,0
1.2267,0.0001064164,18.4005,0,1.2267,0.0001346151,18.4005,0
1.2276,0.0002910506,18.414,0,1.2276,5.740444E-05,18.414,0
1.2285,0.0004605783,18.4275,0,1.2285,-2.349889E-06,18.4275,0
1.2294,0.0004538643,18.441,0,1.2294,-6.478981E-05,18.441,0
1.2303,0.0001211871,18.4545,0,1.2303,-0.0002759442,18.4545,0
1.2312,-0.0002420386,18.468,0,1.2312,-0.0003028,18.468,0
1.2321,-0.0005156329,18.4815,0,1.2321,-0.0003501335,18.4815,0
1.233,-0.0004595712,18.495,0,1.233,-0.0002534524,18.495,0
1.2339,-9.634547E-05,18.5085,0,1.2339,-4.599069E-05,18.5085,0
1.2348,1.745632E-05,18.522,0,1.2348,0.0001628138,18.522,0
1.2357,-4.162661E-05,18.5355,0,1.2357,0.0002480812,18.5355,0
1.2366,-0.0002222324,18.549,0,1.2366,0.0001144732,18.549,0
1.2375,-0.0001104448,18.5625,0,1.2375,0.0001040665,18.5625,0
1.2384,1.544213E-05,18.576,0,1.2384,-2.450599E-05,18.576,0
1.2393,0.0001473716,18.5895,0,1.2393,-0.0002118257,18.5895,0
1.2402,0.0002225681,18.603,0,1.2402,-0.0001601282,18.603,0
1.2411,5.706874E-05,18.6165,0,1.2411,-0.0001279011,18.6165,0
1.242,-3.356985E-05,18.63,0,1.242,-0.0001812772,18.63,0
1.2429,-6.982528E-05,18.6435,0,1.2429,8.157473E-05,18.6435,0
1.2438,-9.835965E-05,18.657,0,1.2438,0.0001221943,18.657,0
1.2447,-2.786297E-05,18.6705,0,1.2447,0.0001923552,18.6705,0
1.2456,-9.735256E-06,18.684,0,1.2456,0.0002346532,18.684,0
1.2465,-3.323415E-05,18.6975,0,1.2465,2.853437E-05,18.6975,0
1.2474,3.591974E-05,18.711,0,1.2474,-0.0001017166,18.711,0
1.2483,5.505455E-05,18.7245,0,1.2483,-0.0001426719,18.7245,0
1.2492,1.309224E-05,18.738,0,1.2492,-0.0003058213,18.738,0
1.2501,3.121996E-05,18.7515,0,1.2501,-0.0004092164,18.7515,0
1.251,0.000126894,18.765,0,1.251,-0.0001732204,18.765,0
1.2519,0.0001477073,18.7785,0,1.2519,0.0001299153,18.7785,0
1.2528,-3.659113E-05,18.792,0,1.2528,0.0002386816,18.792,0
1.2537,-5.471885E-05,18.8055,0,1.2537,0.0002977645,18.8055,0
1.2546,-6.277562E-05,18.819,0,1.2546,0.0001591211,18.819,0
1.2555,-0.0001315938,18.8325,0,1.2555,-4.867628E-05,18.8325,0
1.2564,-0.0001003738,18.846,0,1.2564,-0.0001742275,18.846,0
1.2573,9.365987E-05,18.8595,0,1.2573,-0.0002151827,18.8595,0
1.2582,0.0002588235,18.873,0,1.2582,-0.0001084306,18.873,0
1.2591,0.0002145113,18.8865,0,1.2591,-1.644922E-05,18.8865,0
1.26,8.82887E-05,18.9,0,1.26,0.0001205158,18.9,0
1.2609,5.001907E-05,18.9135,0,1.2609,0.0002034333,18.9135,0
1.2618,0.0001272297,18.927,0,1.2618,0.0002232395,18.927,0
1.2627,1.141375E-05,18.9405,0,1.2627,0.0001171588,18.9405,0
1.2636,3.558404E-05,18.954,0,1.2636,2.21561E-05,18.954,0
1.2645,4.934768E-05,18.9675,0,1.2645,0.000105745,18.9675,0
1.2654,6.411841E-05,18.981,0,1.2654,8.291753E-05,18.981,0
1.2663,-0.0001040665,18.9945,0,1.2663,-7.687495E-05,18.9945,0
1.2672,-0.00021149,19.008,0,1.2672,-0.0001654994,19.008,0
1.2681,-0.0002225681,19.0215,0,1.2681,-0.0001399863,19.0215,0
1.269,-0.0001248798,19.035,0,1.269,-8.96315E-05,19.035,0
1.2699,3.021286E-06,19.0485,0,1.2699,-0.0001319295,19.0485,0
1.2708,0.0001312581,19.062,0,1.2708,-0.0001765774,19.062,0
1.2717,0.0003541619,19.0755,0,1.2717,-5.706874E-05,19.0755,0
1.2726,0.0002803082,19.089,0,1.2726,-0.0002208896,19.089,0
1.2735,-3.256275E-05,19.1025,0,1.2735,-0.0003679255,19.1025,0
1.2744,-0.0002289464,19.116,0,1.2744,-0.0003367056,19.116,0
1.2753,-0.0002279393,19.1295,0,1.2753,-0.0001876554,19.1295,0
1.2762,-0.0004894484,19.143,0,1.2762,-6.881819E-05,19.143,0
1.2771,-0.000519997,19.1565,0,1.2771,0.0001785916,19.1565,0
1.278,-0.0003279774,19.17,0,1.278,0.0003709468,19.17,0
1.2789,-0.000112459,19.1835,0,1.2789,0.0002967575,19.1835,0
1.2798,-2.450599E-05,19.197,0,1.2798,0.0002380102,19.197,0
1.2807,-3.726253E-05,19.2105,0,1.2807,0.0002135042,19.2105,0
1.2816,-3.189136E-05,19.224,0,1.2816,9.500267E-05,19.224,0
1.2825,-4.36408E-05,19.2375,0,1.2825,-3.289845E-05,19.2375,0
1.2834,1.577783E-05,19.251,0,1.2834,-0.0001567712,19.251,0
1.2843,5.001907E-05,19.2645,0,1.2843,-0.0003447623,19.2645,0
1.2852,-2.584878E-05,19.278,0,1.2852,-0.0003192493,19.278,0
1.2861,-7.016098E-05,19.2915,0,1.2861,-0.0001708705,19.2915,0
1.287,-1.040665E-05,19.305,0,1.287,-9.533837E-05,19.305,0
1.2879,0.0001789273,19.3185,0,1.2879,-1.040665E-05,19.3185,0
1.2888,0.0003826963,19.332,0,1.2888,0.0002336461,19.332,0
1.2897,0.0005582666,19.3455,0,1.2897,0.0004132448,19.3455,0
1.2906,0.0004105592,19.359,0,1.2906,0.0001943694,19.359,0
1.2915,-2.887007E-05,19.3725,0,1.2915,0.0001050736,19.3725,0
1.2924,-0.0003152209,19.386,0,1.2924,0.0001003738,19.386,0
1.2933,-0.0002762798,19.3995,0,1.2933,-5.337606E-05,19.3995,0
1.2942,-0.000190341,19.413,0,1.2942,-1.745632E-05,19.413,0
1.2951,-0.0001470359,19.4265,0,1.2951,-2.652018E-05,19.4265,0
1.296,-1.644922E-05,19.44,0,1.296,-9.701686E-05,19.44,0
1.2969,0.0001070878,19.4535,0,1.2969,-0.000224918,19.4535,0
1.2978,0.0002735943,19.467,0,1.2978,-0.0002786297,19.467,0
1.2987,0.0002564736,19.4805,0,1.2987,-0.0001507286,19.4805,0
1.2996,0.0002611734,19.494,0,1.2996,-9.433127E-05,19.494,0
1.3005,0.0002333104,19.5075,0,1.3005,-0.0001164874,19.5075,0
1.3014,-4.800488E-05,19.521,0,1.3014,-2.316319E-05,19.521,0
1.3023,-0.0002836652,19.5345,0,1.3023,0.0002467384,19.5345,0
1.3032,-0.0002205539,19.548,0,1.3032,0.0001641566,19.548,0
1.3041,-0.0002061189,19.5615,0,1.3041,-7.653925E-05,19.5615,0
1.305,9.433127E-05,19.575,0,1.305,1.007095E-06,19.575,0
1.3059,0.000249424,19.5885,0,1.3059,5.169757E-05,19.5885,0
1.3068,0.0001017166,19.602,0,1.3068,3.692683E-06,19.602,0
1.3077,-7.922484E-05,19.6155,0,1.3077,3.054856E-05,19.6155,0
1.3086,-0.0003004501,19.629,0,1.3086,9.634547E-05,19.629,0
1.3095,-0.0002383459,19.6425,0,1.3095,-5.706874E-05,19.6425,0
1.3104,-0.0002185397,19.656,0,1.3104,-0.0002803082,19.656,0
1.3113,4.162661E-05,19.6695,0,1.3113,-0.0004958267,19.6695,0
1.3122,0.0003367056,19.683,0,1.3122,-0.0005706874,19.683,0
1.3131,0.0002101472,19.6965,0,1.3131,-0.0005683375,19.6965,0
1.314,1.443504E-05,19.71,0,1.314,-0.0002930648,19.71,0
1.3149,-2.887007E-05,19.7235,0,1.3149,1.007095E-06,19.7235,0
1.3158,-0.0001292439,19.737,0,1.3158,0.0003873961,19.737,0
1.3167,-0.0003021286,19.7505,0,1.3167,0.000587808,19.7505,0
1.3176,-0.0003403983,19.764,0,1.3176,0.0005763943,19.764,0
1.3185,-0.0001685206,19.7775,0,1.3185,0.0005085832,19.7775,0
1.3194,-0.0001232013,19.791,0,1.3194,0.000278294,19.791,0
1.3203,-5.270466E-05,19.8045,0,1.3203,0.0001030594,19.8045,0
1.3212,-5.706874E-06,19.818,0,1.3212,3.994812E-05,19.818,0
1.3221,-3.659113E-05,19.8315,0,1.3221,5.673304E-05,19.8315,0
1.323,6.378271E-06,19.845,0,1.323,3.457694E-05,19.845,0
1.3239,7.553216E-05,19.8585,0,1.3239,5.035477E-06,19.8585,0
1.3248,-5.706874E-06,19.872,0,1.3248,-0.0001211871,19.872,0
1.3257,5.136187E-05,19.8855,0,1.3257,-9.768826E-05,19.8855,0
1.3266,6.78111E-05,19.899,0,1.3266,-0.0001228656,19.899,0
1.3275,1.947051E-05,19.9125,0,1.3275,-0.0002876936,19.9125,0
1.3284,6.143282E-05,19.926,0,1.3284,-0.0002863508,19.926,0
1.3293,0.0001339437,19.9395,0,1.3293,-6.478981E-05,19.9395,0
1.3302,7.821774E-05,19.953,0,1.3302,0.0001111162,19.953,0
1.3311,4.867628E-05,19.9665,0,1.3311,0.0001101091,19.9665,0
1.332,7.721065E-06,19.98,0,1.332,0.000154757,19.98,0
1.3329,8.661021E-05,19.9935,0,1.3329,-4.53193E-05,19.9935,0
1.3338,0.0001863127,20.007,0,1.3338,-0.0001822843,20.007,0
1.3347,0.00021149,20.0205,0,1.3347,-0.0001560998,20.0205,0
1.3356,0.0003326772,20.034,0,1.3356,-9.500267E-05,20.034,0
1.3365,0.0003078355,20.0475,0,1.3365,-4.263371E-05,20.0475,0
1.3374,8.123904E-05,20.061,0,1.3374,3.356985E-07,20.061,0
1.3383,-4.196231E-05,20.0745,0,1.3383,-5.606165E-05,20.0745,0
1.3392,9.198138E-05,20.088,0,1.3392,-2.081331E-05,20.088,0
1.3401,0.0001101091,20.1015,0,1.3401,-0.0001198444,20.1015,0
1.341,-6.881819E-05,20.115,0,1.341,-0.0002574807,20.115,0
1.3419,-0.0002269322,20.1285,0,1.3419,-0.0002829938,20.1285,0
1.3428,-0.0003534905,20.142,0,1.3428,-0.0002403601,20.142,0
1.3437,-0.0002759442,20.1555,0,1.3437,-0.000140322,20.1555,0
1.3446,-0.0002292821,20.169,0,1.3446,-1.712062E-05,20.169,0
1.3455,-0.0002007477,20.1825,0,1.3455,0.0002118257,20.1825,0
1.3464,-7.989624E-05,20.196,0,1.3464,0.0001544213,20.196,0
1.3473,0.0001339437,20.2095,0,1.3473,0.0001151446,20.2095,0
1.3482,0.0003420768,20.223,0,1.3482,4.36408E-06,20.223,0
1.3491,0.0002252537,20.2365,0,1.3491,-0.0001889983,20.2365,0
1.35,0.0002568093,20.25,0,1.35,-0.0002145113,20.25,0
1.3509,0.0002937362,20.2635,0,1.3509,-5.001907E-05,20.2635,0
1.3518,-7.956054E-05,20.277,0,1.3518,8.560311E-05,20.277,0
1.3527,-0.0004508431,20.2905,0,1.3527,0.0003098497,20.2905,0
1.3536,-0.0002618448,20.304,0,1.3536,0.0002346532,20.304,0
1.3545,-0.0002514381,20.3175,0,1.3545,-5.035477E-06,20.3175,0
1.3554,-0.0003920958,20.331,0,1.3554,-0.0001289082,20.331,0
1.3563,-0.0002450599,20.3445,0,1.3563,-0.0001537499,20.3445,0
1.3572,-4.53193E-05,20.358,0,1.3572,-0.0002860151,20.358,0
1.3581,-0.0001923552,20.3715,0,1.3581,-0.000340734,20.3715,0
1.359,-0.0001430075,20.385,0,1.359,4.263371E-05,20.385,0
1.3599,-4.733349E-05,20.3985,0,1.3599,0.00036289,20.3985,0
1.3608,-0.0001373007,20.412,0,1.3608,0.0003041428,20.412,0
1.3617,-0.0001161517,20.4255,0,1.3617,0.0003967956,20.4255,0
1.3626,-5.706874E-06,20.439,0,1.3626,0.000548867,20.439,0
1.3635,-1.242084E-05,20.4525,0,1.3635,0.0003111925,20.4525,0
1.3644,4.53193E-05,20.466,0,1.3644,5.807584E-05,20.466,0
1.3653,0.0001050736,20.4795,0,1.3653,-2.853437E-05,20.4795,0
1.3662,0.0002403601,20.493,0,1.3662,-2.047761E-05,20.493,0
1.3671,0.0002306248,20.5065,0,1.3671,-5.404745E-05,20.5065,0
1.368,0.000256138,20.52,0,1.368,-0.0001185016,20.52,0
1.3689,0.0002796368,20.5335,0,1.3689,-0.0002235752,20.5335,0
1.3698,5.874724E-05,20.547,0,1.3698,-0.0003360342,20.547,0
1.3707,-8.89601E-05,20.5605,0,1.3707,-0.0004555428,20.5605,0
1.3716,-9.701686E-05,20.574,0,1.3716,-0.0004790417,20.574,0
1.3725,-1.712062E-05,20.5875,0,1.3725,-0.0002819867,20.5875,0
1.3734,-7.049668E-06,20.601,0,1.3734,0,20.601,0
1.3743,7.754635E-05,20.6145,0,1.3743,0.0002645304,20.6145,0
1.3752,-5.404745E-05,20.628,0,1.3752,0.0003132067,20.628,0
1.3761,-3.726253E-05,20.6415,0,1.3761,0.0002695659,20.6415,0
1.377,9.735256E-06,20.655,0,1.377,0.000112459,20.655,0
1.3779,2.1149E-05,20.6685,0,1.3779,-5.035477E-06,20.6685,0
1.3788,-2.887007E-05,20.682,0,1.3788,-0.0002104829,20.682,0
1.3797,0.0001708705,20.6955,0,1.3797,-0.0003074998,20.6955,0
1.3806,0.0003420768,20.709,0,1.3806,-0.0004360723,20.709,0
1.3815,0.0002722515,20.7225,0,1.3815,-0.000436408,20.7225,0
1.3824,0.000112459,20.736,0,1.3824,-0.0003400626,20.736,0
1.3833,-0.0001265583,20.7495,0,1.3833,-0.0001829557,20.7495,0
1.3842,-0.0001198444,20.763,0,1.3842,-0.0001258869,20.763,0
1.3851,-0.0002353246,20.7765,0,1.3851,-6.210422E-05,20.7765,0
1.386,-0.0002326391,20.79,0,1.386,8.69459E-05,20.79,0
1.3869,-8.526741E-05,20.8035,0,1.3869,0.000235996,20.8035,0
1.3878,-9.970245E-05,20.817,0,1.3878,0.00048542,20.817,0
1.3887,-0.0001185016,20.8305,0,1.3887,0.0006948959,20.8305,0
1.3896,-5.136187E-05,20.844,0,1.3896,0.0005240254,20.844,0
1.3905,3.558404E-05,20.8575,0,1.3905,0.0002887007,20.8575,0
1.3914,-1.678492E-06,20.871,0,1.3914,0.0001752346,20.871,0
1.3923,-1.510643E-05,20.8845,0,1.3923,1.040665E-05,20.8845,0
1.3932,-6.54612E-05,20.898,0,1.3932,-9.835965E-05,20.898,0
1.3941,-8.392462E-06,20.9115,0,1.3941,-0.0001289082,20.9115,0
1.395,1.376364E-05,20.925,0,1.395,-0.0001379721,20.925,0
1.3959,-2.853437E-05,20.9385,0,1.3959,-0.0002205539,20.9385,0
1.3968,3.356985E-06,20.952,0,1.3968,-0.0002235752,20.952,0
1.3977,6.74754E-05,20.9655,0,1.3977,-0.0002702373,20.9655,0
1.3986,-3.356985E-06,20.979,0,1.3986,-0.0002769512,20.979,0
1.3995,3.356985E-07,20.9925,0,1.3995,-0.0001497215,20.9925,0
1.4004,-7.284657E-05,21.006,0,1.4004,-6.713969E-06,21.006,0
1.4013,-4.867628E-05,21.0195,0,1.4013,0.0001426719,21.0195,0
1.4022,5.169757E-05,21.033,0,1.4022,0.0001127947,21.033,0
1.4031,2.887007E-05,21.0465,0,1.4031,3.289845E-05,21.0465,0
1.404,9.735256E-06,21.06,0,1.404,-5.337606E-05,21.06,0
1.4049,2.450599E-05,21.0735,0,1.4049,-0.0001114519,21.0735,0
1.4058,-4.39765E-05,21.087,0,1.4058,-0.0001020523,21.087,0
1.4067,-7.721065E-06,21.1005,0,1.4067,-3.155566E-05,21.1005,0
1.4076,3.524834E-05,21.114,0,1.4076,-4.43122E-05,21.114,0
1.4085,8.023193E-05,21.1275,0,1.4085,-0.0001292439,21.1275,0
1.4094,8.291753E-05,21.141,0,1.4094,-0.0002923934,21.141,0
1.4103,4.46479E-05,21.1545,0,1.4103,-0.0003910887,21.1545,0
1.4112,4.46479E-05,21.168,0,1.4112,-0.0005324178,21.168,0
1.4121,8.96315E-05,21.1815,0,1.4121,-0.0005921721,21.1815,0
1.413,9.231708E-05,21.195,0,1.413,-0.000252781,21.195,0
1.4139,0.0001634852,21.2085,0,1.4139,0.0002695659,21.2085,0
1.4148,0.0003722896,21.222,0,1.4148,0.0005995575,21.222,0
1.4157,0.0002259251,21.2355,0,1.4157,0.0006482337,21.2355,0
1.4166,-0.0001399863,21.249,0,1.4166,0.0005582666,21.249,0
1.4175,-0.0002692302,21.2625,0,1.4175,0.0001940337,21.2625,0
1.4184,-0.0004273442,21.276,0,1.4184,-7.754635E-05,21.276,0
1.4193,-0.0003786679,21.2895,0,1.4193,-0.0001483787,21.2895,0
1.4202,0.0002326391,21.303,0,1.4202,-9.433127E-05,21.303,0
1.4211,0.0005552453,21.3165,0,1.4211,-4.095522E-05,21.3165,0
1.422,0.0002440528,21.33,0,1.422,8.392462E-06,21.33,0
1.4229,6.042573E-06,21.3435,0,1.4229,9.802396E-05,21.3435,0
1.4238,-0.0003145495,21.357,0,1.4238,0.0001675135,21.357,0
1.4247,-0.0008721447,21.3705,0,1.4247,4.46479E-05,21.3705,0
1.4256,-0.0007784848,21.384,0,1.4256,-6.881819E-05,21.384,0
1.4265,-0.0002675517,21.3975,0,1.4265,3.356985E-07,21.3975,0
1.4274,-7.922484E-05,21.411,0,1.4274,0.0001205158,21.411,0
1.4283,1.577783E-05,21.4245,0,1.4283,9.466698E-05,21.4245,0
1.4292,0.0003595331,21.438,0,1.4292,4.095522E-05,21.438,0
1.4301,0.0003145495,21.4515,0,1.4301,3.524834E-05,21.4515,0
1.431,0.0001319295,21.465,0,1.431,4.49836E-05,21.465,0
1.4319,0.0001463645,21.4785,0,1.4319,3.155566E-05,21.4785,0
1.4328,2.316319E-05,21.492,0,1.4328,-9.198138E-05,21.492,0
1.4337,-0.0002198825,21.5055,0,1.4337,-0.0002000763,21.5055,0
1.4346,-0.0001621424,21.519,0,1.4346,-0.0003309987,21.519,0
1.4355,3.524834E-05,21.5325,0,1.4355,-0.0004515145,21.5325,0
1.4364,-0.0002145113,21.546,0,1.4364,-0.0004199588,21.546,0
1.4373,-7.351797E-05,21.5595,0,1.4373,-0.0002584878,21.5595,0
1.4382,5.136187E-05,21.573,0,1.4382,-0.0001000381,21.573,0
1.4391,-6.713969E-07,21.5865,0,1.4391,-4.061952E-05,21.5865,0
1.44,0.0001745632,21.6,0,1.44,5.169757E-05,21.6,0
1.4409,0.0004045167,21.6135,0,1.4409,0.000144686,21.6135,0
1.4418,0.0002507668,21.627,0,1.4418,0.0003575189,21.627,0
1.4427,0.0001205158,21.6405,0,1.4427,0.0005283894,21.6405,0
1.4436,2.517739E-05,21.654,0,1.4436,0.0003390555,21.654,0
1.4445,-0.0002239109,21.6675,0,1.4445,0.0002487526,21.6675,0
1.4454,-0.0002195468,21.681,0,1.4454,9.802396E-05,21.681,0
1.4463,-4.934768E-05,21.6945,0,1.4463,-8.493171E-05,21.6945,0
1.4472,-3.323415E-05,21.708,0,1.4472,-3.390555E-05,21.708,0
1.4481,7.486076E-05,21.7215,0,1.4481,-9.097429E-05,21.7215,0
1.449,0.0003561761,21.735,0,1.449,-0.0002302892,21.735,0
1.4499,0.0001822843,21.7485,0,1.4499,-0.00021149,21.7485,0
1.4508,2.047761E-05,21.762,0,1.4508,-3.457694E-05,21.762,0
1.4517,-0.0003232776,21.7755,0,1.4517,-9.063859E-06,21.7755,0
1.4526,-0.0005777371,21.789,0,1.4526,-0.0001077592,21.789,0
1.4535,-0.0005481956,21.8025,0,1.4535,6.009003E-05,21.8025,0
1.4544,-0.0002977645,21.816,0,1.4544,0.0001211871,21.816,0
1.4553,-1.409934E-05,21.8295,0,1.4553,-6.713969E-06,21.8295,0
1.4562,2.652018E-05,21.843,0,1.4562,-7.653925E-05,21.843,0
1.4571,7.721065E-06,21.8565,0,1.4571,-3.692683E-06,21.8565,0
1.458,6.881819E-05,21.87,0,1.458,-3.927672E-05,21.87,0
1.4589,9.298848E-05,21.8835,0,1.4589,-0.0002158541,21.8835,0
1.4598,1.712062E-05,21.897,0,1.4598,-0.000376318,21.897,0
1.4607,3.054856E-05,21.9105,0,1.4607,-0.0003343557,21.9105,0
1.4616,0.0001148089,21.924,0,1.4616,-0.000228275,21.924,0
1.4625,0.0001832914,21.9375,0,1.4625,-0.0001742275,21.9375,0
1.4634,0.0001896696,21.951,0,1.4634,7.721065E-06,21.951,0
1.4643,0.0002145113,21.9645,0,1.4643,0.0002709087,21.9645,0
1.4652,0.0001339437,21.978,0,1.4652,0.000224918,21.978,0
1.4661,4.061952E-05,21.9915,0,1.4661,0.0001171588,21.9915,0
1.467,3.793393E-05,22.005,0,1.467,0.0001540856,22.005,0
1.4679,5.706874E-05,22.0185,0,1.4679,4.263371E-05,22.0185,0
1.4688,8.96315E-05,22.032,0,1.4688,-0.000148043,22.032,0
1.4697,1.174945E-05,22.0455,0,1.4697,-0.0002598306,22.0455,0
1.4706,5.841154E-05,22.059,0,1.4706,-0.0002591592,22.059,0
1.4715,8.291753E-05,22.0725,0,1.4715,-0.0003487907,22.0725,0
1.4724,2.1149E-05,22.086,0,1.4724,-0.0002390173,22.086,0
1.4733,6.411841E-05,22.0995,0,1.4733,-5.169757E-05,22.0995,0
1.4742,4.800488E-05,22.113,0,1.4742,-2.484169E-05,22.113,0
1.4751,-4.196231E-05,22.1265,0,1.4751,-0.0002041047,22.1265,0
1.476,3.356985E-05,22.14,0,1.476,2.853437E-05,22.14,0
1.4769,2.24918E-05,22.1535,0,1.4769,0.0002245823,22.1535,0
1.4778,6.713969E-06,22.167,0,1.4778,0.0002826581,22.167,0
1.4787,0.0002024262,22.1805,0,1.4787,0.0005152972,22.1805,0
1.4796,0.0002574807,22.194,0,1.4796,0.0006062714,22.194,0
1.4805,0.0002584878,22.2075,0,1.4805,0.0003064927,22.2075,0
1.4814,0.0002507668,22.221,0,1.4814,-8.023193E-05,22.221,0
1.4823,0.0003803464,22.2345,0,1.4823,-0.0004595712,22.2345,0
1.4832,0.0003219348,22.248,0,1.4832,-0.0005807584,22.248,0
1.4841,-0.000136965,22.2615,0,1.4841,-0.0004014954,22.2615,0
1.485,-0.0003873961,22.275,0,1.485,-0.0001033951,22.275,0
1.4859,-0.0003622186,22.2885,0,1.4859,0.000379675,22.2885,0
1.4868,-0.0003880674,22.302,0,1.4868,0.0006720684,22.302,0
1.4877,-0.0008167544,22.3155,0,1.4877,0.0005676661,22.3155,0
1.4886,-0.0005287251,22.329,0,1.4886,0.0003937743,22.329,0
1.4895,-0.0001534142,22.3425,0,1.4895,0.0001849699,22.3425,0
1.4904,-0.0001017166,22.356,0,1.4904,-1.174945E-05,22.356,0
1.4913,-0.0001540856,22.3695,0,1.4913,-3.692683E-05,22.3695,0
1.4922,-5.807584E-05,22.383,0,1.4922,-0.0001094377,22.383,0
1.4931,6.210422E-05,22.3965,0,1.4931,-0.0001963836,22.3965,0
1.494,0.0001030594,22.41,0,1.494,-0.0001211871,22.41,0
1.4949,0.0001285725,22.4235,0,1.4949,-0.000207126,22.4235,0
1.4958,0.0001144732,22.437,0,1.4958,-0.0003887388,22.437,0
1.4967,0.0002010834,22.4505,0,1.4967,-0.000407538,22.4505,0
1.4976,0.000126894,22.464,0,1.4976,-0.0003172351,22.464,0
1.4985,-0.0001604639,22.4775,0,1.4985,-0.0002279393,22.4775,0
1.4994,-0.0001900053,22.491,0,1.4994,-5.001907E-05,22.491,0
1.5003,-2.18204E-05,22.5045,0,1.5003,0.0001292439,22.5045,0
1.5012,-0.0001346151,22.518,0,1.5012,0.0001510643,22.518,0
1.5021,-0.0002044404,22.5315,0,1.5021,0.0001433432,22.5315,0
1.503,-5.706874E-06,22.545,0,1.503,9.097429E-05,22.545,0
1.5039,0.0001366293,22.5585,0,1.5039,-3.558404E-05,22.5585,0
1.5048,0.000203769,22.572,0,1.5048,-4.196231E-05,22.572,0
1.5057,0.0001889983,22.5855,0,1.5057,-9.903105E-05,22.5855,0
1.5066,5.337606E-05,22.599,0,1.5066,-0.000158114,22.599,0
1.5075,4.39765E-05,22.6125,0,1.5075,-0.000115816,22.6125,0
1.5084,0.0004437934,22.626,0,1.5084,-5.908293E-05,22.626,0
1.5093,0.0004011597,22.6395,0,1.5093,-1.309224E-05,22.6395,0
1.5102,0.0001238727,22.653,0,1.5102,5.874724E-05,22.653,0
1.5111,-0.0001295796,22.6665,0,1.5111,7.351797E-05,22.6665,0
1.512,-0.0003957885,22.68,0,1.512,2.618448E-05,22.68,0
1.5129,-0.0004082094,22.6935,0,1.5129,2.517739E-05,22.6935,0
1.5138,-0.0004088808,22.707,0,1.5138,-5.169757E-05,22.707,0
1.5147,-0.000361883,22.7205,0,1.5147,-9.298848E-05,22.7205,0
1.5156,3.524834E-05,22.734,0,1.5156,-0.0001661708,22.734,0
1.5165,0.0001138018,22.7475,0,1.5165,-0.0003917601,22.7475,0
1.5174,6.64683E-05,22.761,0,1.5174,-0.0004904555,22.761,0
1.5183,0.0001141375,22.7745,0,1.5183,-0.0003722896,22.7745,0
1.5192,2.786297E-05,22.788,0,1.5192,-0.0003387198,22.788,0
1.5201,-0.0001373007,22.8015,0,1.5201,-0.0002514381,22.8015,0
1.521,1.846342E-05,22.815,0,1.521,0.0002151827,22.815,0
1.5219,7.418937E-05,22.8285,0,1.5219,0.0005596094,22.8285,0
1.5228,-8.157473E-05,22.842,0,1.5228,0.0004686351,22.842,0
1.5237,-3.323415E-05,22.8555,0,1.5237,0.0004894484,22.8555,0
1.5246,-4.867628E-05,22.869,0,1.5246,0.0004256657,22.869,0
1.5255,0.0001007095,22.8825,0,1.5255,0.0001362936,22.8825,0
1.5264,0.0001218585,22.896,0,1.5264,-3.524834E-05,22.896,0
1.5273,9.433127E-05,22.9095,0,1.5273,-0.000161471,22.9095,0
1.5282,0.0001930266,22.923,0,1.5282,-0.0001238727,22.923,0
1.5291,0.000323949,22.9365,0,1.5291,-0.0001094377,22.9365,0
1.53,0.0007113451,22.95,0,1.53,-0.0002960861,22.95,0
1.5309,0.0008130617,22.9635,0,1.5309,-0.0002326391,22.9635,0
1.5318,0.000369604,22.977,0,1.5318,-0.0001980621,22.977,0
1.5327,-8.392462E-05,22.9905,0,1.5327,-9.063859E-05,22.9905,0
1.5336,-0.0006029145,23.004,0,1.5336,0.0001517357,23.004,0
1.5345,-0.001229999,23.0175,0,1.5345,0.0005152972,23.0175,0
1.5354,-0.001130632,23.031,0,1.5354,0.0005609522,23.031,0
1.5363,-0.0004223087,23.0445,0,1.5363,0.0003074998,23.0445,0
1.5372,-0.0001044022,23.058,0,1.5372,5.639734E-05,23.058,0
1.5381,-0.0001362936,23.0715,0,1.5381,4.095522E-05,23.0715,0
1.539,-3.994812E-05,23.085,0,1.539,1.309224E-05,23.085,0
1.5399,4.53193E-05,23.0985,0,1.5399,-6.210422E-05,23.0985,0
1.5408,8.392462E-05,23.112,0,1.5408,-0.000185977,23.112,0
1.5417,8.560311E-05,23.1255,0,1.5417,-0.0001520714,23.1255,0
1.5426,2.786297E-05,23.139,0,1.5426,-0.0001520714,23.139,0
1.5435,9.063859E-06,23.1525,0,1.5435,-0.0002406958,23.1525,0
1.5444,3.826963E-05,23.166,0,1.5444,-0.0002312963,23.166,0
1.5453,0.0001255512,23.1795,0,1.5453,-0.0001037308,23.1795,0
1.5462,0.0001500572,23.193,0,1.5462,-0.0001037308,23.193,0
1.5471,0.0002017548,23.2065,0,1.5471,-0.0002030976,23.2065,0
1.548,0.0001604639,23.22,0,1.548,-0.0002558022,23.22,0
1.5489,7.217517E-05,23.2335,0,1.5489,-0.0002836652,23.2335,0
1.5498,-4.699779E-05,23.247,0,1.5498,-0.0002829938,23.247,0
1.5507,-1.007095E-06,23.2605,0,1.5507,-0.000179263,23.2605,0
1.5516,6.411841E-05,23.274,0,1.5516,4.263371E-05,23.274,0
1.5525,7.956054E-05,23.2875,0,1.5525,0.0002289464,23.2875,0
1.5534,6.478981E-05,23.301,0,1.5534,0.000186984,23.301,0
1.5543,7.653925E-05,23.3145,0,1.5543,0.0001232013,23.3145,0
1.5552,9.365987E-05,23.328,0,1.5552,0.0001701991,23.328,0
1.5561,6.61326E-05,23.3415,0,1.5561,8.82887E-05,23.3415,0
1.557,6.344701E-05,23.355,0,1.557,-2.014191E-06,23.355,0
1.5579,0.0001587854,23.3685,0,1.5579,-1.376364E-05,23.3685,0
1.5588,0.000288365,23.382,0,1.5588,0.000126894,23.382,0
1.5597,0.0002746014,23.3955,0,1.5597,-6.478981E-05,23.3955,0
1.5606,7.217517E-05,23.409,0,1.5606,-0.0002635233,23.409,0
1.5615,-0.0001359579,23.4225,0,1.5615,-0.0001567712,23.4225,0
1.5624,-0.0002762798,23.436,0,1.5624,-0.0001913481,23.436,0
1.5633,-0.000278294,23.4495,0,1.5633,-0.0002621805,23.4495,0
1.5642,-0.0001910124,23.463,0,1.5642,-6.814679E-05,23.463,0
1.5651,-0.000123537,23.4765,0,1.5651,0.0001520714,23.4765,0
1.566,-6.478981E-05,23.49,0,1.566,0.0001742275,23.49,0
1.5669,1.812772E-05,23.5035,0,1.5669,0.0002323034,23.5035,0
1.5678,2.21561E-05,23.517,0,1.5678,0.0002356603,23.517,0
1.5687,4.129091E-05,23.5305,0,1.5687,0.0002702373,23.5305,0
1.5696,3.591974E-05,23.544,0,1.5696,0.0002806439,23.544,0
1.5705,7.318227E-05,23.5575,0,1.5705,9.399557E-05,23.5575,0
1.5714,0.0001567712,23.571,0,1.5714,-3.591974E-05,23.571,0
1.5723,0.0001715419,23.5845,0,1.5723,4.699779E-06,23.5845,0
1.5732,1.577783E-05,23.598,0,1.5732,-0.0001168231,23.598,0
1.5741,-5.136187E-05,23.6115,0,1.5741,-0.0001560998,23.6115,0
1.575,-9.231708E-05,23.625,0,1.575,-9.970245E-05,23.625,0
1.5759,-5.169757E-05,23.6385,0,1.5759,-0.0001889983,23.6385,0
1.5768,0.0001164874,23.652,0,1.5768,-0.0001782559,23.652,0
1.5777,0.0002423743,23.6655,0,1.5777,3.826963E-05,23.6655,0
1.5786,6.344701E-05,23.679,0,1.5786,0.0001188373,23.679,0
1.5795,-0.0002205539,23.6925,0,1.5795,0.0001003738,23.6925,0
1.5804,-0.0003669185,23.706,0,1.5804,0.000200412,23.706,0
1.5813,-0.0002326391,23.7195,0,1.5813,-1.040665E-05,23.7195,0
1.5822,-0.0001916838,23.733,0,1.5822,-0.000105745,23.733,0
1.5831,-8.392462E-06,23.7465,0,1.5831,-4.733349E-05,23.7465,0
1.584,0.0003138781,23.76,0,1.584,-3.289845E-05,23.76,0
1.5849,0.0003346914,23.7735,0,1.5849,-1.544213E-05,23.7735,0
1.5858,5.236896E-05,23.787,0,1.5858,5.807584E-05,23.787,0
1.5867,-8.258183E-05,23.8005,0,1.5867,-9.466698E-05,23.8005,0
1.5876,-0.0001886625,23.814,0,1.5876,-0.000246067,23.814,0
1.5885,-0.0001352865,23.8275,0,1.5885,-0.0001658351,23.8275,0
1.5894,-3.356985E-07,23.841,0,1.5894,-0.000115816,23.841,0
1.5903,0.0001520714,23.8545,0,1.5903,-6.411841E-05,23.8545,0
1.5912,-3.390555E-05,23.868,0,1.5912,7.183947E-05,23.868,0
1.5921,-0.0003454337,23.8815,0,1.5921,0.0001114519,23.8815,0
1.593,-0.0004162661,23.895,0,1.593,8.392462E-06,23.895,0
1.5939,-0.0004629282,23.9085,0,1.5939,-3.121996E-05,23.9085,0
1.5948,-0.0002064546,23.922,0,1.5948,-0.0002588235,23.922,0
1.5957,0.0002104829,23.9355,0,1.5957,-0.0003454337,23.9355,0
1.5966,0.0002628519,23.949,0,1.5966,-0.0003605402,23.949,0
1.5975,0.0001514,23.9625,0,1.5975,-0.0003313344,23.9625,0
1.5984,0.0001188373,23.976,0,1.5984,-0.0001399863,23.976,0
1.5993,0.0001456931,23.9895,0,1.5993,0.0001393149,23.9895,0
1.6002,-5.606165E-05,24.003,0,1.6002,0.0002178683,24.003,0
1.6011,-0.0005287251,24.0165,0,1.6011,0.000252781,24.0165,0
1.602,-0.0003682612,24.03,0,1.602,0.0003622186,24.03,0
1.6029,-8.72816E-05,24.0435,0,1.6029,0.0002544594,24.0435,0
1.6038,3.894102E-05,24.057,0,1.6038,9.030289E-05,24.057,0
1.6047,6.143282E-05,24.0705,0,1.6047,-1.678492E-06,24.0705,0
1.6056,0.0001084306,24.084,0,1.6056,-8.761731E-05,24.084,0
1.6065,0.0001520714,24.0975,0,1.6065,-0.0001010452,24.0975,0
1.6074,0.0001769131,24.111,0,1.6074,-5.874724E-05,24.111,0
1.6083,0.0003152209,24.1245,0,1.6083,-0.0001211871,24.1245,0
1.6092,0.0004602426,24.138,0,1.6092,-0.0001188373,24.138,0
1.6101,0.0003165637,24.1515,0,1.6101,-0.0001309224,24.1515,0
1.611,0.0001490501,24.165,0,1.611,-0.0002470741,24.165,0
1.6119,-0.0001765774,24.1785,0,1.6119,-0.0003155566,24.1785,0
1.6128,-0.0005693446,24.192,0,1.6128,-0.0001121233,24.192,0
1.6137,-0.0004293584,24.2055,0,1.6137,-7.721065E-06,24.2055,0
1.6146,-0.0001728847,24.219,0,1.6146,0.0001393149,24.219,0
1.6155,6.61326E-05,24.2325,0,1.6155,0.0004427863,24.2325,0
1.6164,0.0001131304,24.246,0,1.6164,0.0004474861,24.246,0
1.6173,5.337606E-05,24.2595,0,1.6173,0.0002735943,24.2595,0
1.6182,7.251087E-05,24.273,0,1.6182,0.0001285725,24.273,0
1.6191,8.728161E-06,24.2865,0,1.6191,0.0001225299,24.2865,0
1.62,9.063859E-06,24.3,0,1.62,1.242084E-05,24.3,0
1.6209,0.0001030594,24.3135,0,1.6209,-5.807584E-05,24.3135,0
1.6218,0.0001876554,24.327,0,1.6218,-0.0001779202,24.327,0
1.6227,0.0002682231,24.3405,0,1.6227,-0.0002353246,24.3405,0
1.6236,0.0002678874,24.354,0,1.6236,-0.0002964218,24.354,0
1.6245,0.0002534524,24.3675,0,1.6245,-0.000410895,24.3675,0
1.6254,0.0001755703,24.381,0,1.6254,-0.0003773251,24.381,0
1.6263,-0.0002631876,24.3945,0,1.6263,-0.0001695277,24.3945,0
1.6272,-0.0002400244,24.408,0,1.6272,2.24918E-05,24.408,0
1.6281,-0.0002104829,24.4215,0,1.6281,0.0001742275,24.4215,0
1.629,-0.0002299535,24.435,0,1.629,0.0003753109,24.435,0
1.6299,-0.0001886625,24.4485,0,1.6299,0.0002289464,24.4485,0
1.6308,-0.0001272297,24.462,0,1.6308,-5.203327E-05,24.462,0
1.6317,1.040665E-05,24.4755,0,1.6317,-0.0002138399,24.4755,0
1.6326,1.141375E-05,24.489,0,1.6326,-0.0003578546,24.489,0
1.6335,-7.385367E-06,24.5025,0,1.6335,-0.0004484932,24.5025,0
1.6344,-5.975433E-05,24.516,0,1.6344,-0.000340734,24.516,0
1.6353,-3.994812E-05,24.5295,0,1.6353,-0.0001332723,24.5295,0
1.6362,2.853437E-05,24.543,0,1.6362,0.0001728847,24.543,0
1.6371,7.217517E-05,24.5565,0,1.6371,0.0003957885,24.5565,0
1.638,0.0001467002,24.57,0,1.638,0.0005387961,24.57,0
1.6389,0.0001983978,24.5835,0,1.6389,0.0003638972,24.5835,0
1.6398,5.337606E-05,24.597,0,1.6398,0.0002289464,24.597,0
1.6407,-2.383459E-05,24.6105,0,1.6407,0.0001624781,24.6105,0
1.6416,9.030289E-05,24.624,0,1.6416,5.236896E-05,24.624,0
1.6425,0.0003085069,24.6375,0,1.6425,6.378271E-05,24.6375,0
1.6434,0.0002077974,24.651,0,1.6434,7.318227E-05,24.651,0
1.6443,0.0001114519,24.6645,0,1.6443,-1.947051E-05,24.6645,0
1.6452,3.591974E-05,24.678,0,1.6452,-3.927672E-05,24.678,0
1.6461,-0.0002464027,24.6915,0,1.6461,-9.030289E-05,24.6915,0
1.647,-0.0004531929,24.705,0,1.647,-7.620356E-05,24.705,0
1.6479,-0.0002944076,24.7185,0,1.6479,-9.567407E-05,24.7185,0
1.6488,-3.356985E-07,24.732,0,1.6488,-0.0001973907,24.732,0
1.6497,0.0002000763,24.7455,0,1.6497,-0.0002840009,24.7455,0
1.6506,0.000288365,24.759,0,1.6506,-0.0003645686,24.759,0
1.6515,0.0001527428,24.7725,0,1.6515,-0.0005186542,24.7725,0
1.6524,1.678492E-05,24.786,0,1.6524,-0.0003981384,24.786,0
1.6533,-0.0003487907,24.7995,0,1.6533,-0.000154757,24.7995,0
1.6542,-0.000470985,24.813,0,1.6542,-2.18204E-05,24.813,0
1.6551,-8.392462E-06,24.8265,0,1.6551,0.0001520714,24.8265,0
1.656,-8.89601E-05,24.84,0,1.656,0.0004078737,24.84,0
1.6569,-0.0002175326,24.8535,0,1.6569,0.0003071641,24.8535,0
1.6578,-0.0001560998,24.867,0,1.6578,0.0001762417,24.867,0
1.6587,-8.493171E-05,24.8805,0,1.6587,2.383459E-05,24.8805,0
1.6596,-0.0002118257,24.894,0,1.6596,3.356985E-07,24.894,0
1.6605,-3.021286E-05,24.9075,0,1.6605,-6.143282E-05,24.9075,0
1.6614,0.0001366293,24.921,0,1.6614,4.867628E-05,24.921,0
1.6623,8.090334E-05,24.9345,0,1.6623,0.0001990692,24.9345,0
1.6632,-4.46479E-05,24.948,0,1.6632,0.0001010452,24.948,0
1.6641,-9.298848E-05,24.9615,0,1.6641,-4.632639E-05,24.9615,0
1.665,-0.0001393149,24.975,0,1.665,-0.0002225681,24.975,0
1.6659,-0.0001000381,24.9885,0,1.6659,-0.0004112306,24.9885,0
1.6668,-5.035477E-06,25.002,0,1.6668,-0.0003645686,25.002,0
1.6677,8.560311E-05,25.0155,0,1.6677,-0.0002803082,25.0155,0
1.6686,8.023193E-05,25.029,0,1.6686,9.399558E-06,25.029,0
1.6695,4.061952E-05,25.0425,0,1.6695,0.0003581903,25.0425,0
1.6704,7.351797E-05,25.056,0,1.6704,0.000428687,25.056,0
1.6713,2.28275E-05,25.0695,0,1.6713,0.0003528191,25.0695,0
1.6722,-5.874724E-05,25.083,0,1.6722,0.0001097734,25.083,0
1.6731,-1.644922E-05,25.0965,0,1.6731,4.699779E-06,25.0965,0
1.674,9.500267E-05,25.11,0,1.674,-1.712062E-05,25.11,0
1.6749,0.000161471,25.1235,0,1.6749,-3.457694E-05,25.1235,0
1.6758,0.0001473716,25.137,0,1.6758,-5.203327E-05,25.137,0
1.6767,0.0004145876,25.1505,0,1.6767,-1.376364E-05,25.1505,0
1.6776,0.0006207065,25.164,0,1.6776,-6.411841E-05,25.164,0
1.6785,0.0005683375,25.1775,0,1.6785,-0.0002101472,25.1775,0
1.6794,0.0003692683,25.191,0,1.6794,-0.0002218967,25.191,0
1.6803,-8.82887E-05,25.2045,0,1.6803,-0.0001379721,25.2045,0
1.6812,-0.0006787824,25.218,0,1.6812,-1.342794E-06,25.218,0
1.6821,-0.001111498,25.2315,0,1.6821,1.342794E-05,25.2315,0
1.683,-0.0005505455,25.245,0,1.683,6.54612E-05,25.245,0
1.6839,0.0001044022,25.2585,0,1.6839,1.040665E-05,25.2585,0
1.6848,0.0001420005,25.272,0,1.6848,-0.0001527428,25.272,0
1.6857,0.0001164874,25.2855,0,1.6857,-6.814679E-05,25.2855,0
1.6866,5.404745E-05,25.299,0,1.6866,-7.586786E-05,25.299,0
1.6875,6.411841E-05,25.3125,0,1.6875,-0.0003608759,25.3125,0
1.6884,-4.095522E-05,25.326,0,1.6884,-0.000477699,25.326,0
1.6893,-0.0001171588,25.3395,0,1.6893,-0.0004706493,25.3395,0
1.6902,2.719158E-05,25.353,0,1.6902,-0.0002655375,25.353,0
1.6911,0.0001366293,25.3665,0,1.6911,8.69459E-05,25.3665,0
1.692,-4.46479E-05,25.38,0,1.692,0.0004454719,25.38,0
1.6929,-0.0003058213,25.3935,0,1.6929,0.000646891,25.3935,0
1.6938,-0.0001752346,25.407,0,1.6938,0.0006509193,25.407,0
1.6947,-6.881819E-05,25.4205,0,1.6947,0.0003501335,25.4205,0
1.6956,-3.860533E-05,25.434,0,1.6956,0.0001064164,25.434,0
1.6965,5.337606E-05,25.4475,0,1.6965,9.634547E-05,25.4475,0
1.6974,5.337606E-05,25.461,0,1.6974,7.116808E-05,25.461,0
1.6983,5.471885E-05,25.4745,0,1.6983,-7.620356E-05,25.4745,0
1.6992,4.632639E-05,25.488,0,1.6992,-0.0002118257,25.488,0
1.7001,4.36408E-05,25.5015,0,1.7001,-0.0002262608,25.5015,0
1.701,0.000158114,25.515,0,1.701,-0.0002725872,25.515,0
1.7019,0.0003890745,25.5285,0,1.7019,-0.000562295,25.5285,0
1.7028,0.000337377,25.542,0,1.7028,-0.0007086595,25.542,0
1.7037,0.0001923552,25.5555,0,1.7037,-0.0003746395,25.5555,0
1.7046,1.712062E-05,25.569,0,1.7046,-0.0002366674,25.569,0
1.7055,-0.0003256275,25.5825,0,1.7055,-4.901198E-05,25.5825,0
1.7064,-0.0004337225,25.596,0,1.7064,0.0006314489,25.596,0
1.7073,-0.0001346151,25.6095,0,1.7073,0.001060136,25.6095,0
1.7082,-6.176852E-05,25.623,0,1.7082,0.0005710231,25.623,0
1.7091,-3.356985E-07,25.6365,0,1.7091,0.0002306248,25.6365,0
1.71,2.047761E-05,25.65,0,1.71,0.0001634852,25.65,0
1.7109,3.524834E-05,25.6635,0,1.7109,8.056764E-05,25.6635,0
1.7118,3.927672E-05,25.677,0,1.7118,-2.349889E-05,25.677,0
1.7127,-6.713969E-07,25.6905,0,1.7127,-0.0001587854,25.6905,0
1.7136,1.510643E-05,25.704,0,1.7136,-0.0001779202,25.704,0
1.7145,0.0001198444,25.7175,0,1.7145,-0.0001785916,25.7175,0
1.7154,0.00033402,25.731,0,1.7154,-0.0001319295,25.731,0
1.7163,0.0002856794,25.7445,0,1.7163,-0.0001604639,25.7445,0
1.7172,5.606165E-05,25.758,0,1.7172,-0.0001490501,25.758,0
1.7181,-1.544213E-05,25.7715,0,1.7181,-0.0001362936,25.7715,0
1.719,-0.0001386435,25.785,0,1.719,-9.365987E-05,25.785,0
1.7199,-0.0002349889,25.7985,0,1.7199,-0.0001185016,25.7985,0
1.7208,-0.0001218585,25.812,0,1.7208,-0.0001070878,25.812,0
1.7217,-1.174945E-05,25.8255,0,1.7217,-9.164568E-05,25.8255,0
1.7226,-4.934768E-05,25.839,0,1.7226,-0.0001577783,25.839,0
1.7235,6.143282E-05,25.8525,0,1.7235,-8.92958E-05,25.8525,0
1.7244,0.0001534142,25.866,0,1.7244,-3.558404E-05,25.866,0
1.7253,2.584878E-05,25.8795,0,1.7253,-1.678492E-05,25.8795,0
1.7262,-0.0001735561,25.893,0,1.7262,-0.0001020523,25.893,0
1.7271,-0.0001151446,25.9065,0,1.7271,-2.349889E-05,25.9065,0
1.728,-1.577783E-05,25.92,0,1.728,2.1149E-05,25.92,0
1.7289,-2.18204E-05,25.9335,0,1.7289,7.888914E-05,25.9335,0
1.7298,0.0001681849,25.947,0,1.7298,-1.409934E-05,25.947,0
1.7307,0.0001715419,25.9605,0,1.7307,3.021286E-06,25.9605,0
1.7316,8.728161E-06,25.974,0,1.7316,4.53193E-05,25.974,0
1.7325,-0.0001829557,25.9875,0,1.7325,-5.941863E-05,25.9875,0
1.7334,-0.0004095522,26.001,0,1.7334,-1.275654E-05,26.001,0
1.7343,-0.0002648661,26.0145,0,1.7343,0.0001121233,26.0145,0
1.7352,-1.443504E-05,26.028,0,1.7352,1.678492E-06,26.028,0
1.7361,-8.69459E-05,26.0415,0,1.7361,-6.54612E-05,26.0415,0
1.737,-1.913481E-05,26.055,0,1.737,6.378271E-06,26.055,0
1.7379,0.0004407721,26.0685,0,1.7379,-0.0002346532,26.0685,0
1.7388,0.0006838178,26.082,0,1.7388,-0.0006475624,26.082,0
1.7397,0.0005690089,26.0955,0,1.7397,-0.0006589761,26.0955,0
1.7406,0.0005072404,26.109,0,1.7406,-0.0004511788,26.109,0
1.7415,-0.0001084306,26.1225,0,1.7415,-0.0002259251,26.1225,0
1.7424,-0.000995346,26.136,0,1.7424,0.0002521096,26.136,0
1.7433,-0.001327352,26.1495,0,1.7433,0.000519997,26.1495,0
1.7442,-0.0008009766,26.163,0,1.7442,0.0003880674,26.163,0
1.7451,-0.0002487526,26.1765,0,1.7451,0.0004098878,26.1765,0
1.746,-0.0001319295,26.19,0,1.746,0.0004434577,26.19,0
1.7469,5.438316E-05,26.2035,0,1.7469,0.0003709468,26.2035,0
1.7478,6.78111E-05,26.217,0,1.7478,0.0004333867,26.217,0
1.7487,5.438316E-05,26.2305,0,1.7487,0.000231632,26.2305,0
1.7496,8.560311E-05,26.244,0,1.7496,2.1149E-05,26.244,0
1.7505,7.351797E-05,26.2575,0,1.7505,2.014191E-05,26.2575,0
1.7514,1.913481E-05,26.271,0,1.7514,-3.021286E-06,26.271,0
1.7523,6.076142E-05,26.2845,0,1.7523,-9.500267E-05,26.2845,0
1.7532,0.0001715419,26.298,0,1.7532,-0.000109102,26.298,0
1.7541,0.0003971313,26.3115,0,1.7541,-1.443504E-05,26.3115,0
1.755,0.0005300679,26.325,0,1.755,-6.881819E-05,26.325,0
1.7559,0.0005287251,26.3385,0,1.7559,-0.0002158541,26.3385,0
1.7568,0.0003528191,26.352,0,1.7568,-0.000207126,26.352,0
1.7577,0.0001201801,26.3655,0,1.7577,-0.0001195087,26.3655,0
1.7586,-0.0002034333,26.379,0,1.7586,-0.0001054093,26.379,0
1.7595,-0.0004458076,26.3925,0,1.7595,-0.0001487144,26.3925,0
1.7604,-0.0004166018,26.406,0,1.7604,-9.500267E-05,26.406,0
1.7613,-0.0002887007,26.4195,0,1.7613,-3.323415E-05,26.4195,0
1.7622,-3.390555E-05,26.433,0,1.7622,5.404745E-05,26.433,0
1.7631,7.721065E-06,26.4465,0,1.7631,9.265278E-05,26.4465,0
1.764,3.121996E-05,26.46,0,1.764,4.36408E-06,26.46,0
1.7649,-5.035477E-05,26.4735,0,1.7649,-0.0001420005,26.4735,0
1.7658,8.459602E-05,26.487,0,1.7658,-0.0001453574,26.487,0
1.7667,0.0003118639,26.5005,0,1.7667,-4.53193E-05,26.5005,0
1.7676,0.0002185397,26.514,0,1.7676,-7.653925E-05,26.514,0
1.7685,0.0001285725,26.5275,0,1.7685,-0.0001362936,26.5275,0
1.7694,-3.256275E-05,26.541,0,1.7694,-0.0001453574,26.541,0
1.7703,-0.0002279393,26.5545,0,1.7703,-0.00021149,26.5545,0
1.7712,-0.0002373388,26.568,0,1.7712,-5.941863E-05,26.568,0
1.7721,-8.258183E-05,26.5815,0,1.7721,0.0001601282,26.5815,0
1.773,-1.678492E-05,26.595,0,1.773,0.0001866484,26.595,0
1.7739,2.383459E-05,26.6085,0,1.7739,0.0001232013,26.6085,0
1.7748,8.258183E-05,26.622,0,1.7748,0.000190341,26.622,0
1.7757,0.000109102,26.6355,0,1.7757,8.358892E-05,26.6355,0
1.7766,0.0001033951,26.649,0,1.7766,-0.0002430457,26.649,0
1.7775,3.390555E-05,26.6625,0,1.7775,-0.0002913863,26.6625,0
1.7784,2.987716E-05,26.676,0,1.7784,-0.0002793011,26.676,0
1.7793,3.121996E-05,26.6895,0,1.7793,-0.0003001145,26.6895,0
1.7802,1.208515E-05,26.703,0,1.7802,-0.0001366293,26.703,0
1.7811,4.263371E-05,26.7165,0,1.7811,0.000190341,26.7165,0
1.782,5.471885E-05,26.73,0,1.782,0.0003185779,26.73,0
1.7829,1.779202E-05,26.7435,0,1.7829,0.000203769,26.7435,0
1.7838,-5.874724E-05,26.757,0,1.7838,8.392462E-06,26.757,0
1.7847,-5.673304E-05,26.7705,0,1.7847,6.311131E-05,26.7705,0
1.7856,-0.0001701991,26.784,0,1.7856,0.0001433432,26.784,0
1.7865,-0.0001198444,26.7975,0,1.7865,0.0001117876,26.7975,0
1.7874,-5.941863E-05,26.811,0,1.7874,6.51255E-05,26.811,0
1.7883,4.129091E-05,26.8245,0,1.7883,-3.356985E-07,26.8245,0
1.7892,0.0003689326,26.838,0,1.7892,-0.0001842985,26.838,0
1.7901,0.0005998932,26.8515,0,1.7901,-0.0003323415,26.8515,0
1.791,0.0005280537,26.865,0,1.791,-0.0001430075,26.865,0
1.7919,0.0002024262,26.8785,0,1.7919,-1.409934E-05,26.8785,0
1.7928,-6.243992E-05,26.892,0,1.7928,0.0001138018,26.892,0
1.7937,-0.0004508431,26.9055,0,1.7937,0.0003810178,26.9055,0
1.7946,-0.0009087358,26.919,0,1.7946,0.0002400244,26.919,0
1.7955,-0.0007442436,26.9325,0,1.7955,-3.558404E-05,26.9325,0
1.7964,-0.0002410315,26.946,0,1.7964,-7.318227E-05,26.946,0
1.7973,-3.726253E-05,26.9595,0,1.7973,-0.0001195087,26.9595,0
1.7982,7.620356E-05,26.973,0,1.7982,4.028382E-06,26.973,0
1.7991,0.0001957122,26.9865,0,1.7991,0.0001134661,26.9865,0
1.8,0.0001769131,27,0,1.8,-3.961242E-05,27,0
1.8009,0.0001148089,27.0135,0,1.8009,-0.0001285725,27.0135,0
1.8018,-9.600977E-05,27.027,0,1.8018,-0.0001205158,27.027,0
1.8027,-0.0002098116,27.0405,0,1.8027,-0.0002312963,27.0405,0
1.8036,-0.0002356603,27.054,0,1.8036,-0.0002366674,27.054,0
1.8045,-0.0002239109,27.0675,0,1.8045,-5.404745E-05,27.0675,0
1.8054,-1.779202E-05,27.081,0,1.8054,7.687495E-05,27.081,0
1.8063,2.1149E-05,27.0945,0,1.8063,9.735256E-05,27.0945,0
1.8072,0.0001436789,27.108,0,1.8072,0.0002088045,27.108,0
1.8081,0.0002286107,27.1215,0,1.8081,0.0001151446,27.1215,0
1.809,0.0002077974,27.135,0,1.809,-0.0001436789,27.135,0
1.8099,0.0001252155,27.1485,0,1.8099,-0.0001789273,27.1485,0
1.8108,7.016098E-05,27.162,0,1.8108,-0.0002386816,27.162,0
1.8117,-1.107805E-05,27.1755,0,1.8117,-0.0001205158,27.1755,0
1.8126,-8.795301E-05,27.189,0,1.8126,4.263371E-05,27.189,0
1.8135,-5.606165E-05,27.2025,0,1.8135,8.560311E-05,27.2025,0
1.8144,8.493171E-05,27.216,0,1.8144,0.0001295796,27.216,0
1.8153,0.0001144732,27.2295,0,1.8153,0.0001930266,27.2295,0
1.8162,5.471885E-05,27.243,0,1.8162,-1.376364E-05,27.243,0
1.8171,-0.0001389792,27.2565,0,1.8171,-0.0001127947,27.2565,0
1.818,-9.231708E-05,27.27,0,1.818,-1.443504E-05,27.27,0
1.8189,6.6804E-05,27.2835,0,1.8189,-4.36408E-06,27.2835,0
1.8198,-9.533837E-05,27.297,0,1.8198,-0.0001094377,27.297,0
1.8207,4.36408E-05,27.3105,0,1.8207,-0.0001591211,27.3105,0
1.8216,0.0001064164,27.324,0,1.8216,-1.007095E-06,27.324,0
1.8225,4.867628E-05,27.3375,0,1.8225,5.706874E-06,27.3375,0
1.8234,2.584878E-05,27.351,0,1.8234,-9.198138E-05,27.351,0
