X[s],"Trigno IM sensor 3: EMG 3 (IM)",X[s],"Trigno IM sensor 3: Mag 3.Z (IM)",X[s],"Trigno IM sensor 4: EMG 4 (IM)",X[s],"Trigno IM sensor 4: Mag 4.Z (IM)"
0.000000,-0.000102388,0.000000,122,0.000000,-6.61326E-05,0.000000,-1
0.0009,4.599069E-05,0.0135,125,0.0009,-2.047761E-05,0.0135,-3
0.0018,0.0001735561,0.027,123,0.0018,3.424125E-05,0.027,-1
0.0027,0.000144686,0.0405,122,0.0027,0.0001030594,0.0405,0
0.0036,-6.378271E-06,0.054,122,0.0036,7.284657E-05,0.054,-3
0.0045,-4.33051E-05,0.0675,123,0.0045,4.733349E-05,0.0675,-1
0.0054,-7.183947E-05,0.081,122,0.0054,6.64683E-05,0.081,-2
0.0063,-7.016098E-05,0.0945,123,0.0063,2.517739E-05,0.0945,-5
0.0072,7.318227E-05,0.108,123,0.0072,3.356985E-07,0.108,0
0.0081,0.0001060807,0.1215,123,0.0081,-2.18204E-05,0.1215,-4
0.009000001,2.349889E-06,0.135,123,0.009000001,-1.913481E-05,0.135,-2
0.0099,-5.169757E-05,0.1485,122,0.0099,-3.927672E-05,0.1485,-1
0.0108,-0.0001067521,0.162,124,0.0108,-0.0001087663,0.162,0
0.0117,-6.74754E-05,0.1755,122,0.0117,-0.0001483787,0.1755,-2
0.0126,-1.678492E-06,0.189,123,0.0126,-0.0001218585,0.189,-2
0.0135,1.846342E-05,0.2025,123,0.0135,-9.164568E-05,0.2025,-1
0.0144,1.779202E-05,0.216,124,0.0144,-8.023193E-05,0.216,-1
0.0153,7.049668E-06,0.2295,124,0.0153,-1.443504E-05,0.2295,-4
0.0162,9.063859E-06,0.243,123,0.0162,0.0001050736,0.243,-2
0.0171,8.82887E-05,0.2565,123,0.0171,0.0001748989,0.2565,-1
0.018,0.0001779202,0.27,123,0.018,7.217517E-05,0.27,-1
0.0189,0.0001299153,0.2835,121,0.0189,5.035477E-06,0.2835,-4
0.0198,5.606165E-05,0.297,123,0.0198,5.035477E-06,0.297,-3
0.0207,1.779202E-05,0.3105,123,0.0207,4.028382E-06,0.3105,-2
0.0216,-9.970245E-05,0.324,123,0.0216,-4.766919E-05,0.324,-3
0.0225,-0.0001507286,0.3375,124,0.0225,-6.74754E-05,0.3375,-5
0.0234,-1.443504E-05,0.351,124,0.0234,-9.936675E-05,0.351,-2
0.0243,1.510643E-05,0.3645,121,0.0243,-0.0001232013,0.3645,-4
0.0252,-5.404745E-05,0.378,123,0.0252,-0.0001010452,0.378,-2
0.0261,-7.217517E-05,0.3915,124,0.0261,-7.150377E-05,0.3915,-2
0.027,-2.853437E-05,0.405,122,0.027,-5.304036E-05,0.405,-1
0.0279,-4.934768E-05,0.4185,122,0.0279,2.1149E-05,0.4185,-1
0.0288,-9.835965E-05,0.432,123,0.0288,6.411841E-05,0.432,-1
0.0297,-2.584878E-05,0.4455,123,0.0297,6.54612E-05,0.4455,-1
0.0306,4.599069E-05,0.459,124,0.0306,2.24918E-05,0.459,-2
0.0315,8.526741E-05,0.4725,123,0.0315,1.980621E-05,0.4725,-2
0.0324,7.351797E-05,0.486,123,0.0324,-8.728161E-06,0.486,0
0.0333,3.121996E-05,0.4995,123,0.0333,8.392462E-06,0.4995,-2
0.0342,1.913481E-05,0.513,123,0.0342,2.349889E-06,0.513,-2
0.0351,1.376364E-05,0.5265,125,0.0351,-4.36408E-05,0.5265,-4
0.036,-1.376364E-05,0.54,124,0.036,-2.047761E-05,0.54,-4
0.0369,5.035477E-06,0.5535,122,0.0369,-1.074235E-05,0.5535,-3
0.0378,6.042573E-06,0.567,123,0.0378,-6.61326E-05,0.567,-2
0.0387,-4.028382E-06,0.5805,123,0.0387,-5.136187E-05,0.5805,-4
0.0396,-4.699779E-06,0.594,123,0.0396,-1.007095E-05,0.594,0
0.0405,0,0.6075,123,0.0405,-7.653925E-05,0.6075,-6
0.0414,3.256275E-05,0.621,123,0.0414,-0.0001883268,0.621,-1
0.0423,3.860533E-05,0.6345,122,0.0423,-0.0002326391,0.6345,-3
0.0432,-3.692683E-06,0.648,124,0.0432,-0.0001718776,0.648,-3
0.0441,-2.987716E-05,0.6615,123,0.0441,-7.318227E-05,0.6615,-4
0.045,-1.107805E-05,0.675,123,0.045,3.256275E-05,0.675,-5
0.0459,4.263371E-05,0.6885,125,0.0459,0.0001507286,0.6885,-4
0.0468,8.761731E-05,0.702,124,0.0468,0.0002423743,0.702,-3
0.0477,7.956054E-05,0.7155,123,0.0477,0.0001003738,0.7155,-3
0.0486,7.284657E-05,0.729,124,0.0486,1.779202E-05,0.729,-5
0.0495,1.846342E-05,0.7425,122,0.0495,4.36408E-06,0.7425,-3
0.0504,-9.634547E-05,0.756,123,0.0504,3.356985E-06,0.756,0
0.0513,-0.0002077974,0.7695,123,0.0513,-6.143282E-05,0.7695,-2
0.0522,-0.000246067,0.783,124,0.0522,-3.289845E-05,0.783,-3
0.0531,-0.0001356222,0.7965,121,0.0531,9.399558E-06,0.7965,-4
0.054,4.263371E-05,0.81,123,0.054,-5.270466E-05,0.81,-3
0.0549,0.0001393149,0.8235,122,0.0549,-3.961242E-05,0.8235,-4
0.0558,0.0001688563,0.837,121,0.0558,-3.256275E-05,0.837,-8
0.0567,0.000179263,0.8505,122,0.0567,-6.210422E-05,0.8505,-7
0.0576,5.001907E-05,0.864,120,0.0576,-7.888914E-05,0.864,-4
0.0585,-9.433127E-05,0.8775,121,0.0585,-6.51255E-05,0.8775,-4
0.0594,-0.0002265965,0.891,119,0.0594,3.121996E-05,0.891,-3
0.0603,-0.000330663,0.9045,120,0.0603,0.0001151446,0.9045,0
0.0612,-0.00024271,0.918,119,0.0612,2.819867E-05,0.918,-2
0.0621,-3.457694E-05,0.9315,119,0.0621,-4.29694E-05,0.9315,-5
0.063,-4.36408E-05,0.945,120,0.063,3.121996E-05,0.945,-4
0.0639,-3.323415E-05,0.9585,119,0.0639,7.620356E-05,0.9585,-5
0.0648,6.881819E-05,0.972,119,0.0648,-1.678492E-06,0.972,-3
0.0657,0.0001201801,0.9855,119,0.0657,-1.275654E-05,0.9855,-5
0.0666,5.337606E-05,0.999,119,0.0666,3.356985E-07,0.999,-6
0.0675,3.323415E-05,1.0125,119,0.0675,-2.517739E-05,1.0125,-2
0.0684,2.551309E-05,1.026,120,0.0684,-1.107805E-05,1.026,-5
0.0693,8.560311E-05,1.0395,119,0.0693,-5.673304E-05,1.0395,-4
0.0702,-2.584878E-05,1.053,120,0.0702,-8.358892E-05,1.053,-1
0.0711,-3.356985E-07,1.0665,120,0.0711,-6.378271E-05,1.0665,-3
0.072,1.812772E-05,1.08,119,0.072,-6.344701E-05,1.08,-4
0.0729,-2.014191E-05,1.0935,120,0.0729,9.735256E-06,1.0935,-4
0.07380001,-0.0001977264,1.107,119,0.07380001,5.069047E-05,1.107,-5
0.07470001,-0.0003024643,1.1205,119,0.07470001,3.726253E-05,1.1205,-3
0.0756,-0.0001567712,1.134,119,0.0756,5.572595E-05,1.134,-4
0.0765,-4.53193E-05,1.1475,119,0.0765,5.270466E-05,1.1475,-4
0.0774,2.383459E-05,1.161,119,0.0774,-1.644922E-05,1.161,-4
0.0783,7.217517E-05,1.1745,120,0.0783,-6.881819E-05,1.1745,-4
0.0792,8.023193E-05,1.188,119,0.0792,-7.620356E-05,1.188,-4
0.0801,0.000235996,1.2015,119,0.0801,-1.812772E-05,1.2015,-3
0.081,0.0001819486,1.215,119,0.081,-4.162661E-05,1.215,-3
0.0819,2.584878E-05,1.2285,118,0.0819,-9.701686E-05,1.2285,-6
0.0828,4.36408E-05,1.242,121,0.0828,-8.493171E-05,1.242,-3
0.0837,0.0001426719,1.2555,119,0.0837,-3.793393E-05,1.2555,-3
0.0846,0.0001493858,1.269,119,0.0846,-3.927672E-05,1.269,-4
0.0855,-2.987716E-05,1.2825,119,0.0855,-9.500267E-05,1.2825,-3
0.0864,0.0001080949,1.296,118,0.0864,-7.083238E-05,1.296,0
0.0873,6.143282E-05,1.3095,118,0.0873,-3.524834E-05,1.3095,-3
0.0882,-0.0002145113,1.323,120,0.0882,-1.309224E-05,1.323,-2
0.0891,-0.0001104448,1.3365,120,0.0891,-2.887007E-05,1.3365,-4
0.09,0.000112459,1.35,119,0.09,9.735256E-06,1.35,-3
0.0909,-8.761731E-05,1.3635,119,0.0909,9.063859E-06,1.3635,-1
0.0918,-0.0003038071,1.377,120,0.0918,-4.46479E-05,1.377,-3
0.0927,-0.0003135424,1.3905,120,0.0927,-4.49836E-05,1.3905,-5
0.0936,-0.0002789654,1.404,121,0.0936,-3.726253E-05,1.404,0
0.09450001,2.920577E-05,1.4175,119,0.09450001,1.577783E-05,1.4175,-3
0.09540001,0.0001594568,1.431,120,0.09540001,5.001907E-05,1.431,-4
0.09630001,0.0001326009,1.4445,119,0.09630001,3.424125E-05,1.4445,-4
0.0972,0.0001668421,1.458,120,0.0972,5.001907E-05,1.458,-2
0.0981,0.0002259251,1.4715,121,0.0981,1.510643E-05,1.4715,-5
0.099,8.426032E-05,1.485,120,0.099,-3.591974E-05,1.485,-3
0.0999,-4.43122E-05,1.4985,120,0.0999,-5.471885E-05,1.4985,-3
0.1008,-5.740444E-05,1.512,120,0.1008,-2.18204E-05,1.512,-3
0.1017,-0.0002265965,1.5255,120,0.1017,-2.349889E-05,1.5255,-2
0.1026,-0.0001889983,1.539,119,0.1026,-3.994812E-05,1.539,-2
0.1035,-7.452507E-05,1.5525,120,0.1035,-1.007095E-06,1.5525,-1
0.1044,-1.678492E-05,1.566,120,0.1044,1.309224E-05,1.566,-4
0.1053,3.390555E-05,1.5795,120,0.1053,-3.659113E-05,1.5795,-3
0.1062,6.378271E-06,1.593,121,0.1062,-4.766919E-05,1.593,-2
0.1071,2.21561E-05,1.6065,120,0.1071,-2.349889E-06,1.6065,-2
0.108,4.800488E-05,1.62,120,0.108,-2.316319E-05,1.62,-3
0.1089,3.793393E-05,1.6335,121,0.1089,-1.678492E-05,1.6335,-2
0.1098,6.411841E-05,1.647,120,0.1098,-4.229801E-05,1.647,-4
0.1107,7.922484E-05,1.6605,119,0.1107,-6.109713E-05,1.6605,-3
0.1116,1.712062E-05,1.674,121,0.1116,-7.888914E-05,1.674,-1
0.1125,4.129091E-05,1.6875,121,0.1125,-0.000136965,1.6875,-2
0.1134,3.726253E-05,1.701,119,0.1134,-0.0001762417,1.701,-3
0.1143,-8.392462E-06,1.7145,120,0.1143,-0.0001242084,1.7145,-3
0.1152,4.36408E-06,1.728,121,0.1152,-0.0001138018,1.728,-2
0.1161,0.0001386435,1.7415,120,0.1161,-0.0001030594,1.7415,0
0.117,0.0002531167,1.755,120,0.117,4.53193E-05,1.755,-5
0.1179,0.0001097734,1.7685,120,0.1179,0.0001305867,1.7685,-2
0.1188,-1.040665E-05,1.782,121,0.1188,9.970245E-05,1.782,-1
0.1197,-0.000109102,1.7955,119,0.1197,0.0001467002,1.7955,0
0.1206,-0.0002000763,1.809,120,0.1206,0.0001983978,1.809,-1
0.1215,-0.0001785916,1.8225,121,0.1215,0.0001054093,1.8225,0
0.1224,-4.968337E-05,1.836,119,0.1224,6.881819E-05,1.836,-1
0.1233,-1.409934E-05,1.8495,120,0.1233,5.438316E-05,1.8495,-2
0.1242,-1.544213E-05,1.863,120,0.1242,2.517739E-05,1.863,0
0.1251,1.040665E-05,1.8765,119,0.1251,1.342794E-06,1.8765,-2
0.126,1.510643E-05,1.89,119,0.126,-3.390555E-05,1.89,0
0.1269,3.524834E-05,1.9035,120,0.1269,-4.263371E-05,1.9035,-2
0.1278,4.766919E-05,1.917,120,0.1278,5.035477E-06,1.917,0
0.1287,1.980621E-05,1.9305,119,0.1287,-3.558404E-05,1.9305,0
0.1296,3.356985E-07,1.944,120,0.1296,-0.0001265583,1.944,1
0.1305,-3.793393E-05,1.9575,120,0.1305,-7.553216E-05,1.9575,-4
0.1314,-6.277562E-05,1.971,120,0.1314,-7.217517E-05,1.971,-1
0.1323,-9.567407E-05,1.9845,119,0.1323,-0.0001084306,1.9845,-5
0.1332,-5.404745E-05,1.998,119,0.1332,-0.0001010452,1.998,-1
0.1341,2.047761E-05,2.0115,119,0.1341,-3.155566E-05,2.0115,-1
0.135,6.143282E-05,2.025,119,0.135,1.242084E-05,2.025,-1
0.1359,3.860533E-05,2.0385,119,0.1359,-9.399558E-06,2.0385,-3
0.1368,3.692683E-05,2.052,119,0.1368,-9.097429E-05,2.052,-1
0.1377,7.016098E-05,2.0655,120,0.1377,-5.639734E-05,2.0655,-5
0.1386,4.263371E-05,2.079,119,0.1386,4.061952E-05,2.079,-1
0.1395,-3.088426E-05,2.0925,120,0.1395,6.344701E-05,2.0925,0
0.1404,-2.786297E-05,2.106,120,0.1404,7.318227E-05,2.106,-2
0.1413,2.853437E-05,2.1195,119,0.1413,1.812772E-05,2.1195,0
0.1422,8.795301E-05,2.133,119,0.1422,-4.196231E-05,2.133,1
0.1431,2.954147E-05,2.1465,119,0.1431,-8.96315E-05,2.1465,0
0.144,-0.000148043,2.16,119,0.144,-3.390555E-05,2.16,-4
0.1449,-0.0001514,2.1735,119,0.1449,9.399558E-06,2.1735,-1
0.1458,-5.941863E-05,2.187,119,0.1458,-3.961242E-05,2.187,0
0.1467,-6.74754E-05,2.2005,120,0.1467,-1.712062E-05,2.2005,-2
0.1476,-0.000133608,2.214,119,0.1476,1.611353E-05,2.214,0
0.1485,-0.0001272297,2.2275,119,0.1485,-1.007095E-06,2.2275,-1
0.1494,-7.418937E-05,2.241,119,0.1494,-4.028382E-06,2.241,-3
0.1503,-5.203327E-05,2.2545,119,0.1503,-3.994812E-05,2.2545,-6
0.1512,3.726253E-05,2.268,118,0.1512,-3.256275E-05,2.268,-2
0.1521,6.54612E-05,2.2815,120,0.1521,-1.242084E-05,2.2815,-1
0.153,4.46479E-05,2.295,117,0.153,-2.316319E-05,2.295,-2
0.1539,2.349889E-06,2.3085,118,0.1539,-2.786297E-05,2.3085,-1
0.1548,-1.107805E-05,2.322,119,0.1548,3.424125E-05,2.322,-4
0.1557,4.800488E-05,2.3355,119,0.1557,2.987716E-05,2.3355,-2
0.1566,9.735256E-06,2.349,120,0.1566,-2.853437E-05,2.349,-3
0.1575,-5.908293E-05,2.3625,118,0.1575,-2.652018E-05,2.3625,0
0.1584,0.0001346151,2.376,120,0.1584,-3.121996E-05,2.376,-3
0.1593,0.0001500572,2.3895,119,0.1593,-4.867628E-05,2.3895,-2
0.1602,0.0001205158,2.403,120,0.1602,-5.706874E-05,2.403,-4
0.1611,0.000154757,2.4165,121,0.1611,-3.155566E-05,2.4165,-1
0.162,-0.0001077592,2.43,120,0.162,-3.390555E-05,2.43,-2
0.1629,-0.0003403983,2.4435,119,0.1629,-3.759823E-05,2.4435,0
0.1638,-0.0003145495,2.457,120,0.1638,-5.874724E-05,2.457,-4
0.1647,-0.0001131304,2.4705,120,0.1647,-2.853437E-05,2.4705,-2
0.1656,5.337606E-05,2.484,120,0.1656,-3.524834E-05,2.484,-3
0.1665,6.042573E-05,2.4975,120,0.1665,-3.558404E-05,2.4975,-1
0.1674,9.970245E-05,2.511,120,0.1674,-3.457694E-05,2.511,-4
0.1683,-1.107805E-05,2.5245,119,0.1683,-1.309224E-05,2.5245,-2
0.1692,-5.706874E-06,2.538,121,0.1692,-2.450599E-05,2.538,-2
0.1701,1.376364E-05,2.5515,120,0.1701,-6.210422E-05,2.5515,0
0.171,0.0001188373,2.565,120,0.171,3.356985E-07,2.565,0
0.1719,-8.392462E-06,2.5785,120,0.1719,-9.735256E-06,2.5785,-3
0.1728,-0.0002000763,2.592,121,0.1728,-0.000102388,2.592,-2
0.1737,-0.0001050736,2.6055,120,0.1737,-0.0001779202,2.6055,-1
0.1746,-5.035477E-05,2.619,120,0.1746,-0.0001983978,2.619,-2
0.1755,-0.000105745,2.6325,120,0.1755,-0.0001520714,2.6325,1
0.1764,-9.399558E-06,2.646,120,0.1764,-7.351797E-05,2.646,-4
0.1773,9.030289E-05,2.6595,118,0.1773,1.980621E-05,2.6595,-3
0.1782,3.860533E-05,2.673,120,0.1782,0.0001836271,2.673,-1
0.1791,-2.18204E-05,2.6865,119,0.1791,0.000327306,2.6865,-1
0.18,-1.309224E-05,2.7,117,0.18,0.0002541238,2.7,-7
0.1809,-3.323415E-05,2.7135,119,0.1809,9.063859E-05,2.7135,0
0.1818,-2.349889E-06,2.727,119,0.1818,5.404745E-05,2.727,-1
0.1827,5.706874E-06,2.7405,120,0.1827,3.021286E-06,2.7405,-3
0.1836,7.653925E-05,2.754,119,0.1836,-2.652018E-05,2.754,0
0.1845,0.0001567712,2.7675,119,0.1845,1.309224E-05,2.7675,-3
0.1854,0.0002574807,2.781,119,0.1854,6.713969E-06,2.781,-2
0.1863,0.0002521096,2.7945,120,0.1863,-5.874724E-05,2.7945,-1
0.1872,0.0002020905,2.808,120,0.1872,-0.0001003738,2.808,-4
0.1881,6.210422E-05,2.8215,120,0.1881,-0.0001027237,2.8215,-1
0.189,-0.0001292439,2.835,120,0.189,-0.0001292439,2.835,-4
0.1899,-0.0003064927,2.8485,121,0.1899,-0.0001215228,2.8485,-1
0.1908,-0.0002668803,2.862,119,0.1908,-7.150377E-05,2.862,0
0.1917,-0.0001416648,2.8755,119,0.1917,3.793393E-05,2.8755,-4
0.1926,-6.57969E-05,2.889,120,0.1926,0.0001262226,2.889,-1
0.1935,-6.478981E-05,2.9025,120,0.1935,7.150377E-05,2.9025,-1
0.1944,-3.323415E-05,2.916,118,0.1944,-2.21561E-05,2.916,-3
0.1953,2.383459E-05,2.9295,119,0.1953,1.107805E-05,2.9295,-3
0.1962,2.652018E-05,2.943,120,0.1962,-1.174945E-05,2.943,-2
0.1971,1.678492E-05,2.9565,120,0.1971,-8.89601E-05,2.9565,0
0.198,-5.706874E-06,2.97,119,0.198,-6.411841E-05,2.97,-2
0.1989,-5.404745E-05,2.9835,119,0.1989,-7.989624E-05,2.9835,-2
0.1998,2.081331E-05,2.997,119,0.1998,-0.0001487144,2.997,-2
0.2007,0.0001030594,3.0105,118,0.2007,-0.0001309224,3.0105,-2
0.2016,0.0001087663,3.024,119,0.2016,-7.486076E-05,3.024,0
0.2025,7.486076E-05,3.0375,0,0.2025,-6.57969E-05,3.0375,0
0.2034,0.0001299153,3.051,0,0.2034,1.712062E-05,3.051,0
0.2043,6.74754E-05,3.0645,0,0.2043,0.0001007095,3.0645,0
0.2052,-5.874724E-05,3.078,0,0.2052,9.063859E-05,3.078,0
0.2061,-8.090334E-05,3.0915,0,0.2061,2.987716E-05,3.0915,0
0.207,3.021286E-05,3.105,0,0.207,-4.196231E-05,3.105,0
0.2079,7.150377E-05,3.1185,0,0.2079,-5.807584E-05,3.1185,0
0.2088,-0.0001060807,3.132,0,0.2088,4.028382E-06,3.132,0
0.2097,-0.0001275654,3.1455,0,0.2097,5.069047E-05,3.1455,0
0.2106,-8.82887E-05,3.159,0,0.2106,1.779202E-05,3.159,0
0.2115,-0.0001275654,3.1725,0,0.2115,3.189136E-05,3.1725,0
0.2124,-6.009003E-05,3.186,0,0.2124,3.356985E-06,3.186,0
0.2133,-9.433127E-05,3.1995,0,0.2133,-8.191043E-05,3.1995,0
0.2142,-8.157473E-05,3.213,0,0.2142,-7.318227E-05,3.213,0
0.2151,-0.0001174945,3.2265,0,0.2151,-4.800488E-05,3.2265,0
0.216,-3.826963E-05,3.24,0,0.216,-4.36408E-05,3.24,0
0.2169,5.975433E-05,3.2535,0,0.2169,-3.155566E-05,3.2535,0
0.2178,9.433127E-05,3.267,0,0.2178,-6.210422E-05,3.267,0
0.2187,7.385367E-05,3.2805,0,0.2187,-5.807584E-05,3.2805,0
0.2196,6.176852E-05,3.294,0,0.2196,-1.644922E-05,3.294,0
0.2205,4.061952E-05,3.3075,0,0.2205,-2.047761E-05,3.3075,0
0.2214,9.063859E-06,3.321,0,0.2214,-1.779202E-05,3.321,0
0.2223,-4.263371E-05,3.3345,0,0.2223,1.342794E-05,3.3345,0
0.2232,4.968337E-05,3.348,0,0.2232,-1.846342E-05,3.348,0
0.2241,9.466698E-05,3.3615,0,0.2241,-4.934768E-05,3.3615,0
0.225,5.874724E-05,3.375,0,0.225,-5.706874E-06,3.375,0
0.2259,5.035477E-05,3.3885,0,0.2259,1.275654E-05,3.3885,0
0.2268,1.644922E-05,3.402,0,0.2268,-4.699779E-06,3.402,0
0.2277,-3.356985E-05,3.4155,0,0.2277,-4.699779E-06,3.4155,0
0.2286,-6.243992E-05,3.429,0,0.2286,-3.256275E-05,3.429,0
0.2295,-1.947051E-05,3.4425,0,0.2295,-0.0001366293,3.4425,0
0.2304,-4.129091E-05,3.456,0,0.2304,-0.000221561,3.456,0
0.2313,-3.054856E-05,3.4695,0,0.2313,-0.0001863127,3.4695,0
0.2322,5.035477E-06,3.483,0,0.2322,-8.526741E-05,3.483,0
0.2331,7.721065E-06,3.4965,0,0.2331,7.721065E-06,3.4965,0
0.234,-3.054856E-05,3.51,0,0.234,0.0001279011,3.51,0
0.2349,9.063859E-06,3.5235,0,0.2349,0.0002769512,3.5235,0
0.2358,3.289845E-05,3.537,0,0.2358,0.0002252537,3.537,0
0.2367,3.189136E-05,3.5505,0,0.2367,8.493171E-05,3.5505,0
0.2376,6.109713E-05,3.564,0,0.2376,-7.721065E-06,3.564,0
0.2385,-3.356985E-07,3.5775,0,0.2385,-1.812772E-05,3.5775,0
0.2394,0,3.591,0,0.2394,8.728161E-06,3.591,0
0.2403,-3.457694E-05,3.6045,0,0.2403,9.735256E-06,3.6045,0
0.2412,-0.0001094377,3.618,0,0.2412,5.136187E-05,3.618,0
0.2421,-4.733349E-05,3.6315,0,0.2421,8.291753E-05,3.6315,0
0.243,0.0001517357,3.645,0,0.243,1.779202E-05,3.645,0
0.2439,0.0001215228,3.6585,0,0.2439,-2.28275E-05,3.6585,0
0.2448,5.874724E-05,3.672,0,0.2448,-5.807584E-05,3.672,0
0.2457,2.081331E-05,3.6855,0,0.2457,-4.867628E-05,3.6855,0
0.2466,-2.349889E-05,3.699,0,0.2466,-7.553216E-05,3.699,0
0.2475,8.493171E-05,3.7125,0,0.2475,-0.0001362936,3.7125,0
0.2484,0.0001722133,3.726,0,0.2484,-0.0001742275,3.726,0
0.2493,-6.009003E-05,3.7395,0,0.2493,-0.0001785916,3.7395,0
0.2502,-0.0001423362,3.753,0,0.2502,-0.0001305867,3.753,0
0.2511,-7.620356E-05,3.7665,0,0.2511,-4.934768E-05,3.7665,0
0.252,-0.0002437171,3.78,0,0.252,6.243992E-05,3.78,0
0.2529,-0.0002101472,3.7935,0,0.2529,8.526741E-05,3.7935,0
0.2538,6.54612E-05,3.807,0,0.2538,1.443504E-05,3.807,0
0.2547,8.627451E-05,3.8205,0,0.2547,1.510643E-05,3.8205,0
0.2556,-8.493171E-05,3.834,0,0.2556,3.021286E-05,3.834,0
0.2565,-0.0002386816,3.8475,0,0.2565,0,3.8475,0
0.2574,-0.0003978027,3.861,0,0.2574,-7.721065E-06,3.861,0
0.2583,-0.0003165637,3.8745,0,0.2583,-3.524834E-05,3.8745,0
0.2592,1.007095E-06,3.888,0,0.2592,-1.174945E-05,3.888,0
0.2601,0.0001225299,3.9015,0,0.2601,6.713969E-07,3.9015,0
0.261,0.000112459,3.915,0,0.261,-5.471885E-05,3.915,0
0.2619,0.0001000381,3.9285,0,0.2619,-8.89601E-05,3.9285,0
0.2628,9.097429E-05,3.942,0,0.2628,-2.752728E-05,3.942,0
0.2637,0.0001084306,3.9555,0,0.2637,-6.176852E-05,3.9555,0
0.2646,8.89601E-05,3.969,0,0.2646,-8.89601E-05,3.969,0
0.2655,-7.989624E-05,3.9825,0,0.2655,-2.014191E-05,3.9825,0
0.2664,-5.203327E-05,3.996,0,0.2664,5.035477E-06,3.996,0
0.2673,4.162661E-05,4.0095,0,0.2673,-8.191043E-05,4.0095,0
0.2682,0.0001104448,4.023,0,0.2682,-1.879912E-05,4.023,0
0.2691,-8.627451E-05,4.0365,0,0.2691,-1.577783E-05,4.0365,0
0.27,-3.021286E-05,4.05,0,0.27,-6.78111E-05,4.05,0
0.2709,7.150377E-05,4.0635,0,0.2709,-5.001907E-05,4.0635,0
0.2718,3.390555E-05,4.077,0,0.2718,-2.450599E-05,4.077,0
0.2727,5.706874E-06,4.0905,0,0.2727,8.92958E-05,4.0905,0
0.2736,-6.378271E-06,4.104,0,0.2736,5.069047E-05,4.104,0
0.2745,1.309224E-05,4.1175,0,0.2745,-5.337606E-05,4.1175,0
0.2754,2.316319E-05,4.131,0,0.2754,-6.881819E-05,4.131,0
0.2763,5.069047E-05,4.1445,0,0.2763,-2.383459E-05,4.1445,0
0.2772,-1.510643E-05,4.158,0,0.2772,-6.176852E-05,4.158,0
0.2781,-1.208515E-05,4.1715,0,0.2781,-9.903105E-05,4.1715,0
0.279,-2.685588E-06,4.185,0,0.279,-7.418937E-05,4.185,0
0.2799,2.987716E-05,4.1985,0,0.2799,-3.356985E-05,4.1985,0
0.2808,7.351797E-05,4.212,0,0.2808,-2.819867E-05,4.212,0
0.2817,0.0001285725,4.2255,0,0.2817,1.242084E-05,4.2255,0
0.2826,0.0001171588,4.239,0,0.2826,5.203327E-05,4.239,0
0.2835,0.0001705348,4.2525,0,0.2835,7.956054E-05,4.2525,0
0.2844,0.0002151827,4.266,0,0.2844,0.0001373007,4.266,0
0.2853,8.090334E-05,4.2795,0,0.2853,6.009003E-05,4.2795,0
0.2862,-7.821774E-05,4.293,0,0.2862,-2.081331E-05,4.293,0
0.2871,-0.0001816129,4.3065,0,0.2871,-1.913481E-05,4.3065,0
0.288,-0.0001866484,4.32,0,0.288,-1.779202E-05,4.32,0
0.2889,-0.0002128328,4.3335,0,0.2889,3.323415E-05,4.3335,0
0.2898,-0.0001748989,4.347,0,0.2898,7.754635E-05,4.347,0
0.2907,-0.0002218967,4.3605,0,0.2907,5.874724E-05,4.3605,0
0.2916,-0.000119173,4.374,0,0.2916,-2.920577E-05,4.374,0
0.2925,-2.987716E-05,4.3875,0,0.2925,-1.712062E-05,4.3875,0
0.2934,-2.719158E-05,4.401,0,0.2934,-4.36408E-06,4.401,0
0.2943,1.242084E-05,4.4145,0,0.2943,-4.196231E-05,4.4145,0
0.2952,-6.881819E-05,4.428,0,0.2952,-5.874724E-05,4.428,0
0.2961,-4.733349E-05,4.4415,0,0.2961,-1.510643E-05,4.4415,0
0.297,-2.1149E-05,4.455,0,0.297,-1.040665E-05,4.455,0
0.2979,4.36408E-06,4.4685,0,0.2979,-3.121996E-05,4.4685,0
0.2988,7.284657E-05,4.482,0,0.2988,-6.814679E-05,4.482,0
0.2997,5.639734E-05,4.4955,0,0.2997,-9.030289E-05,4.4955,0
0.3006,1.007095E-06,4.509,0,0.3006,-9.768826E-05,4.509,0
0.3015,5.706874E-06,4.5225,0,0.3015,-0.0001033951,4.5225,0
0.3024,5.539025E-05,4.536,0,0.3024,-7.150377E-05,4.536,0
0.3033,9.365987E-05,4.5495,0,0.3033,3.021286E-06,4.5495,0
0.3042,0.0002155184,4.563,0,0.3042,-5.001907E-05,4.563,0
0.3051,0.0002964218,4.5765,0,0.3051,-0.00018262,4.5765,0
0.306,0.0001712062,4.59,0,0.306,-0.0001678492,4.59,0
0.3069,8.560311E-05,4.6035,0,0.3069,-8.560311E-05,4.6035,0
0.3078,-3.994812E-05,4.617,0,0.3078,-0.0001121233,4.617,0
0.3087,-0.0003571832,4.6305,0,0.3087,-3.961242E-05,4.6305,0
0.3096,-0.0004461433,4.644,0,0.3096,0.0001473716,4.644,0
0.3105,-0.0001399863,4.6575,0,0.3105,0.0002521096,4.6575,0
0.3114,-1.644922E-05,4.671,0,0.3114,0.0001802701,4.671,0
0.3123,6.378271E-06,4.6845,0,0.3123,8.89601E-05,4.6845,0
0.3132,1.947051E-05,4.698,0,0.3132,3.323415E-05,4.698,0
0.3141,-1.980621E-05,4.7115,0,0.3141,-1.644922E-05,4.7115,0
0.315,-3.256275E-05,4.725,0,0.315,-2.383459E-05,4.725,0
0.3159,-0.0001238727,4.7385,0,0.3159,-2.719158E-05,4.7385,0
0.3168,-1.309224E-05,4.752,0,0.3168,1.040665E-05,4.752,0
0.3177,5.438316E-05,4.7655,0,0.3177,-3.726253E-05,4.7655,0
0.3186,5.069047E-05,4.779,0,0.3186,-0.0001258869,4.779,0
0.3195,1.913481E-05,4.7925,0,0.3195,-0.0001114519,4.7925,0
0.3204,4.800488E-05,4.806,0,0.3204,-6.109713E-05,4.806,0
0.3213,2.752728E-05,4.8195,0,0.3213,-6.64683E-05,4.8195,0
0.3222,7.083238E-05,4.833,0,0.3222,-1.644922E-05,4.833,0
0.3231,3.088426E-05,4.8465,0,0.3231,6.378271E-05,4.8465,0
0.324,8.392462E-06,4.86,0,0.324,8.123904E-05,4.86,0
0.3249,2.1149E-05,4.8735,0,0.3249,-1.376364E-05,4.8735,0
0.3258,0.0001232013,4.887,0,0.3258,-4.061952E-05,4.887,0
0.3267,0.0001661708,4.9005,0,0.3267,-2.887007E-05,4.9005,0
0.3276,0.0001312581,4.914,0,0.3276,-3.692683E-05,4.914,0
0.3285,7.418937E-05,4.9275,0,0.3285,-5.471885E-05,4.9275,0
0.3294,7.049668E-06,4.941,0,0.3294,3.356985E-07,4.941,0
0.3303,-0.0001530785,4.9545,0,0.3303,9.701686E-05,4.9545,0
0.3312,-0.0001789273,4.968,0,0.3312,4.867628E-05,4.968,0
0.3321,-0.0001493858,4.9815,0,0.3321,-1.242084E-05,4.9815,0
0.333,-5.673304E-05,4.995,0,0.333,-1.275654E-05,4.995,0
0.3339,-1.678492E-05,5.0085,0,0.3339,-4.129091E-05,5.0085,0
0.3348,-3.356985E-07,5.022,0,0.3348,-6.143282E-05,5.022,0
0.3357,-8.392462E-06,5.0355,0,0.3357,-3.390555E-05,5.0355,0
0.3366,-4.733349E-05,5.049,0,0.3366,-7.385367E-06,5.049,0
0.3375,-5.706874E-06,5.0625,0,0.3375,-4.263371E-05,5.0625,0
0.3384,2.014191E-05,5.076,0,0.3384,-4.263371E-05,5.076,0
0.3393,6.042573E-06,5.0895,0,0.3393,-7.721065E-05,5.0895,0
0.3402,5.069047E-05,5.103,0,0.3402,-9.600977E-05,5.103,0
0.3411,-7.721065E-06,5.1165,0,0.3411,-4.061952E-05,5.1165,0
0.342,-3.524834E-05,5.13,0,0.342,-1.007095E-05,5.13,0
0.3429,-6.109713E-05,5.1435,0,0.3429,-9.399558E-06,5.1435,0
0.3438,-4.43122E-05,5.157,0,0.3438,1.376364E-05,5.157,0
0.3447,-2.719158E-05,5.1705,0,0.3447,-5.371176E-06,5.1705,0
0.3456,1.947051E-05,5.184,0,0.3456,-2.24918E-05,5.184,0
0.3465,1.443504E-05,5.1975,0,0.3465,1.443504E-05,5.1975,0
0.3474,-1.779202E-05,5.211,0,0.3474,-5.706874E-06,5.211,0
0.3483,-2.450599E-05,5.2245,0,0.3483,-1.544213E-05,5.2245,0
0.3492,-2.786297E-05,5.238,0,0.3492,-2.18204E-05,5.238,0
0.3501,0.0001017166,5.2515,0,0.3501,-8.392462E-06,5.2515,0
0.351,0.0001789273,5.265,0,0.351,-1.980621E-05,5.265,0
0.3519,0.0001601282,5.2785,0,0.3519,-1.644922E-05,5.2785,0
0.3528,0.0001000381,5.292,0,0.3528,-2.383459E-05,5.292,0
0.3537,1.577783E-05,5.3055,0,0.3537,-2.719158E-05,5.3055,0
0.3546,-8.493171E-05,5.319,0,0.3546,-1.107805E-05,5.319,0
0.3555,-4.867628E-05,5.3325,0,0.3555,-6.948959E-05,5.3325,0
0.3564,-0.0001225299,5.346,0,0.3564,-6.51255E-05,5.346,0
0.3573,-0.0002265965,5.3595,0,0.3573,1.577783E-05,5.3595,0
0.3582,-0.000256138,5.373,0,0.3582,-1.007095E-05,5.373,0
0.3591,-0.0001983978,5.3865,0,0.3591,-5.203327E-05,5.3865,0
0.36,-7.049668E-06,5.4,0,0.36,-1.275654E-05,5.4,0
0.3609,0.0002467384,5.4135,0,0.3609,-5.001907E-05,5.4135,0
0.3618,0.0003014572,5.427,0,0.3618,-0.0001117876,5.427,0
0.3627,0.0001201801,5.4405,0,0.3627,-8.493171E-05,5.4405,0
0.3636,-8.123904E-05,5.454,0,0.3636,-1.812772E-05,5.454,0
0.3645,-0.0001154803,5.4675,0,0.3645,-9.063859E-06,5.4675,0
0.3654,-0.0001520714,5.481,0,0.3654,-3.256275E-05,5.481,0
0.3663,-0.0002252537,5.4945,0,0.3663,-1.040665E-05,5.4945,0
0.3672,0.0001362936,5.508,0,0.3672,8.89601E-05,5.508,0
0.3681,0.0002057832,5.5215,0,0.3681,0.0001534142,5.5215,0
0.369,5.001907E-05,5.535,0,0.369,6.344701E-05,5.535,0
0.3699,-0.0001433432,5.5485,0,0.3699,-4.061952E-05,5.5485,0
0.3708,-0.0003716182,5.562,0,0.3708,-1.309224E-05,5.562,0
0.3717,-0.0002547952,5.5755,0,0.3717,-3.591974E-05,5.5755,0
0.3726,-0.0001467002,5.589,0,0.3726,-0.0001154803,5.589,0
0.3735,-7.687495E-05,5.6025,0,0.3735,-8.82887E-05,5.6025,0
0.3744,8.82887E-05,5.616,0,0.3744,-3.927672E-05,5.616,0
0.3753,5.807584E-05,5.6295,0,0.3753,6.713969E-07,5.6295,0
0.3762,3.021286E-06,5.643,0,0.3762,2.349889E-06,5.643,0
0.3771,-1.174945E-05,5.6565,0,0.3771,-1.309224E-05,5.6565,0
0.378,3.323415E-05,5.67,0,0.378,7.049668E-06,5.67,0
0.3789,9.365987E-05,5.6835,0,0.3789,3.659113E-05,5.6835,0
0.3798,0.0001131304,5.697,0,0.3798,3.860533E-05,5.697,0
0.3807,0.0001426719,5.7105,0,0.3807,1.510643E-05,5.7105,0
0.3816,0.0001376364,5.724,0,0.3816,-3.356985E-07,5.724,0
0.3825,0.0001064164,5.7375,0,0.3825,-0.000105745,5.7375,0
0.3834,0.0002373388,5.751,0,0.3834,-0.0002507668,5.751,0
0.3843,0.0001628138,5.7645,0,0.3843,-0.0003967956,5.7645,0
0.3852,5.001907E-05,5.778,0,0.3852,-0.0004803845,5.778,0
0.3861,-6.61326E-05,5.7915,0,0.3861,-0.000443122,5.7915,0
0.387,-0.000190341,5.805,0,0.387,-0.0002370031,5.805,0
0.3879,-0.0001413291,5.8185,0,0.3879,0.0001604639,5.8185,0
0.3888,-0.0002208896,5.832,0,0.3888,0.0005663233,5.832,0
0.3897,-0.0001802701,5.8455,0,0.3897,0.0006442054,5.8455,0
0.3906,-3.256275E-05,5.859,0,0.3906,0.0004615854,5.859,0
0.3915,1.443504E-05,5.8725,0,0.3915,0.0002829938,5.8725,0
0.3924,2.1149E-05,5.886,0,0.3924,0.0001554284,5.886,0
0.3933,4.36408E-06,5.8995,0,0.3933,4.733349E-05,5.8995,0
0.3942,2.383459E-05,5.913,0,0.3942,2.920577E-05,5.913,0
0.3951,4.766919E-05,5.9265,0,0.3951,3.793393E-05,5.9265,0
0.396,5.706874E-06,5.94,0,0.396,1.376364E-05,5.94,0
0.3969,2.752728E-05,5.9535,0,0.3969,-3.021286E-05,5.9535,0
0.3978,3.155566E-05,5.967,0,0.3978,-1.577783E-05,5.967,0
0.3987,1.712062E-05,5.9805,0,0.3987,-4.028382E-05,5.9805,0
0.3996,6.74754E-05,5.994,0,0.3996,-7.821774E-05,5.994,0
0.4005,7.620356E-05,6.0075,0,0.4005,-5.941863E-05,6.0075,0
0.4014,5.606165E-05,6.021,0,0.4014,-7.284657E-05,6.021,0
0.4023,2.517739E-05,6.0345,0,0.4023,-0.0001094377,6.0345,0
0.4032,9.567407E-05,6.048,0,0.4032,-0.0001064164,6.048,0
0.4041,0.0002010834,6.0615,0,0.4041,-6.948959E-05,6.0615,0
0.405,0.0001070878,6.075,0,0.405,-8.996719E-05,6.075,0
0.4059,1.040665E-05,6.0885,0,0.4059,-0.0001084306,6.0885,0
0.4068,-9.567407E-05,6.102,0,0.4068,-0.0001054093,6.102,0
0.4077,-0.0002420386,6.1155,0,0.4077,-5.941863E-05,6.1155,0
0.4086,-0.0001349508,6.129,0,0.4086,-4.061952E-05,6.129,0
0.4095,-1.376364E-05,6.1425,0,0.4095,-0.0001107805,6.1425,0
0.4104,-0.0001433432,6.156,0,0.4104,-0.0001258869,6.156,0
0.4113,-0.0001769131,6.1695,0,0.4113,-5.404745E-05,6.1695,0
0.4122,-4.129091E-05,6.183,0,0.4122,-7.016098E-05,6.183,0
0.4131,-6.277562E-05,6.1965,0,0.4131,-0.0001094377,6.1965,0
0.414,2.349889E-05,6.21,0,0.414,-7.452507E-05,6.21,0
0.4149,7.016098E-05,6.2235,0,0.4149,-6.009003E-05,6.2235,0
0.4158,0.0001305867,6.237,0,0.4158,-7.754635E-05,6.237,0
0.4167,0.0001715419,6.2505,0,0.4167,-5.136187E-05,6.2505,0
0.4176,0.0001957122,6.264,0,0.4176,-2.517739E-05,6.264,0
0.4185,8.493171E-05,6.2775,0,0.4185,-3.390555E-05,6.2775,0
0.4194,-5.035477E-05,6.291,0,0.4194,1.846342E-05,6.291,0
0.4203,-8.795301E-05,6.3045,0,0.4203,2.517739E-05,6.3045,0
0.4212,-9.869535E-05,6.318,0,0.4212,1.779202E-05,6.318,0
0.4221,-0.0002668803,6.3315,0,0.4221,-1.712062E-05,6.3315,0
0.423,-0.0002688945,6.345,0,0.423,-5.001907E-05,6.345,0
0.4239,-0.0001470359,6.3585,0,0.4239,-5.807584E-05,6.3585,0
0.4248,-5.740444E-05,6.372,0,0.4248,-5.975433E-05,6.372,0
0.4257,-2.316319E-05,6.3855,0,0.4257,-0.0001383078,6.3855,0
0.4266,3.289845E-05,6.399,0,0.4266,-0.0001675135,6.399,0
0.4275,5.136187E-05,6.4125,0,0.4275,-6.176852E-05,6.4125,0
0.4284,3.424125E-05,6.426,0,0.4284,-1.309224E-05,6.426,0
0.4293,5.304036E-05,6.4395,0,0.4293,-3.793393E-05,6.4395,0
0.4302,4.934768E-05,6.453,0,0.4302,6.143282E-05,6.453,0
0.4311,7.721065E-06,6.4665,0,0.4311,0.0002635233,6.4665,0
0.432,0.0002098116,6.48,0,0.432,0.0002957504,6.48,0
0.4329,0.0001064164,6.4935,0,0.4329,1.577783E-05,6.4935,0
0.4338,-0.0001339437,6.507,0,0.4338,-0.0001795987,6.507,0
0.4347,-0.0001638209,6.5205,0,0.4347,-0.000172549,6.5205,0
0.4356,-0.0002088045,6.534,0,0.4356,-0.0001299153,6.534,0
0.4365,1.644922E-05,6.5475,0,0.4365,-0.0001087663,6.5475,0
0.4374,0.0002111543,6.561,0,0.4374,3.759823E-05,6.561,0
0.4383,0.0001695277,6.5745,0,0.4383,0.000274937,6.5745,0
0.4392,5.001907E-05,6.588,0,0.4392,0.0002064546,6.588,0
0.4401,5.136187E-05,6.6015,0,0.4401,8.72816E-05,6.6015,0
0.441,-0.0001218585,6.615,0,0.441,8.258183E-05,6.615,0
0.4419,-0.0002635233,6.6285,0,0.4419,7.754635E-05,6.6285,0
0.4428,-5.136187E-05,6.642,0,0.4428,8.72816E-05,6.642,0
0.4437,0.0001309224,6.6555,0,0.4437,8.761731E-05,6.6555,0
0.4446,0.0004098878,6.669,0,0.4446,2.652018E-05,6.669,0
0.4455,0.0004706493,6.6825,0,0.4455,-0.0001433432,6.6825,0
0.4464,0.0003534905,6.696,0,0.4464,-0.0002776226,6.696,0
0.4473,0.0002323034,6.7095,0,0.4473,-0.0003326772,6.7095,0
0.4482,-1.812772E-05,6.723,0,0.4482,-0.0003252918,6.723,0
0.4491,-0.000470985,6.7365,0,0.4491,-0.0001742275,6.7365,0
0.45,-0.0006301061,6.75,0,0.45,-1.309224E-05,6.75,0
0.4509,-0.000418616,6.7635,0,0.4509,0.0002064546,6.7635,0
0.4518,-0.0001097734,6.777,0,0.4518,0.0003219348,6.777,0
0.4527,-0.0001900053,6.7905,0,0.4527,0.0002386816,6.7905,0
0.4536,-0.0002514381,6.804,0,0.4536,0.0001279011,6.804,0
0.4545,-0.0001829557,6.8175,0,0.4545,0.0001376364,6.8175,0
0.4554,-0.0001030594,6.831,0,0.4554,0.0001352865,6.831,0
0.4563,-4.800488E-05,6.8445,0,0.4563,8.023193E-05,6.8445,0
0.4572,2.584878E-05,6.858,0,0.4572,3.692683E-06,6.858,0
0.4581,0.0001983978,6.8715,0,0.4581,-5.774014E-05,6.8715,0
0.459,0.0001769131,6.885,0,0.459,-6.378271E-05,6.885,0
0.4599,0.0001054093,6.8985,0,0.4599,-7.821774E-05,6.8985,0
0.4608,6.344701E-05,6.912,0,0.4608,-0.0001299153,6.912,0
0.4617,-0.0001060807,6.9255,0,0.4617,-0.0002135042,6.9255,0
0.4626,1.577783E-05,6.939,0,0.4626,-0.0002474098,6.939,0
0.4635,0.0002413672,6.9525,0,0.4635,-0.0002584878,6.9525,0
0.4644,0.0003461051,6.966,0,0.4644,-0.0001712062,6.966,0
0.4653,0.0001218585,6.9795,0,0.4653,-4.129091E-05,6.9795,0
0.4662,9.198138E-05,6.993,0,0.4662,7.888914E-05,6.993,0
0.4671,-2.383459E-05,7.0065,0,0.4671,0.000158114,7.0065,0
0.468,-0.0004461433,7.02,0,0.468,0.0001299153,7.02,0
0.4689,-0.0004770276,7.0335,0,0.4689,0.000102388,7.0335,0
0.4698,-0.0001560998,7.047,0,0.4698,3.659113E-05,7.047,0
0.4707,-1.107805E-05,7.0605,0,0.4707,-0.000109102,7.0605,0
0.4716,1.409934E-05,7.074,0,0.4716,-0.0001430075,7.074,0
0.4725,5.270466E-05,7.0875,0,0.4725,-0.0002259251,7.0875,0
0.4734,0.0002447242,7.101,0,0.4734,-0.0003531548,7.101,0
0.4743,0.000372961,7.1145,0,0.4743,-0.0005213398,7.1145,0
0.4752,0.0004102236,7.128,0,0.4752,-0.0005092546,7.128,0
0.4761,0.0002937362,7.1415,0,0.4761,-0.0003739681,7.1415,0
0.477,0.0001671778,7.155,0,0.477,-0.0003041428,7.155,0
0.4779,3.659113E-05,7.1685,0,0.4779,2.887007E-05,7.1685,0
0.4788,-0.0002437171,7.182,0,0.4788,0.0004414435,7.182,0
0.4797,-0.0005290608,7.1955,0,0.4797,0.0006213779,7.1955,0
0.4806,-0.0004132448,7.209,0,0.4806,0.000643534,7.209,0
0.4815,-0.0002823224,7.2225,0,0.4815,0.0004924697,7.2225,0
0.4824,-9.198138E-05,7.236,0,0.4824,0.0003215991,7.236,0
0.4833,-3.256275E-05,7.2495,0,0.4833,0.0002514381,7.2495,0
0.4842,-3.524834E-05,7.263,0,0.4842,0.000144686,7.263,0
0.4851,-4.599069E-05,7.2765,0,0.4851,7.754635E-05,7.2765,0
0.486,5.337606E-05,7.29,0,0.486,2.584878E-05,7.29,0
0.4869,2.987716E-05,7.3035,0,0.4869,-1.040665E-05,7.3035,0
0.4878,0.0001628138,7.317,0,0.4878,-5.069047E-05,7.317,0
0.4887,0.0002715801,7.3305,0,0.4887,-5.136187E-05,7.3305,0
0.4896,0.0001782559,7.344,0,0.4896,-0.0001470359,7.344,0
0.4905,4.934768E-05,7.3575,0,0.4905,-0.0002124971,7.3575,0
0.4914,-9.164568E-05,7.371,0,0.4914,-0.0002396887,7.371,0
0.4923,-0.0001507286,7.3845,0,0.4923,-0.0002467384,7.3845,0
0.4932,-0.0002823224,7.398,0,0.4932,-0.0002289464,7.398,0
0.4941,-0.0001292439,7.4115,0,0.4941,-0.0001453574,7.4115,0
0.495,3.256275E-05,7.425,0,0.495,2.752728E-05,7.425,0
0.4959,2.047761E-05,7.4385,0,0.4959,2.21561E-05,7.4385,0
0.4968,-3.692683E-05,7.452,0,0.4968,-3.793393E-05,7.452,0
0.4977,-6.378271E-06,7.4655,0,0.4977,3.927672E-05,7.4655,0
0.4986,0.000112459,7.479,0,0.4986,4.263371E-05,7.479,0
0.4995,0.0001789273,7.4925,0,0.4995,-6.478981E-05,7.4925,0
0.5004,0.0003702754,7.506,0,0.5004,-7.486076E-05,7.506,0
0.5013,0.000415259,7.5195,0,0.5013,-4.666209E-05,7.5195,0
0.5022,7.754635E-05,7.533,0,0.5022,5.606165E-05,7.533,0
0.5031,-5.706874E-05,7.5465,0,0.5031,7.821774E-05,7.5465,0
0.504,-4.867628E-05,7.56,0,0.504,-7.486076E-05,7.56,0
0.5049,-0.0004924697,7.5735,0,0.5049,-0.0002682231,7.5735,0
0.5058,-0.0004817273,7.587,0,0.5058,-0.0003769894,7.587,0
0.5067,-2.652018E-05,7.6005,0,0.5067,-0.0004035096,7.6005,0
0.5076,0.0001540856,7.614,0,0.5076,-0.0002930648,7.614,0
0.5085,0.0001597925,7.6275,0,0.5085,-3.860533E-05,7.6275,0
0.5094,0.0001413291,7.641,0,0.5094,0.000200412,7.641,0
0.5103,0.0001497215,7.6545,0,0.5103,0.0002490883,7.6545,0
0.5112,0.0001060807,7.668,0,0.5112,0.0002843366,7.668,0
0.5121,-2.484169E-05,7.6815,0,0.5121,0.0001654994,7.6815,0
0.513,-0.0001258869,7.695,0,0.513,0.0001148089,7.695,0
0.5139,-0.0003185779,7.7085,0,0.5139,0.0001248798,7.7085,0
0.5148,-0.0002312963,7.722,0,0.5148,0.0001527428,7.722,0
0.5157,-0.0001433432,7.7355,0,0.5157,0.0001500572,7.7355,0
0.5166,-7.821774E-05,7.749,0,0.5166,3.591974E-05,7.749,0
0.5175,-9.835965E-05,7.7625,0,0.5175,-7.821774E-05,7.7625,0
0.5184,-7.620356E-05,7.776,0,0.5184,-0.0001151446,7.776,0
0.5193,-0.0001134661,7.7895,0,0.5193,-0.0001517357,7.7895,0
0.5202,2.349889E-06,7.803,0,0.5202,-0.0001722133,7.803,0
0.5211,7.016098E-05,7.8165,0,0.5211,-0.0001926909,7.8165,0
0.522,8.89601E-05,7.83,0,0.522,-7.284657E-05,7.83,0
0.5229,0.0001359579,7.8435,0,0.5229,8.392462E-05,7.8435,0
0.5238,7.888914E-05,7.857,0,0.5238,0.0001554284,7.857,0
0.5247,-1.913481E-05,7.8705,0,0.5247,9.164568E-05,7.8705,0
0.5256,-7.553216E-05,7.884,0,0.5256,1.376364E-05,7.884,0
0.5265,0.0003313344,7.8975,0,0.5265,1.846342E-05,7.8975,0
0.5274,0.0004461433,7.911,0,0.5274,-2.618448E-05,7.911,0
0.5283,0.0002897078,7.9245,0,0.5283,-2.584878E-05,7.9245,0
0.5292,0.0003487907,7.938,0,0.5292,3.021286E-06,7.938,0
0.5301,0.0005763943,7.9515,0,0.5301,-1.577783E-05,7.9515,0
0.531,0.0002420386,7.965,0,0.531,-6.74754E-05,7.965,0
0.5319,-0.0001943694,7.9785,0,0.5319,-0.0001030594,7.9785,0
0.5328,-0.0001775845,7.992,0,0.5328,-0.0001117876,7.992,0
0.5337,-0.0003803464,8.0055,0,0.5337,-0.0001853056,8.0055,0
0.5346,-0.0007603571,8.019,0,0.5346,-0.0001671778,8.019,0
0.5355,-0.0006358129,8.0325,0,0.5355,-6.076142E-05,8.0325,0
0.5364,-0.0005152972,8.046,0,0.5364,2.1149E-05,8.046,0
0.5373,-0.0001594568,8.0595,0,0.5373,4.028382E-06,8.0595,0
0.5382,5.136187E-05,8.073,0,0.5382,4.666209E-05,8.073,0
0.5391,-1.846342E-05,8.0865,0,0.5391,0.0001211871,8.0865,0
0.54,-0.0001070878,8.1,0,0.54,6.411841E-05,8.1,0
0.5409,-8.291753E-05,8.1135,0,0.5409,-5.035477E-06,8.1135,0
0.5418,-4.196231E-05,8.127,0,0.5418,-0.000175906,8.127,0
0.5427,1.342794E-06,8.1405,0,0.5427,-0.0003212634,8.1405,0
0.5436,0.0001500572,8.154,0,0.5436,-0.0003269703,8.154,0
0.5445,0.0001762417,8.1675,0,0.5445,-0.0004051881,8.1675,0
0.5454,0.0001111162,8.181,0,0.5454,-0.0004914626,8.181,0
0.5463,3.591974E-05,8.1945,0,0.5463,-0.0003810178,8.1945,0
0.5472,0.0001064164,8.208,0,0.5472,-0.000172549,8.208,0
0.5481,0.0001836271,8.2215,0,0.5481,8.96315E-05,8.2215,0
0.549,0.0003427482,8.235,0,0.549,0.0003917601,8.235,0
0.5499,0.0004182803,8.2485,0,0.5499,0.0004669566,8.2485,0
0.5508,3.961242E-05,8.262,0,0.5508,0.0004588998,8.262,0
0.5517,-0.0003031357,8.2755,0,0.5517,0.00060795,8.2755,0
0.5526,-0.0003168994,8.289,0,0.5526,0.0006549477,8.289,0
0.5535,-0.0002615091,8.3025,0,0.5535,0.0003561761,8.3025,0
0.5544,-0.0001493858,8.316,0,0.5544,0.0001111162,8.316,0
0.5553,-5.203327E-05,8.3295,0,0.5553,4.36408E-05,8.3295,0
0.5562,3.625543E-05,8.343,0,0.5562,-4.028382E-06,8.343,0
0.5571,-1.007095E-05,8.3565,0,0.5571,-2.752728E-05,8.3565,0
0.558,8.392462E-06,8.37,0,0.558,-6.143282E-05,8.37,0
0.5589,3.189136E-05,8.3835,0,0.5589,-9.298848E-05,8.3835,0
0.5598,0.0001426719,8.397,0,0.5598,-0.0001033951,8.397,0
0.5607,0.0002809796,8.4105,0,0.5607,-0.0001238727,8.4105,0
0.5616,0.00024271,8.424,0,0.5616,-0.0001467002,8.424,0
0.5625,0.000172549,8.4375,0,0.5625,-6.881819E-05,8.4375,0
0.5634,0.0002319677,8.451,0,0.5634,-7.956054E-05,8.451,0
0.5643,-6.143282E-05,8.4645,0,0.5643,-0.0001080949,8.4645,0
0.5652,-0.0002447242,8.478,0,0.5652,-9.869535E-05,8.478,0
0.5661,-1.007095E-06,8.4915,0,0.5661,-3.256275E-05,8.4915,0
0.567,4.867628E-05,8.505,0,0.567,-4.599069E-05,8.505,0
0.5679,-5.606165E-05,8.5185,0,0.5679,-5.941863E-05,8.5185,0
0.5688,-3.256275E-05,8.532,0,0.5688,-0.0001654994,8.532,0
0.5697,-0.0001238727,8.5455,0,0.5697,-0.0002124971,8.5455,0
0.5706,-0.0002286107,8.559,0,0.5706,-0.0002057832,8.559,0
0.5715,-0.0001463645,8.5725,0,0.5715,-0.0001863127,8.5725,0
0.5724,-5.807584E-05,8.586,0,0.5724,-0.0001540856,8.586,0
0.5733,6.74754E-05,8.5995,0,0.5733,-0.0001107805,8.5995,0
0.5742,9.433127E-05,8.613,0,0.5742,-7.351797E-05,8.613,0
0.5751,0.0001111162,8.6265,0,0.5751,-6.713969E-06,8.6265,0
0.576,7.888914E-05,8.64,0,0.576,5.807584E-05,8.64,0
0.5769,-0.0001104448,8.6535,0,0.5769,4.33051E-05,8.6535,0
0.5778,-0.0001654994,8.667,0,0.5778,-8.056763E-06,8.667,0
0.5787,3.390555E-05,8.6805,0,0.5787,4.599069E-05,8.6805,0
0.5796,-4.565499E-05,8.694,0,0.5796,6.277562E-05,8.694,0
0.5805,-0.0002047761,8.7075,0,0.5805,5.270466E-05,8.7075,0
0.5814,-0.0002074617,8.721,0,0.5814,1.208515E-05,8.721,0
0.5823,-3.491264E-05,8.7345,0,0.5823,-1.846342E-05,8.7345,0
0.5832,0.0001644923,8.748,0,0.5832,1.779202E-05,8.748,0
0.5841,0.0001634852,8.7615,0,0.5841,8.392462E-06,8.7615,0
0.585,1.107805E-05,8.775,0,0.585,-7.351797E-05,8.775,0
0.5859,-7.553216E-05,8.7885,0,0.5859,-0.0002413672,8.7885,0
0.5868,-9.198138E-05,8.802,0,0.5868,-0.0002759442,8.802,0
0.5877,-9.164568E-05,8.8155,0,0.5877,-0.0002662089,8.8155,0
0.5886,-1.644922E-05,8.829,0,0.5886,-0.0002353246,8.829,0
0.5895,-2.21561E-05,8.8425,0,0.5895,-0.000119173,8.8425,0
0.5904,-5.941863E-05,8.856,0,0.5904,0.0001013809,8.856,0
0.5913,-7.385367E-06,8.8695,0,0.5913,0.0001265583,8.8695,0
0.5922,0.0001930266,8.883,0,0.5922,0.0001836271,8.883,0
0.5931,0.0003074998,8.8965,0,0.5931,0.0002138399,8.8965,0
0.594,0.0003632258,8.91,0,0.594,0.0002145113,8.91,0
0.5949,0.0003803464,8.9235,0,0.5949,0.0002205539,8.9235,0
0.5958,0.0002970932,8.937,0,0.5958,0.0001383078,8.937,0
0.5967,9.970245E-05,8.9505,0,0.5967,8.358892E-05,8.9505,0
0.5976,-0.000158114,8.964,0,0.5976,8.090334E-05,8.964,0
0.5985,-0.0003494621,8.9775,0,0.5985,2.316319E-05,8.9775,0
0.5994,-0.0002437171,8.991,0,0.5994,-4.46479E-05,8.991,0
0.6003,-0.0002615091,9.0045,0,0.6003,-4.699779E-05,9.0045,0
0.6012,-0.0004098878,9.018,0,0.6012,-5.807584E-05,9.018,0
0.6021,-0.0003951171,9.0315,0,0.6021,-5.337606E-05,9.0315,0
0.603,-0.0001319295,9.045,0,0.603,-3.054856E-05,9.045,0
0.6039,-3.793393E-05,9.0585,0,0.6039,-3.961242E-05,9.0585,0
0.6048,5.270466E-05,9.072001,0,0.6048,-6.814679E-05,9.072001,0
0.6057,0.000190341,9.0855,0,0.6057,-9.231708E-05,9.0855,0
0.6066,9.500267E-05,9.099,0,0.6066,-0.0001097734,9.099,0
0.6075,9.735256E-06,9.1125,0,0.6075,-0.0001560998,9.1125,0
0.6084,-5.270466E-05,9.126,0,0.6084,-0.0002131685,9.126,0
0.6093,-0.000115816,9.1395,0,0.6093,-0.0001977264,9.1395,0
0.6102,-0.0002413672,9.153,0,0.6102,-6.076142E-05,9.153,0
0.6111,-0.0001279011,9.1665,0,0.6111,8.392462E-05,9.1665,0
0.612,3.356985E-06,9.18,0,0.612,0.0001117876,9.18,0
0.6129,6.411841E-05,9.1935,0,0.6129,0.0001205158,9.1935,0
0.6138,9.567407E-05,9.207,0,0.6138,0.0002010834,9.207,0
0.6147,0.0001221943,9.2205,0,0.6147,8.761731E-05,9.2205,0
0.6156,0.0002205539,9.234,0,0.6156,-2.24918E-05,9.234,0
0.6165,0.000355169,9.2475,0,0.6165,-1.376364E-05,9.2475,0
0.6174,0.0002437171,9.261,0,0.6174,-3.121996E-05,9.261,0
0.6183,5.404745E-05,9.2745,0,0.6183,-4.39765E-05,9.2745,0
0.6192,-7.016098E-05,9.288,0,0.6192,-1.611353E-05,9.288,0
0.6201,-0.0003205921,9.3015,0,0.6201,-1.376364E-05,9.3015,0
0.621,-0.0003101854,9.315,0,0.621,-3.961242E-05,9.315,0
0.6219,-4.901198E-05,9.3285,0,0.6219,-3.826963E-05,9.3285,0
0.6228,-4.599069E-05,9.342,0,0.6228,-4.733349E-05,9.342,0
0.6237,-3.390555E-05,9.3555,0,0.6237,-1.275654E-05,9.3555,0
0.6246,-1.544213E-05,9.369,0,0.6246,-7.385367E-06,9.369,0
0.6255,4.699779E-06,9.3825,0,0.6255,-5.975433E-05,9.3825,0
0.6264,4.699779E-06,9.396,0,0.6264,-7.217517E-05,9.396,0
0.6273,-1.007095E-05,9.4095,0,0.6273,-2.584878E-05,9.4095,0
0.6282,3.692683E-05,9.423,0,0.6282,-2.551309E-05,9.423,0
0.6291,7.452507E-05,9.4365,0,0.6291,-4.43122E-05,9.4365,0
0.63,6.61326E-05,9.45,0,0.63,-6.042573E-06,9.45,0
0.6309,0.0001070878,9.4635,0,0.6309,-2.081331E-05,9.4635,0
0.6318,7.217517E-05,9.477,0,0.6318,-5.740444E-05,9.477,0
0.6327,5.606165E-05,9.4905,0,0.6327,-6.848249E-05,9.4905,0
0.6336,0.0001151446,9.504,0,0.6336,-3.793393E-05,9.504,0
0.6345,-5.673304E-05,9.5175,0,0.6345,-6.378271E-05,9.5175,0
0.6354,-1.007095E-06,9.531,0,0.6354,-6.109713E-05,9.531,0
0.6363,9.063859E-05,9.5445,0,0.6363,-8.090334E-05,9.5445,0
0.6372,3.826963E-05,9.558,0,0.6372,-4.834058E-05,9.558,0
0.6381,-5.706874E-06,9.5715,0,0.6381,-3.155566E-05,9.5715,0
0.639,-6.57969E-05,9.585,0,0.639,-4.934768E-05,9.585,0
0.6399,-0.0001373007,9.5985,0,0.6399,4.028382E-05,9.5985,0
0.6408,-0.0001279011,9.612,0,0.6408,0.0001117876,9.612,0
0.6417,6.243992E-05,9.6255,0,0.6417,4.934768E-05,9.6255,0
0.6426,6.78111E-05,9.639,0,0.6426,-3.424125E-05,9.639,0
0.6435,-3.289845E-05,9.6525,0,0.6435,-3.591974E-05,9.6525,0
0.6444,-1.342794E-05,9.666,0,0.6444,-4.39765E-05,9.666,0
0.6453,4.263371E-05,9.6795,0,0.6453,-4.49836E-05,9.6795,0
0.6462,-2.719158E-05,9.693,0,0.6462,-3.457694E-05,9.693,0
0.6471,-8.191043E-05,9.7065,0,0.6471,6.378271E-06,9.7065,0
0.648,-2.18204E-05,9.72,0,0.648,6.042573E-06,9.72,0
0.6489,-5.236896E-05,9.7335,0,0.6489,-4.028382E-06,9.7335,0
0.6498,-0.0001070878,9.747,0,0.6498,-2.987716E-05,9.747,0
0.6507,-5.572595E-05,9.7605,0,0.6507,-6.713969E-07,9.7605,0
0.6516,-2.18204E-05,9.774,0,0.6516,2.316319E-05,9.774,0
0.6525,-3.155566E-05,9.7875,0,0.6525,-1.242084E-05,9.7875,0
0.6534,-1.544213E-05,9.801,0,0.6534,-3.524834E-05,9.801,0
0.6543,-8.392462E-06,9.8145,0,0.6543,2.349889E-06,9.8145,0
0.6552,-1.644922E-05,9.828,0,0.6552,3.021286E-06,9.828,0
0.6561,-1.678492E-06,9.8415,0,0.6561,-3.793393E-05,9.8415,0
0.657,4.36408E-06,9.855,0,0.657,-5.035477E-06,9.855,0
0.6579,2.719158E-05,9.8685,0,0.6579,6.042573E-06,9.8685,0
0.6588,4.229801E-05,9.882,0,0.6588,-3.256275E-05,9.882,0
0.6597,5.740444E-05,9.8955,0,0.6597,-3.390555E-05,9.8955,0
0.6606,2.24918E-05,9.909,0,0.6606,-1.376364E-05,9.909,0
0.6615,7.049668E-06,9.9225,0,0.6615,-1.242084E-05,9.9225,0
0.6624,2.484169E-05,9.936,0,0.6624,3.692683E-06,9.936,0
0.6633,2.014191E-06,9.9495,0,0.6633,-3.289845E-05,9.9495,0
0.6642,-1.174945E-05,9.963,0,0.6642,-2.047761E-05,9.963,0
0.6651,3.860533E-05,9.976501,0,0.6651,1.510643E-05,9.976501,0
0.666,-3.356985E-05,9.99,0,0.666,-5.471885E-05,9.99,0
0.6669,-2.719158E-05,10.0035,0,0.6669,-5.841154E-05,10.0035,0
0.6678,-2.349889E-06,10.017,0,0.6678,5.706874E-06,10.017,0
0.6687,-4.028382E-06,10.0305,0,0.6687,-1.779202E-05,10.0305,0
0.6696,0.0001309224,10.044,0,0.6696,-4.29694E-05,10.044,0
0.6705,0.0002380102,10.0575,0,0.6705,1.275654E-05,10.0575,0
0.6714,0.0001232013,10.071,0,0.6714,4.599069E-05,10.071,0
0.6723,-4.867628E-05,10.0845,0,0.6723,3.692683E-06,10.0845,0
0.6732,-0.0001393149,10.098,0,0.6732,1.544213E-05,10.098,0
0.6741,-0.0001910124,10.1115,0,0.6741,4.129091E-05,10.1115,0
0.675,-0.0002171969,10.125,0,0.675,1.510643E-05,10.125,0
0.6759,-9.298848E-05,10.1385,0,0.6759,-1.846342E-05,10.1385,0
0.6768,-2.987716E-05,10.152,0,0.6768,-6.378271E-05,10.152,0
0.6777,-3.994812E-05,10.1655,0,0.6777,-4.129091E-05,10.1655,0
0.6786,-9.097429E-05,10.179,0,0.6786,-6.042573E-06,10.179,0
0.6795,-4.867628E-05,10.1925,0,0.6795,-1.107805E-05,10.1925,0
0.6804,-1.141375E-05,10.206,0,0.6804,-2.685588E-05,10.206,0
0.6813,-2.316319E-05,10.2195,0,0.6813,1.779202E-05,10.2195,0
0.6822,-3.356985E-07,10.233,0,0.6822,3.222705E-05,10.233,0
0.6831,7.083238E-05,10.2465,0,0.6831,-1.007095E-06,10.2465,0
0.684,6.881819E-05,10.26,0,0.684,-5.706874E-06,10.26,0
0.6849,6.6804E-05,10.2735,0,0.6849,-3.726253E-05,10.2735,0
0.6858,7.821774E-05,10.287,0,0.6858,-7.318227E-05,10.287,0
0.6867,7.956054E-05,10.3005,0,0.6867,-8.795301E-05,10.3005,0
0.6876,3.323415E-05,10.314,0,0.6876,-7.687495E-05,10.314,0
0.6885,-2.081331E-05,10.3275,0,0.6885,-7.721065E-05,10.3275,0
0.6894,-3.021286E-05,10.341,0,0.6894,-7.553216E-05,10.341,0
0.6903,-2.450599E-05,10.3545,0,0.6903,-6.54612E-05,10.3545,0
0.6912,1.544213E-05,10.368,0,0.6912,-1.309224E-05,10.368,0
0.6921,-0.0001077592,10.3815,0,0.6921,4.263371E-05,10.3815,0
0.693,-0.0001950408,10.395,0,0.693,5.337606E-05,10.395,0
0.6939,-0.0001245441,10.4085,0,0.6939,1.879912E-05,10.4085,0
0.6948,-0.0001215228,10.422,0,0.6948,3.424125E-05,10.422,0
0.6957,-7.486076E-05,10.4355,0,0.6957,1.779202E-05,10.4355,0
0.6966,-4.49836E-05,10.449,0,0.6966,-5.001907E-05,10.449,0
0.6975,-6.478981E-05,10.4625,0,0.6975,-3.793393E-05,10.4625,0
0.6984,-3.692683E-06,10.476,0,0.6984,-3.424125E-05,10.476,0
0.6993,3.054856E-05,10.4895,0,0.6993,-4.699779E-05,10.4895,0
0.7002,-2.719158E-05,10.503,0,0.7002,-4.934768E-05,10.503,0
0.7011,1.040665E-05,10.5165,0,0.7011,-1.644922E-05,10.5165,0
0.702,7.956054E-05,10.53,0,0.702,1.812772E-05,10.53,0
0.7029,8.92958E-05,10.5435,0,0.7029,5.304036E-05,10.5435,0
0.7038,7.888914E-05,10.557,0,0.7038,4.028382E-06,10.557,0
0.7047,6.109713E-05,10.5705,0,0.7047,-1.745632E-05,10.5705,0
0.7056,3.524834E-05,10.584,0,0.7056,-2.987716E-05,10.584,0
0.7065,5.774014E-05,10.5975,0,0.7065,-7.687495E-05,10.5975,0
0.7074,6.814679E-05,10.611,0,0.7074,-7.116808E-05,10.611,0
0.7083,5.304036E-05,10.6245,0,0.7083,-2.752728E-05,10.6245,0
0.7092,5.136187E-05,10.638,0,0.7092,-4.263371E-05,10.638,0
0.7101,3.524834E-05,10.6515,0,0.7101,-7.183947E-05,10.6515,0
0.711,-1.980621E-05,10.665,0,0.711,-4.699779E-05,10.665,0
0.7119,3.692683E-06,10.6785,0,0.7119,-2.081331E-05,10.6785,0
0.7128,5.001907E-05,10.692,0,0.7128,-3.826963E-05,10.692,0
0.7137,-3.390555E-05,10.7055,0,0.7137,-4.666209E-05,10.7055,0
0.7146,-2.014191E-05,10.719,0,0.7146,-5.706874E-06,10.719,0
0.7155,1.846342E-05,10.7325,0,0.7155,7.721065E-06,10.7325,0
0.7164,-1.913481E-05,10.746,0,0.7164,-3.088426E-05,10.746,0
0.7173,-5.706874E-06,10.7595,0,0.7173,-2.987716E-05,10.7595,0
0.7182,-6.378271E-06,10.773,0,0.7182,1.779202E-05,10.773,0
0.7191,-3.692683E-05,10.7865,0,0.7191,3.591974E-05,10.7865,0
0.72,-2.752728E-05,10.8,0,0.72,4.061952E-05,10.8,0
0.7209,-2.920577E-05,10.8135,0,0.7209,3.323415E-05,10.8135,0
0.7218,-6.74754E-05,10.827,0,0.7218,6.277562E-05,10.827,0
0.7227,-6.344701E-05,10.8405,0,0.7227,1.208515E-05,10.8405,0
0.7236,-2.920577E-05,10.854,0,0.7236,-4.162661E-05,10.854,0
0.7245,-2.618448E-05,10.8675,0,0.7245,-2.584878E-05,10.8675,0
0.7254,-4.834058E-05,10.881,0,0.7254,-7.016098E-05,10.881,0
0.7263,-7.385367E-06,10.8945,0,0.7263,-0.0001087663,10.8945,0
0.7272,2.316319E-05,10.908,0,0.7272,-6.243992E-05,10.908,0
0.7281,-1.644922E-05,10.9215,0,0.7281,4.028382E-06,10.9215,0
0.729,-7.721065E-06,10.935,0,0.729,-2.417029E-05,10.935,0
0.7299,4.699779E-06,10.9485,0,0.7299,-8.493171E-05,10.9485,0
0.7308,3.558404E-05,10.962,0,0.7308,-0.0001044022,10.962,0
0.7317,4.129091E-05,10.9755,0,0.7317,-8.426032E-05,10.9755,0
0.7326,3.659113E-05,10.989,0,0.7326,-5.001907E-05,10.989,0
0.7335,8.761731E-05,11.0025,0,0.7335,-6.982528E-05,11.0025,0
0.7344,6.210422E-05,11.016,0,0.7344,-7.217517E-05,11.016,0
0.7353,4.46479E-05,11.0295,0,0.7353,-2.349889E-06,11.0295,0
0.7362,2.652018E-05,11.043,0,0.7362,1.846342E-05,11.043,0
0.7371,-2.450599E-05,11.0565,0,0.7371,1.745632E-05,11.0565,0
0.738,-5.203327E-05,11.07,0,0.738,7.284657E-05,11.07,0
0.7389,-5.706874E-05,11.0835,0,0.7389,3.457694E-05,11.0835,0
0.7398,-5.874724E-05,11.097,0,0.7398,5.035477E-06,11.097,0
0.7407,-6.915389E-05,11.1105,0,0.7407,1.879912E-05,11.1105,0
0.7416,-8.627451E-05,11.124,0,0.7416,5.740444E-05,11.124,0
0.7425,-8.224613E-05,11.1375,0,0.7425,3.793393E-05,11.1375,0
0.7434,-6.61326E-05,11.151,0,0.7434,3.021286E-06,11.151,0
0.7443,-5.438316E-05,11.1645,0,0.7443,-3.155566E-05,11.1645,0
0.7452,-3.793393E-05,11.178,0,0.7452,-1.007095E-06,11.178,0
0.7461,-1.980621E-05,11.1915,0,0.7461,1.040665E-05,11.1915,0
0.747,-5.706874E-06,11.205,0,0.747,-1.510643E-05,11.205,0
0.7479,1.309224E-05,11.2185,0,0.7479,-1.342794E-06,11.2185,0
0.7488,6.378271E-06,11.232,0,0.7488,9.970245E-05,11.232,0
0.7497,1.007095E-06,11.2455,0,0.7497,3.558404E-05,11.2455,0
0.7506,-7.721065E-06,11.259,0,0.7506,-7.083238E-05,11.259,0
0.7515,-1.376364E-05,11.2725,0,0.7515,-6.076142E-05,11.2725,0
0.7524,2.652018E-05,11.286,0,0.7524,-8.291753E-05,11.286,0
0.7533,2.887007E-05,11.2995,0,0.7533,-5.001907E-05,11.2995,0
0.7542,5.069047E-05,11.313,0,0.7542,3.726253E-05,11.313,0
0.7551,4.229801E-05,11.3265,0,0.7551,1.443504E-05,11.3265,0
0.756,1.275654E-05,11.34,0,0.756,-2.316319E-05,11.34,0
0.7569,0,11.3535,0,0.7569,-2.584878E-05,11.3535,0
0.7578,-1.275654E-05,11.367,0,0.7578,-5.438316E-05,11.367,0
0.7587,-2.18204E-05,11.3805,0,0.7587,-2.652018E-05,11.3805,0
0.7596,-4.095522E-05,11.394,0,0.7596,-3.927672E-05,11.394,0
0.7605,-4.867628E-05,11.4075,0,0.7605,-4.46479E-05,11.4075,0
0.7614,-2.28275E-05,11.421,0,0.7614,-4.43122E-05,11.421,0
0.7623,-6.78111E-05,11.4345,0,0.7623,-1.812772E-05,11.4345,0
0.7632,-7.217517E-05,11.448,0,0.7632,-3.289845E-05,11.448,0
0.7641,-1.577783E-05,11.4615,0,0.7641,-6.848249E-05,11.4615,0
0.765,-2.18204E-05,11.475,0,0.765,-3.692683E-06,11.475,0
0.7659,2.920577E-05,11.4885,0,0.7659,3.591974E-05,11.4885,0
0.7668,2.987716E-05,11.502,0,0.7668,-3.121996E-05,11.502,0
0.7677,-9.063859E-06,11.5155,0,0.7677,-4.263371E-05,11.5155,0
0.7686,1.040665E-05,11.529,0,0.7686,-9.063859E-06,11.529,0
0.7695,4.901198E-05,11.5425,0,0.7695,-1.242084E-05,11.5425,0
0.7704,1.644922E-05,11.556,0,0.7704,-1.678492E-06,11.556,0
0.7713,-1.577783E-05,11.5695,0,0.7713,-2.987716E-05,11.5695,0
0.7722,-2.047761E-05,11.583,0,0.7722,-1.577783E-05,11.583,0
0.7731,-3.054856E-05,11.5965,0,0.7731,-7.049668E-06,11.5965,0
0.774,2.685588E-06,11.61,0,0.774,-1.913481E-05,11.61,0
0.7749,-1.745632E-05,11.6235,0,0.7749,-4.49836E-05,11.6235,0
0.7758,-4.061952E-05,11.637,0,0.7758,1.477073E-05,11.637,0
0.7767,2.014191E-06,11.6505,0,0.7767,-5.706874E-06,11.6505,0
0.7776,2.450599E-05,11.664,0,0.7776,-4.599069E-05,11.664,0
0.7785,3.927672E-05,11.6775,0,0.7785,-1.678492E-06,11.6775,0
0.7794,6.076142E-05,11.691,0,0.7794,-2.014191E-06,11.691,0
0.7803,0.0001070878,11.7045,0,0.7803,-2.14847E-05,11.7045,0
0.7812,6.277562E-05,11.718,0,0.7812,-3.021286E-05,11.718,0
0.7821,3.726253E-05,11.7315,0,0.7821,-1.779202E-05,11.7315,0
0.783,2.719158E-05,11.745,0,0.783,-4.36408E-06,11.745,0
0.7839,-3.021286E-06,11.7585,0,0.7839,-5.505455E-05,11.7585,0
0.7848,-4.800488E-05,11.772,0,0.7848,-6.881819E-05,11.772,0
0.7857,-2.383459E-05,11.7855,0,0.7857,-2.18204E-05,11.7855,0
0.7866,-1.812772E-05,11.799,0,0.7866,-1.712062E-05,11.799,0
0.7875,-2.450599E-05,11.8125,0,0.7875,-4.46479E-05,11.8125,0
0.7884,-3.524834E-05,11.826,0,0.7884,-6.277562E-05,11.826,0
0.7893,-3.860533E-05,11.8395,0,0.7893,-1.107805E-05,11.8395,0
0.7902,-2.18204E-05,11.853,0,0.7902,-5.706874E-06,11.853,0
0.7911,-7.721065E-06,11.8665,0,0.7911,-1.644922E-05,11.8665,0
0.792,-2.551309E-05,11.88,0,0.792,2.719158E-05,11.88,0
0.7929,-1.007095E-06,11.8935,0,0.7929,2.014191E-05,11.8935,0
0.7938,-4.028382E-05,11.907,0,0.7938,-5.102617E-05,11.907,0
0.7947,-7.351797E-05,11.9205,0,0.7947,-4.733349E-05,11.9205,0
0.7956,-5.807584E-05,11.934,0,0.7956,-4.36408E-05,11.934,0
0.7965,-7.049668E-06,11.9475,0,0.7965,-9.365987E-05,11.9475,0
0.7974,-7.721065E-06,11.961,0,0.7974,-6.109713E-05,11.961,0
0.7983,2.517739E-05,11.9745,0,0.7983,4.061952E-05,11.9745,0
0.7992,8.82887E-05,11.988,0,0.7992,6.277562E-05,11.988,0
0.8001,6.74754E-05,12.0015,0,0.8001,2.316319E-05,12.0015,0
0.801,8.191043E-05,12.015,0,0.801,-6.042573E-06,12.015,0
0.8019,4.632639E-05,12.0285,0,0.8019,-2.081331E-05,12.0285,0
0.8028,1.409934E-05,12.042,0,0.8028,2.383459E-05,12.042,0
0.8037,-4.53193E-05,12.0555,0,0.8037,-2.18204E-05,12.0555,0
0.8046,-6.64683E-05,12.069,0,0.8046,-6.076142E-05,12.069,0
0.8055,-9.500267E-05,12.0825,0,0.8055,-1.074235E-05,12.0825,0
0.8064,-6.344701E-05,12.096,0,0.8064,6.713969E-06,12.096,0
0.8073,-9.735256E-06,12.1095,0,0.8073,-4.800488E-05,12.1095,0
0.8082,1.712062E-05,12.123,0,0.8082,-4.901198E-05,12.123,0
0.8091,-4.867628E-05,12.1365,0,0.8091,5.035477E-06,12.1365,0
0.81,-6.109713E-05,12.15,0,0.81,5.438316E-05,12.15,0
0.8109,-1.275654E-05,12.1635,0,0.8109,1.712062E-05,12.1635,0
0.8118,-5.069047E-05,12.177,0,0.8118,-3.054856E-05,12.177,0
0.8127,-0.0001084306,12.1905,0,0.8127,-2.316319E-05,12.1905,0
0.8136,-7.956054E-05,12.204,0,0.8136,-4.733349E-05,12.204,0
0.8145,-4.33051E-05,12.2175,0,0.8145,-9.063859E-05,12.2175,0
0.8154,-3.356985E-06,12.231,0,0.8154,-6.009003E-05,12.231,0
0.8163,5.975433E-05,12.2445,0,0.8163,2.853437E-05,12.2445,0
0.8172,9.265278E-05,12.258,0,0.8172,3.894102E-05,12.258,0
0.8181,7.150377E-05,12.2715,0,0.8181,-1.242084E-05,12.2715,0
0.819,1.913481E-05,12.285,0,0.819,-1.007095E-06,12.285,0
0.8199,8.056763E-06,12.2985,0,0.8199,-3.356985E-07,12.2985,0
0.8208,3.289845E-05,12.312,0,0.8208,-1.040665E-05,12.312,0
0.8217,8.056763E-06,12.3255,0,0.8217,-4.061952E-05,12.3255,0
0.8226,-5.035477E-06,12.339,0,0.8226,-0.0001131304,12.339,0
0.8235,-6.042573E-06,12.3525,0,0.8235,-0.0001671778,12.3525,0
0.8244,-1.980621E-05,12.366,0,0.8244,-9.701686E-05,12.366,0
0.8253,-1.409934E-05,12.3795,0,0.8253,1.275654E-05,12.3795,0
0.8262,-5.270466E-05,12.393,0,0.8262,4.666209E-05,12.393,0
0.8271,-8.224613E-05,12.4065,0,0.8271,4.028382E-06,12.4065,0
0.828,-3.793393E-05,12.42,0,0.828,-2.450599E-05,12.42,0
0.8289,-1.913481E-05,12.4335,0,0.8289,-7.016098E-05,12.4335,0
0.8298,-4.36408E-05,12.447,0,0.8298,-2.484169E-05,12.447,0
0.8307,-1.174945E-05,12.4605,0,0.8307,-2.349889E-06,12.4605,0
0.8316,2.652018E-05,12.474,0,0.8316,-4.095522E-05,12.474,0
0.8325,1.879912E-05,12.4875,0,0.8325,-5.706874E-06,12.4875,0
0.8334,1.309224E-05,12.501,0,0.8334,8.392462E-06,12.501,0
0.8343,2.887007E-05,12.5145,0,0.8343,-3.692683E-06,12.5145,0
0.8352,1.208515E-05,12.528,0,0.8352,8.392462E-06,12.528,0
0.8361,-8.392462E-06,12.5415,0,0.8361,2.517739E-05,12.5415,0
0.837,2.24918E-05,12.555,0,0.837,2.18204E-05,12.555,0
0.8379,-2.786297E-05,12.5685,0,0.8379,-3.424125E-05,12.5685,0
0.8388,-2.18204E-05,12.582,0,0.8388,-5.539025E-05,12.582,0
0.8397,-6.713969E-06,12.5955,0,0.8397,-3.591974E-05,12.5955,0
0.8406,-1.242084E-05,12.609,0,0.8406,-4.39765E-05,12.609,0
0.8415,1.745632E-05,12.6225,0,0.8415,-3.289845E-05,12.6225,0
0.8424,2.920577E-05,12.636,0,0.8424,-3.659113E-05,12.636,0
0.8433,2.819867E-05,12.6495,0,0.8433,4.699779E-06,12.6495,0
0.8442,5.203327E-05,12.663,0,0.8442,-5.035477E-06,12.663,0
0.8451,4.49836E-05,12.6765,0,0.8451,-6.814679E-05,12.6765,0
0.846,-2.349889E-06,12.69,0,0.846,-2.24918E-05,12.69,0
0.8469,-2.853437E-05,12.7035,0,0.8469,2.517739E-05,12.7035,0
0.8478,-1.309224E-05,12.717,0,0.8478,2.517739E-05,12.717,0
0.8487,-3.021286E-06,12.7305,0,0.8487,3.961242E-05,12.7305,0
0.8496,-5.169757E-05,12.744,0,0.8496,4.699779E-05,12.744,0
0.8505,-3.961242E-05,12.7575,0,0.8505,6.378271E-06,12.7575,0
0.8514,-2.853437E-05,12.771,0,0.8514,-5.035477E-06,12.771,0
0.8523,-2.014191E-06,12.7845,0,0.8523,-5.136187E-05,12.7845,0
0.8532,-9.063859E-06,12.798,0,0.8532,-5.774014E-05,12.798,0
0.8541,-2.954147E-05,12.8115,0,0.8541,-3.524834E-05,12.8115,0
0.855,-1.208515E-05,12.825,0,0.855,-4.53193E-05,12.825,0
0.8559,1.644922E-05,12.8385,0,0.8559,-4.733349E-05,12.8385,0
0.8568,3.726253E-05,12.852,0,0.8568,1.443504E-05,12.852,0
0.8577,4.129091E-05,12.8655,0,0.8577,1.678492E-06,12.8655,0
0.8586,1.712062E-05,12.879,0,0.8586,-2.719158E-05,12.879,0
0.8595001,-4.36408E-06,12.8925,0,0.8595001,2.383459E-05,12.8925,0
0.8604,3.457694E-05,12.906,0,0.8604,4.263371E-05,12.906,0
0.8613,-2.685588E-06,12.9195,0,0.8613,2.349889E-06,12.9195,0
0.8622,-7.351797E-05,12.933,0,0.8622,-3.021286E-06,12.933,0
0.8631,-7.150377E-05,12.9465,0,0.8631,5.304036E-05,12.9465,0
0.864,-6.143282E-05,12.96,0,0.864,3.524834E-05,12.96,0
0.8649,-6.848249E-05,12.9735,0,0.8649,1.141375E-05,12.9735,0
0.8658,-7.956054E-05,12.987,0,0.8658,-2.987716E-05,12.987,0
0.8667,-8.72816E-05,13.0005,0,0.8667,-2.450599E-05,13.0005,0
0.8676,-5.438316E-05,13.014,0,0.8676,-4.129091E-05,13.014,0
0.8685,0,13.0275,0,0.8685,-6.411841E-05,13.0275,0
0.8694,1.678492E-05,13.041,0,0.8694,-5.841154E-05,13.041,0
0.8703,-4.36408E-06,13.0545,0,0.8703,1.007095E-06,13.0545,0
0.8712,-2.987716E-05,13.068,0,0.8712,-3.692683E-05,13.068,0
0.8721,-1.812772E-05,13.0815,0,0.8721,-0.0001040665,13.0815,0
0.873,-4.632639E-05,13.095,0,0.873,-6.109713E-05,13.095,0
0.8739,-4.095522E-05,13.1085,0,0.8739,-2.584878E-05,13.1085,0
0.8748,2.349889E-06,13.122,0,0.8748,-3.659113E-05,13.122,0
0.8757,-3.356985E-07,13.1355,0,0.8757,-7.721065E-06,13.1355,0
0.8766,-2.047761E-05,13.149,0,0.8766,4.733349E-05,13.149,0
0.8775,1.007095E-06,13.1625,0,0.8775,6.6804E-05,13.1625,0
0.8784,-1.242084E-05,13.176,0,0.8784,1.007095E-06,13.176,0
0.8793,3.692683E-06,13.1895,0,0.8793,-6.814679E-05,13.1895,0
0.8802,4.800488E-05,13.203,0,0.8802,-5.136187E-05,13.203,0
0.8811,4.733349E-05,13.2165,0,0.8811,-1.040665E-05,13.2165,0
0.882,9.198138E-05,13.23,0,0.882,-2.685588E-05,13.23,0
0.8829,8.325322E-05,13.2435,0,0.8829,-2.551309E-05,13.2435,0
0.8838,3.994812E-05,13.257,0,0.8838,3.390555E-05,13.257,0
0.8847,6.378271E-06,13.2705,0,0.8847,1.510643E-05,13.2705,0
0.8856,-5.706874E-06,13.284,0,0.8856,-3.524834E-05,13.284,0
0.8865,-7.721065E-06,13.2975,0,0.8865,-2.685588E-06,13.2975,0
0.8874,1.376364E-05,13.311,0,0.8874,-8.392462E-06,13.311,0
0.8883,1.141375E-05,13.3245,0,0.8883,-6.076142E-05,13.3245,0
0.8892,1.712062E-05,13.338,0,0.8892,-6.915389E-05,13.338,0
0.8901,-2.517739E-05,13.3515,0,0.8901,-5.404745E-05,13.3515,0
0.891,-3.793393E-05,13.365,0,0.891,-8.627451E-05,13.365,0
0.8919,-4.263371E-05,13.3785,0,0.8919,-4.229801E-05,13.3785,0
0.8928,-3.591974E-05,13.392,0,0.8928,-3.155566E-05,13.392,0
0.8937,-2.517739E-05,13.4055,0,0.8937,-5.606165E-05,13.4055,0
0.8946,1.678492E-06,13.419,0,0.8946,-2.517739E-05,13.419,0
0.8955,9.063859E-06,13.4325,0,0.8955,5.807584E-05,13.4325,0
0.8964,-5.035477E-06,13.446,0,0.8964,4.061952E-05,13.446,0
0.8973,-1.779202E-05,13.4595,0,0.8973,-1.007095E-06,13.4595,0
0.8982,-2.18204E-05,13.473,0,0.8982,-2.484169E-05,13.473,0
0.8991,-4.229801E-05,13.4865,0,0.8991,-5.606165E-05,13.4865,0
0.9,-7.687495E-05,13.5,0,0.9,-6.713969E-07,13.5,0
0.9009,-3.894102E-05,13.5135,0,0.9009,6.713969E-07,13.5135,0
0.9018,-1.846342E-05,13.527,0,0.9018,-7.553216E-05,13.527,0
0.9027,-6.378271E-06,13.5405,0,0.9027,-8.82887E-05,13.5405,0
0.9036,4.53193E-05,13.554,0,0.9036,-3.994812E-05,13.554,0
0.9045,7.956054E-05,13.5675,0,0.9045,-2.786297E-05,13.5675,0
0.9054,5.941863E-05,13.581,0,0.9054,-1.779202E-05,13.581,0
0.9063,2.349889E-06,13.5945,0,0.9063,-6.378271E-05,13.5945,0
0.9072,4.129091E-05,13.608,0,0.9072,-1.174945E-05,13.608,0
0.9081,1.309224E-05,13.6215,0,0.9081,1.040665E-05,13.6215,0
0.909,-1.544213E-05,13.635,0,0.909,-2.987716E-05,13.635,0
0.9099,2.517739E-05,13.6485,0,0.9099,-4.196231E-05,13.6485,0
0.9108,1.174945E-05,13.662,0,0.9108,-9.063859E-06,13.662,0
0.9117,2.316319E-05,13.6755,0,0.9117,-1.980621E-05,13.6755,0
0.9126,3.424125E-05,13.689,0,0.9126,-4.733349E-05,13.689,0
0.9135,5.035477E-06,13.7025,0,0.9135,2.417029E-05,13.7025,0
0.9144,-2.786297E-05,13.716,0,0.9144,3.927672E-05,13.716,0
0.9153,-5.035477E-06,13.7295,0,0.9153,-5.606165E-05,13.7295,0
0.9162,-5.236896E-05,13.743,0,0.9162,-7.016098E-05,13.743,0
0.9171,-8.526741E-05,13.7565,0,0.9171,1.007095E-06,13.7565,0
0.918,-6.948959E-05,13.77,0,0.918,6.378271E-06,13.77,0
0.9189,-3.591974E-05,13.7835,0,0.9189,7.721065E-06,13.7835,0
0.9198,-2.316319E-05,13.797,0,0.9198,-1.007095E-05,13.797,0
0.9207,-4.33051E-05,13.8105,0,0.9207,1.040665E-05,13.8105,0
0.9216,-3.659113E-05,13.824,0,0.9216,2.719158E-05,13.824,0
0.9225,-3.390555E-05,13.8375,0,0.9225,-1.309224E-05,13.8375,0
0.9234,7.385367E-06,13.851,0,0.9234,-8.392462E-06,13.851,0
0.9243,1.242084E-05,13.8645,0,0.9243,2.719158E-05,13.8645,0
0.9252,-1.007095E-06,13.878,0,0.9252,-1.141375E-05,13.878,0
0.9261,2.685588E-06,13.8915,0,0.9261,-7.251087E-05,13.8915,0
0.927,6.713969E-06,13.905,0,0.927,-2.685588E-05,13.905,0
0.9279,-1.577783E-05,13.9185,0,0.9279,-1.947051E-05,13.9185,0
0.9288,-2.584878E-05,13.932,0,0.9288,-5.001907E-05,13.932,0
0.9297,-5.136187E-05,13.9455,0,0.9297,-1.812772E-05,13.9455,0
0.9306,-4.699779E-05,13.959,0,0.9306,9.063859E-06,13.959,0
0.9315,4.934768E-05,13.9725,0,0.9315,-8.728161E-06,13.9725,0
0.9324,6.948959E-05,13.986,0,0.9324,-3.860533E-05,13.986,0
0.9333,-5.706874E-06,13.9995,0,0.9333,-7.385367E-05,13.9995,0
0.9342,-3.692683E-06,14.013,0,0.9342,-2.450599E-05,14.013,0
0.9351,2.652018E-05,14.0265,0,0.9351,1.242084E-05,14.0265,0
0.936,-3.356985E-07,14.04,0,0.936,-4.934768E-05,14.04,0
0.9369,-2.786297E-05,14.0535,0,0.9369,-8.325322E-05,14.0535,0
0.9378,-4.39765E-05,14.067,0,0.9378,-4.028382E-05,14.067,0
0.9387,-6.042573E-05,14.0805,0,0.9387,-3.894102E-05,14.0805,0
0.9396001,-6.210422E-05,14.094,0,0.9396001,-7.721065E-05,14.094,0
0.9405,-9.063859E-06,14.1075,0,0.9405,-5.706874E-06,14.1075,0
0.9414001,2.920577E-05,14.121,0,0.9414001,4.36408E-06,14.121,0
0.9423,3.894102E-05,14.1345,0,0.9423,-1.644922E-05,14.1345,0
0.9432001,-3.356985E-07,14.148,0,0.9432001,5.203327E-05,14.148,0
0.9441,-8.392462E-06,14.1615,0,0.9441,9.466698E-05,14.1615,0
0.9450001,9.735256E-06,14.175,0,0.9450001,6.61326E-05,14.175,0
0.9459,4.028382E-06,14.1885,0,0.9459,1.846342E-05,14.1885,0
0.9468,-1.107805E-05,14.202,0,0.9468,0,14.202,0
0.9477,-1.107805E-05,14.2155,0,0.9477,1.309224E-05,14.2155,0
0.9486,1.107805E-05,14.229,0,0.9486,8.728161E-06,14.229,0
0.9495,4.46479E-05,14.2425,0,0.9495,-1.644922E-05,14.2425,0
0.9504,2.1149E-05,14.256,0,0.9504,-3.155566E-05,14.256,0
0.9513,-2.987716E-05,14.2695,0,0.9513,1.376364E-05,14.2695,0
0.9522,-3.256275E-05,14.283,0,0.9522,-1.644922E-05,14.283,0
0.9531,-1.007095E-06,14.2965,0,0.9531,-4.934768E-05,14.2965,0
0.954,-2.987716E-05,14.31,0,0.954,6.042573E-06,14.31,0
0.9549,5.035477E-06,14.3235,0,0.9549,-1.577783E-05,14.3235,0
0.9558,8.056763E-06,14.337,0,0.9558,-4.733349E-05,14.337,0
0.9567,-5.673304E-05,14.3505,0,0.9567,-3.088426E-05,14.3505,0
0.9576,-8.627451E-05,14.364,0,0.9576,-1.510643E-05,14.364,0
0.9585,-6.143282E-05,14.3775,0,0.9585,-3.390555E-05,14.3775,0
0.9594,-4.33051E-05,14.391,0,0.9594,-7.418937E-05,14.391,0
0.9603,-1.812772E-05,14.4045,0,0.9603,-0.000109102,14.4045,0
0.9612,-1.577783E-05,14.418,0,0.9612,-8.493171E-05,14.418,0
0.9621,4.028382E-06,14.4315,0,0.9621,-5.438316E-05,14.4315,0
0.963,6.948959E-05,14.445,0,0.963,-4.33051E-05,14.445,0
0.9639,6.478981E-05,14.4585,0,0.9639,-6.311131E-05,14.4585,0
0.9648,4.263371E-05,14.472,0,0.9648,0,14.472,0
0.9657,-1.242084E-05,14.4855,0,0.9657,2.987716E-05,14.4855,0
0.9666,-3.356985E-07,14.499,0,0.9666,-3.860533E-05,14.499,0
0.9675,7.385367E-06,14.5125,0,0.9675,2.349889E-06,14.5125,0
0.9684,3.356985E-07,14.526,0,0.9684,3.390555E-05,14.526,0
0.9693,-1.477073E-05,14.5395,0,0.9693,5.069047E-05,14.5395,0
0.9702,1.174945E-05,14.553,0,0.9702,4.666209E-05,14.553,0
0.9711,2.014191E-05,14.5665,0,0.9711,3.121996E-05,14.5665,0
0.972,-3.424125E-05,14.58,0,0.972,-2.316319E-05,14.58,0
0.9729,-3.356985E-05,14.5935,0,0.9729,-6.143282E-05,14.5935,0
0.9738,1.678492E-06,14.607,0,0.9738,-0.0001366293,14.607,0
0.9747,-1.913481E-05,14.6205,0,0.9747,-0.0001121233,14.6205,0
0.9756,-2.18204E-05,14.634,0,0.9756,-2.081331E-05,14.634,0
0.9765,-3.256275E-05,14.6475,0,0.9765,-3.826963E-05,14.6475,0
0.9774,3.524834E-05,14.661,0,0.9774,-3.591974E-05,14.661,0
0.9783,6.210422E-05,14.6745,0,0.9783,1.141375E-05,14.6745,0
0.9792,2.987716E-05,14.688,0,0.9792,2.920577E-05,14.688,0
0.9801,2.1149E-05,14.7015,0,0.9801,1.040665E-05,14.7015,0
0.981,2.349889E-05,14.715,0,0.981,0.0001030594,14.715,0
0.9819,2.18204E-05,14.7285,0,0.9819,6.210422E-05,14.7285,0
0.9828,3.021286E-06,14.742,0,0.9828,-2.719158E-05,14.742,0
0.9837,-2.18204E-05,14.7555,0,0.9837,-6.344701E-05,14.7555,0
0.9846,-3.961242E-05,14.769,0,0.9846,-2.316319E-05,14.769,0
0.9855,1.007095E-06,14.7825,0,0.9855,-3.356985E-07,14.7825,0
0.9864,5.035477E-06,14.796,0,0.9864,1.577783E-05,14.796,0
0.9873,1.812772E-05,14.8095,0,0.9873,-2.14847E-05,14.8095,0
0.9882,1.846342E-05,14.823,0,0.9882,-2.450599E-05,14.823,0
0.9891,-6.51255E-05,14.8365,0,0.9891,-5.136187E-05,14.8365,0
0.99,-8.157473E-05,14.85,0,0.99,-9.600977E-05,14.85,0
0.9909,-3.356985E-05,14.8635,0,0.9909,-7.888914E-05,14.8635,0
0.9918,-5.740444E-05,14.877,0,0.9918,-3.524834E-05,14.877,0
0.9927,-4.867628E-05,14.8905,0,0.9927,-2.450599E-05,14.8905,0
0.9936,-6.378271E-06,14.904,0,0.9936,-3.558404E-05,14.904,0
0.9945,7.721065E-06,14.9175,0,0.9945,6.378271E-06,14.9175,0
0.9954,-3.793393E-05,14.931,0,0.9954,-4.699779E-06,14.931,0
0.9963,-3.726253E-05,14.9445,0,0.9963,-5.471885E-05,14.9445,0
0.9972,-6.378271E-06,14.958,0,0.9972,-4.901198E-05,14.958,0
0.9981,-3.121996E-05,14.9715,0,0.9981,-1.174945E-05,14.9715,0
0.999,-2.618448E-05,14.985,0,0.999,-1.342794E-05,14.985,0
0.9999,5.035477E-06,14.9985,0,0.9999,9.063859E-06,14.9985,0
1.0008,6.378271E-06,15.012,0,1.0008,-4.36408E-06,15.012,0
1.0017,3.591974E-05,15.0255,0,1.0017,8.728161E-06,15.0255,0
1.0026,1.544213E-05,15.039,0,1.0026,4.53193E-05,15.039,0
1.0035,-2.316319E-05,15.0525,0,1.0035,2.18204E-05,15.0525,0
1.0044,-3.692683E-06,15.066,0,1.0044,-2.450599E-05,15.066,0
1.0053,-3.189136E-05,15.0795,0,1.0053,-3.121996E-05,15.0795,0
1.0062,-1.107805E-05,15.093,0,1.0062,-2.618448E-05,15.093,0
1.0071,-3.356985E-07,15.1065,0,1.0071,-3.021286E-05,15.1065,0
1.008,-5.706874E-06,15.12,0,1.008,-8.560311E-05,15.12,0
1.0089,8.560311E-05,15.1335,0,1.0089,-8.761731E-05,15.1335,0
1.0098,6.143282E-05,15.147,0,1.0098,-8.123904E-05,15.147,0
1.0107,2.24918E-05,15.1605,0,1.0107,-5.304036E-05,15.1605,0
1.0116,-2.349889E-05,15.174,0,1.0116,-2.551309E-05,15.174,0
1.0125,-5.740444E-05,15.1875,0,1.0125,-3.927672E-05,15.1875,0
1.0134,-4.632639E-05,15.201,0,1.0134,-3.692683E-06,15.201,0
1.0143,-2.349889E-05,15.2145,0,1.0143,-1.577783E-05,15.2145,0
1.0152,1.712062E-05,15.228,0,1.0152,-3.356985E-07,15.228,0
1.0161,-2.18204E-05,15.2415,0,1.0161,2.349889E-06,15.2415,0
1.017,-3.390555E-05,15.255,0,1.017,-1.443504E-05,15.255,0
1.0179,2.014191E-05,15.2685,0,1.0179,-2.584878E-05,15.2685,0
1.0188,-1.544213E-05,15.282,0,1.0188,1.678492E-05,15.282,0
1.0197,-3.994812E-05,15.2955,0,1.0197,6.042573E-06,15.2955,0
1.0206,-7.687495E-05,15.309,0,1.0206,-4.46479E-05,15.309,0
1.0215,-4.666209E-05,15.3225,0,1.0215,9.063859E-06,15.3225,0
1.0224,3.356985E-07,15.336,0,1.0224,2.551309E-05,15.336,0
1.0233,1.107805E-05,15.3495,0,1.0233,-1.745632E-05,15.3495,0
1.0242,-1.342794E-05,15.363,0,1.0242,1.040665E-05,15.363,0
1.0251,9.735256E-06,15.3765,0,1.0251,4.733349E-05,15.3765,0
1.026,3.558404E-05,15.39,0,1.026,1.712062E-05,15.39,0
1.0269,1.544213E-05,15.4035,0,1.0269,-2.349889E-06,15.4035,0
1.0278,-1.107805E-05,15.417,0,1.0278,-5.505455E-05,15.417,0
1.0287,-4.934768E-05,15.4305,0,1.0287,-6.74754E-05,15.4305,0
1.0296,-1.107805E-05,15.444,0,1.0296,-8.392462E-06,15.444,0
1.0305,2.719158E-05,15.4575,0,1.0305,1.007095E-06,15.4575,0
1.0314,2.316319E-05,15.471,0,1.0314,6.378271E-06,15.471,0
1.0323,1.443504E-05,15.4845,0,1.0323,3.323415E-05,15.4845,0
1.0332,1.745632E-05,15.498,0,1.0332,2.047761E-05,15.498,0
1.0341,2.349889E-06,15.5115,0,1.0341,-3.826963E-05,15.5115,0
1.035,1.242084E-05,15.525,0,1.035,-1.846342E-05,15.525,0
1.0359,7.049668E-06,15.5385,0,1.0359,-5.270466E-05,15.5385,0
1.0368,-2.349889E-06,15.552,0,1.0368,-8.493171E-05,15.552,0
1.0377,3.356985E-07,15.5655,0,1.0377,-8.291753E-05,15.5655,0
1.0386,-4.867628E-05,15.579,0,1.0386,-4.46479E-05,15.579,0
1.0395,-2.584878E-05,15.5925,0,1.0395,-4.699779E-06,15.5925,0
1.0404,4.36408E-06,15.606,0,1.0404,-1.007095E-06,15.606,0
1.0413,0,15.6195,0,1.0413,-4.33051E-05,15.6195,0
1.0422,-1.107805E-05,15.633,0,1.0422,-4.666209E-05,15.633,0
1.0431,-1.812772E-05,15.6465,0,1.0431,-1.007095E-06,15.6465,0
1.044,-2.618448E-05,15.66,0,1.044,-2.719158E-05,15.66,0
1.0449,-1.174945E-05,15.6735,0,1.0449,-4.229801E-05,15.6735,0
1.0458,-1.443504E-05,15.687,0,1.0458,1.174945E-05,15.687,0
1.0467,1.745632E-05,15.7005,0,1.0467,2.1149E-05,15.7005,0
1.0476,-5.035477E-06,15.714,0,1.0476,-2.920577E-05,15.714,0
1.0485,-5.136187E-05,15.7275,0,1.0485,8.056763E-06,15.7275,0
1.0494,1.779202E-05,15.741,0,1.0494,4.061952E-05,15.741,0
1.0503,3.054856E-05,15.7545,0,1.0503,-3.021286E-06,15.7545,0
1.0512,-7.049668E-06,15.768,0,1.0512,-9.063859E-06,15.768,0
1.0521,-8.392462E-06,15.7815,0,1.0521,-1.712062E-05,15.7815,0
1.053,1.644922E-05,15.795,0,1.053,-7.486076E-05,15.795,0
1.0539,2.652018E-05,15.8085,0,1.0539,-8.526741E-05,15.8085,0
1.0548,1.040665E-05,15.822,0,1.0548,-4.53193E-05,15.822,0
1.0557,-1.846342E-05,15.8355,0,1.0557,-1.913481E-05,15.8355,0
1.0566,-5.371176E-05,15.849,0,1.0566,-2.450599E-05,15.849,0
1.0575,-5.606165E-05,15.8625,0,1.0575,1.007095E-06,15.8625,0
1.0584,-2.081331E-05,15.876,0,1.0584,-2.21561E-05,15.876,0
1.0593,-2.618448E-05,15.8895,0,1.0593,-3.625543E-05,15.8895,0
1.0602,4.36408E-06,15.903,0,1.0602,-5.404745E-05,15.903,0
1.0611,4.599069E-05,15.9165,0,1.0611,-9.802396E-05,15.9165,0
1.062,4.901198E-05,15.93,0,1.062,-2.24918E-05,15.93,0
1.0629,5.270466E-05,15.9435,0,1.0629,9.231708E-05,15.9435,0
1.0638,2.920577E-05,15.957,0,1.0638,0.0001171588,15.957,0
1.0647,1.712062E-05,15.9705,0,1.0647,2.786297E-05,15.9705,0
1.0656,-5.001907E-05,15.984,0,1.0656,6.713969E-06,15.984,0
1.0665,-1.242084E-05,15.9975,0,1.0665,-1.107805E-05,15.9975,0
1.0674,9.063859E-06,16.011,0,1.0674,-1.812772E-05,16.011,0
1.0683,-1.678492E-05,16.0245,0,1.0683,-5.069047E-05,16.0245,0
1.0692,-2.24918E-05,16.038,0,1.0692,-2.719158E-05,16.038,0
1.0701,-4.733349E-05,16.0515,0,1.0701,-2.685588E-06,16.0515,0
1.071,-4.599069E-05,16.065,0,1.071,-3.524834E-05,16.065,0
1.0719,-3.121996E-05,16.0785,0,1.0719,-4.061952E-05,16.0785,0
1.0728,-1.040665E-05,16.092,0,1.0728,2.685588E-06,16.092,0
1.0737,-3.256275E-05,16.1055,0,1.0737,-2.24918E-05,16.1055,0
1.0746,-1.812772E-05,16.119,0,1.0746,-5.941863E-05,16.119,0
1.0755,4.36408E-06,16.1325,0,1.0755,6.378271E-06,16.1325,0
1.0764,-2.24918E-05,16.146,0,1.0764,-1.913481E-05,16.146,0
1.0773,-3.021286E-05,16.1595,0,1.0773,-5.270466E-05,16.1595,0
1.0782,6.378271E-06,16.173,0,1.0782,-3.961242E-05,16.173,0
1.0791,-9.735256E-06,16.1865,0,1.0791,-1.913481E-05,16.1865,0
1.08,7.721065E-06,16.2,0,1.08,-4.599069E-05,16.2,0
1.0809,1.846342E-05,16.2135,0,1.0809,-7.116808E-05,16.2135,0
1.0818,1.913481E-05,16.227,0,1.0818,-7.553216E-05,16.227,0
1.0827,3.121996E-05,16.2405,0,1.0827,-4.599069E-05,16.2405,0
1.0836,4.632639E-05,16.254,0,1.0836,-2.987716E-05,16.254,0
1.0845,4.095522E-05,16.2675,0,1.0845,-2.383459E-05,16.2675,0
1.0854,-6.378271E-05,16.281,0,1.0854,1.376364E-05,16.281,0
1.0863,-0.0001262226,16.2945,0,1.0863,2.24918E-05,16.2945,0
1.0872,-4.599069E-05,16.308,0,1.0872,1.577783E-05,16.308,0
1.0881,-3.457694E-05,16.3215,0,1.0881,-3.189136E-05,16.3215,0
1.089,-3.625543E-05,16.335,0,1.089,3.692683E-06,16.335,0
1.0899,6.378271E-06,16.3485,0,1.0899,1.174945E-05,16.3485,0
1.0908,3.692683E-05,16.362,0,1.0908,-3.524834E-05,16.362,0
1.0917,3.356985E-06,16.3755,0,1.0917,-4.565499E-05,16.3755,0
1.0926,-7.351797E-05,16.389,0,1.0926,-1.913481E-05,16.389,0
1.0935,-2.887007E-05,16.4025,0,1.0935,-1.208515E-05,16.4025,0
1.0944,-8.056763E-06,16.416,0,1.0944,-3.524834E-05,16.416,0
1.0953,2.349889E-06,16.4295,0,1.0953,-7.486076E-05,16.4295,0
1.0962,2.1149E-05,16.443,0,1.0962,-4.934768E-05,16.443,0
1.0971,4.162661E-05,16.4565,0,1.0971,-1.510643E-05,16.4565,0
1.098,3.457694E-05,16.47,0,1.098,-5.673304E-05,16.47,0
1.0989,4.028382E-06,16.4835,0,1.0989,-6.243992E-05,16.4835,0
1.0998,-3.121996E-05,16.497,0,1.0998,1.712062E-05,16.497,0
1.1007,-1.678492E-05,16.5105,0,1.1007,3.692683E-05,16.5105,0
1.1016,-1.678492E-05,16.524,0,1.1016,7.721065E-06,16.524,0
1.1025,-1.174945E-05,16.5375,0,1.1025,5.639734E-05,16.5375,0
1.1034,-2.014191E-05,16.551,0,1.1034,7.486076E-05,16.551,0
1.1043,-6.009003E-05,16.5645,0,1.1043,-4.36408E-06,16.5645,0
1.1052,-4.33051E-05,16.578,0,1.1052,-1.779202E-05,16.578,0
1.1061,-7.183947E-05,16.5915,0,1.1061,-5.706874E-06,16.5915,0
1.107,-3.826963E-05,16.605,0,1.107,-2.316319E-05,16.605,0
1.1079,3.692683E-05,16.6185,0,1.1079,-1.409934E-05,16.6185,0
1.1088,3.323415E-05,16.632,0,1.1088,-2.853437E-05,16.632,0
1.1097,4.565499E-05,16.6455,0,1.1097,-7.385367E-06,16.6455,0
1.1106,5.035477E-06,16.659,0,1.1106,1.040665E-05,16.659,0
1.1115,-2.920577E-05,16.6725,0,1.1115,-1.242084E-05,16.6725,0
1.1124,-1.007095E-06,16.686,0,1.1124,-3.524834E-05,16.686,0
1.1133,-5.404745E-05,16.6995,0,1.1133,-3.390555E-05,16.6995,0
1.1142,-3.121996E-05,16.713,0,1.1142,-4.39765E-05,16.713,0
1.1151,1.342794E-06,16.7265,0,1.1151,-6.042573E-05,16.7265,0
1.116,5.740444E-05,16.74,0,1.116,-9.735256E-06,16.74,0
1.1169,9.701686E-05,16.7535,0,1.1169,2.920577E-05,16.7535,0
1.1178,6.143282E-05,16.767,0,1.1178,-7.049668E-06,16.767,0
1.1187,5.471885E-05,16.7805,0,1.1187,-4.800488E-05,16.7805,0
1.1196,2.853437E-05,16.794,0,1.1196,-1.107805E-05,16.794,0
1.1205,1.443504E-05,16.8075,0,1.1205,-7.385367E-06,16.8075,0
1.1214,3.826963E-05,16.821,0,1.1214,-2.383459E-05,16.821,0
1.1223,-2.450599E-05,16.8345,0,1.1223,-4.901198E-05,16.8345,0
1.1232,-4.733349E-05,16.848,0,1.1232,-1.107805E-05,16.848,0
1.1241,-6.076142E-05,16.8615,0,1.1241,-3.692683E-06,16.8615,0
1.125,-6.210422E-05,16.875,0,1.125,-2.551309E-05,16.875,0
1.1259,-4.39765E-05,16.8885,0,1.1259,-3.491264E-05,16.8885,0
1.1268,-5.069047E-05,16.902,0,1.1268,2.584878E-05,16.902,0
1.1277,-4.061952E-05,16.9155,0,1.1277,-1.107805E-05,16.9155,0
1.1286,-1.074235E-05,16.929,0,1.1286,-3.256275E-05,16.929,0
1.1295,-2.047761E-05,16.9425,0,1.1295,4.162661E-05,16.9425,0
1.1304,2.887007E-05,16.956,0,1.1304,2.618448E-05,16.956,0
1.1313,2.584878E-05,16.9695,0,1.1313,-6.009003E-05,16.9695,0
1.1322,2.920577E-05,16.983,0,1.1322,-9.198138E-05,16.983,0
1.1331,5.337606E-05,16.9965,0,1.1331,-3.121996E-05,16.9965,0
1.134,3.524834E-05,17.01,0,1.134,-3.457694E-05,17.01,0
1.1349,-1.678492E-05,17.0235,0,1.1349,2.24918E-05,17.0235,0
1.1358,-2.417029E-05,17.037,0,1.1358,-5.035477E-05,17.037,0
1.1367,-1.644922E-05,17.0505,0,1.1367,-0.0001339437,17.0505,0
1.1376,-4.263371E-05,17.064,0,1.1376,-6.176852E-05,17.064,0
1.1385,-7.620356E-05,17.0775,0,1.1385,-3.860533E-05,17.0775,0
1.1394,-7.049668E-05,17.091,0,1.1394,-4.36408E-05,17.091,0
1.1403,-5.471885E-05,17.1045,0,1.1403,1.980621E-05,17.1045,0
1.1412,-3.054856E-05,17.118,0,1.1412,3.021286E-05,17.118,0
1.1421,-2.719158E-05,17.1315,0,1.1421,-5.236896E-05,17.1315,0
1.143,-5.706874E-06,17.145,0,1.143,-3.860533E-05,17.145,0
1.1439,2.1149E-05,17.1585,0,1.1439,-1.208515E-05,17.1585,0
1.1448,3.323415E-05,17.172,0,1.1448,-2.484169E-05,17.172,0
1.1457,1.913481E-05,17.1855,0,1.1457,-2.920577E-05,17.1855,0
1.1466,-1.477073E-05,17.199,0,1.1466,-3.692683E-06,17.199,0
1.1475,-1.040665E-05,17.2125,0,1.1475,2.081331E-05,17.2125,0
1.1484,4.36408E-06,17.226,0,1.1484,2.517739E-05,17.226,0
1.1493,6.378271E-06,17.2395,0,1.1493,-3.692683E-06,17.2395,0
1.1502,6.378271E-06,17.253,0,1.1502,8.056763E-06,17.253,0
1.1511,-5.706874E-06,17.2665,0,1.1511,1.309224E-05,17.2665,0
1.152,-1.208515E-05,17.28,0,1.152,-4.33051E-05,17.28,0
1.1529,-2.1149E-05,17.2935,0,1.1529,-6.042573E-05,17.2935,0
1.1538,-2.18204E-05,17.307,0,1.1538,-1.409934E-05,17.307,0
1.1547,-1.242084E-05,17.3205,0,1.1547,-1.174945E-05,17.3205,0
1.1556,-3.793393E-05,17.334,0,1.1556,-3.860533E-05,17.334,0
1.1565,-1.342794E-05,17.3475,0,1.1565,2.719158E-05,17.3475,0
1.1574,2.383459E-05,17.361,0,1.1574,1.846342E-05,17.361,0
1.1583,4.061952E-05,17.3745,0,1.1583,-3.054856E-05,17.3745,0
1.1592,9.063859E-05,17.388,0,1.1592,-1.242084E-05,17.388,0
1.1601,2.047761E-05,17.4015,0,1.1601,-1.678492E-06,17.4015,0
1.161,-3.524834E-05,17.415,0,1.161,-1.242084E-05,17.415,0
1.1619,-2.987716E-05,17.4285,0,1.1619,-8.392462E-06,17.4285,0
1.1628,-7.721065E-06,17.442,0,1.1628,-1.409934E-05,17.442,0
1.1637,1.040665E-05,17.4555,0,1.1637,-1.007095E-06,17.4555,0
1.1646,8.392462E-06,17.469,0,1.1646,3.356985E-07,17.469,0
1.1655,4.39765E-05,17.4825,0,1.1655,-2.21561E-05,17.4825,0
1.1664,4.632639E-05,17.496,0,1.1664,-3.927672E-05,17.496,0
1.1673,3.323415E-05,17.5095,0,1.1673,-2.18204E-05,17.5095,0
1.1682,3.860533E-05,17.523,0,1.1682,-4.36408E-05,17.523,0
1.1691,1.544213E-05,17.5365,0,1.1691,-3.961242E-05,17.5365,0
1.17,-1.477073E-05,17.55,0,1.17,-2.383459E-05,17.55,0
1.1709,-6.143282E-05,17.5635,0,1.1709,-1.477073E-05,17.5635,0
1.1718,-5.270466E-05,17.577,0,1.1718,-5.337606E-05,17.577,0
1.1727,-7.620356E-05,17.5905,0,1.1727,-6.176852E-05,17.5905,0
1.1736,-8.258183E-05,17.604,0,1.1736,-2.584878E-05,17.604,0
1.1745,-3.591974E-05,17.6175,0,1.1745,-1.779202E-05,17.6175,0
1.1754,-3.256275E-05,17.631,0,1.1754,-1.275654E-05,17.631,0
1.1763,-2.517739E-05,17.6445,0,1.1763,-3.759823E-05,17.6445,0
1.1772,-5.035477E-06,17.658,0,1.1772,-2.551309E-05,17.658,0
1.1781,1.107805E-05,17.6715,0,1.1781,1.577783E-05,17.6715,0
1.179,-6.713969E-07,17.685,0,1.179,-6.378271E-06,17.685,0
1.1799,1.174945E-05,17.6985,0,1.1799,-1.980621E-05,17.6985,0
1.1808,2.987716E-05,17.712,0,1.1808,2.081331E-05,17.712,0
1.1817,-3.155566E-05,17.7255,0,1.1817,-4.36408E-06,17.7255,0
1.1826,-5.673304E-05,17.739,0,1.1826,-2.853437E-05,17.739,0
1.1835,-5.706874E-06,17.7525,0,1.1835,9.063859E-06,17.7525,0
1.1844,-3.356985E-07,17.766,0,1.1844,-2.316319E-05,17.766,0
1.1853,-1.577783E-05,17.7795,0,1.1853,-6.344701E-05,17.7795,0
1.1862,4.196231E-05,17.793,0,1.1862,-4.33051E-05,17.793,0
1.1871,-2.786297E-05,17.8065,0,1.1871,-5.035477E-06,17.8065,0
1.188,1.040665E-05,17.82,0,1.188,1.678492E-06,17.82,0
1.1889,8.92958E-05,17.8335,0,1.1889,6.042573E-06,17.8335,0
1.1898,-3.894102E-05,17.847,0,1.1898,-8.560311E-05,17.847,0
1.1907,-4.129091E-05,17.8605,0,1.1907,-3.424125E-05,17.8605,0
1.1916,3.826963E-05,17.874,0,1.1916,1.342794E-06,17.874,0
1.1925,2.920577E-05,17.8875,0,1.1925,-2.987716E-05,17.8875,0
1.1934,-4.36408E-06,17.901,0,1.1934,-4.901198E-05,17.901,0
1.1943,-7.284657E-05,17.9145,0,1.1943,-7.721065E-06,17.9145,0
1.1952,-6.6804E-05,17.928,0,1.1952,4.36408E-06,17.928,0
1.1961,2.081331E-05,17.9415,0,1.1961,-4.095522E-05,17.9415,0
1.197,2.786297E-05,17.955,0,1.197,-1.141375E-05,17.955,0
1.1979,2.1149E-05,17.9685,0,1.1979,-3.356985E-07,17.9685,0
1.1988,1.141375E-05,17.982,0,1.1988,-9.399558E-06,17.982,0
1.1997,-6.881819E-05,17.9955,0,1.1997,-3.524834E-05,17.9955,0
1.2006,-3.894102E-05,18.009,0,1.2006,5.706874E-06,18.009,0
1.2015,-6.411841E-05,18.0225,0,1.2015,-1.678492E-06,18.0225,0
1.2024,-0.0001013809,18.036,0,1.2024,-3.121996E-05,18.036,0
1.2033,-1.980621E-05,18.0495,0,1.2033,-5.069047E-05,18.0495,0
1.2042,-1.510643E-05,18.063,0,1.2042,-1.913481E-05,18.063,0
1.2051,-3.021286E-05,18.0765,0,1.2051,2.349889E-06,18.0765,0
1.206,-6.814679E-05,18.09,0,1.206,-9.735256E-06,18.09,0
1.2069,-3.826963E-05,18.1035,0,1.2069,1.107805E-05,18.1035,0
1.2078,-2.349889E-05,18.117,0,1.2078,1.040665E-05,18.117,0
1.2087,-5.035477E-06,18.1305,0,1.2087,-3.155566E-05,18.1305,0
1.2096,7.653925E-05,18.144,0,1.2096,-5.438316E-05,18.144,0
1.2105,5.102617E-05,18.1575,0,1.2105,-8.728161E-06,18.1575,0
1.2114,3.121996E-05,18.171,0,1.2114,1.242084E-05,18.171,0
1.2123,5.673304E-05,18.1845,0,1.2123,-2.618448E-05,18.1845,0
1.2132,-1.846342E-05,18.198,0,1.2132,3.021286E-06,18.198,0
1.2141,-3.659113E-05,18.2115,0,1.2141,2.920577E-05,18.2115,0
1.215,-1.275654E-05,18.225,0,1.215,-5.706874E-06,18.225,0
1.2159,-3.826963E-05,18.2385,0,1.2159,-3.659113E-05,18.2385,0
1.2168,-2.450599E-05,18.252,0,1.2168,-4.39765E-05,18.252,0
1.2177,5.471885E-05,18.2655,0,1.2177,-1.913481E-05,18.2655,0
1.2186,5.874724E-05,18.279,0,1.2186,-1.779202E-05,18.279,0
1.2195,4.36408E-06,18.2925,0,1.2195,-6.109713E-05,18.2925,0
1.2204,1.577783E-05,18.306,0,1.2204,-5.841154E-05,18.306,0
1.2213,-5.035477E-06,18.3195,0,1.2213,-8.392462E-06,18.3195,0
1.2222,-4.766919E-05,18.333,0,1.2222,7.721065E-06,18.333,0
1.2231,-2.719158E-05,18.3465,0,1.2231,2.1149E-05,18.3465,0
1.224,-3.356985E-07,18.36,0,1.224,7.721065E-06,18.36,0
1.2249,-1.409934E-05,18.3735,0,1.2249,-5.035477E-06,18.3735,0
1.2258,-7.385367E-06,18.387,0,1.2258,-4.733349E-05,18.387,0
1.2267,3.860533E-05,18.4005,0,1.2267,-3.692683E-06,18.4005,0
1.2276,2.752728E-05,18.414,0,1.2276,-1.510643E-05,18.414,0
1.2285,1.208515E-05,18.4275,0,1.2285,-4.901198E-05,18.4275,0
1.2294,1.510643E-05,18.441,0,1.2294,-7.251087E-05,18.441,0
1.2303,3.121996E-05,18.4545,0,1.2303,-3.927672E-05,18.4545,0
1.2312,3.155566E-05,18.468,0,1.2312,3.625543E-05,18.468,0
1.2321,4.599069E-05,18.4815,0,1.2321,-1.644922E-05,18.4815,0
1.233,2.1149E-05,18.495,0,1.233,2.450599E-05,18.495,0
1.2339,-2.349889E-06,18.5085,0,1.2339,-2.383459E-05,18.5085,0
1.2348,-1.443504E-05,18.522,0,1.2348,-5.404745E-05,18.522,0
1.2357,-1.644922E-05,18.5355,0,1.2357,-4.46479E-05,18.5355,0
1.2366,-1.510643E-05,18.549,0,1.2366,-4.968337E-05,18.549,0
1.2375,-1.242084E-05,18.5625,0,1.2375,-1.443504E-05,18.5625,0
1.2384,-2.18204E-05,18.576,0,1.2384,-6.378271E-06,18.576,0
1.2393,-5.606165E-05,18.5895,0,1.2393,-3.659113E-05,18.5895,0
1.2402,-1.174945E-05,18.603,0,1.2402,-2.047761E-05,18.603,0
1.2411,-2.853437E-05,18.6165,0,1.2411,-2.652018E-05,18.6165,0
1.242,-4.39765E-05,18.63,0,1.242,-5.404745E-05,18.63,0
1.2429,-4.061952E-05,18.6435,0,1.2429,-2.853437E-05,18.6435,0
1.2438,7.721065E-06,18.657,0,1.2438,-2.316319E-05,18.657,0
1.2447,-6.713969E-07,18.6705,0,1.2447,-1.678492E-06,18.6705,0
1.2456,-3.356985E-05,18.684,0,1.2456,3.591974E-05,18.684,0
1.2465,-3.356985E-06,18.6975,0,1.2465,2.752728E-05,18.6975,0
1.2474,1.577783E-05,18.711,0,1.2474,-5.706874E-06,18.711,0
1.2483,-2.18204E-05,18.7245,0,1.2483,2.316319E-05,18.7245,0
1.2492,-4.061952E-05,18.738,0,1.2492,1.107805E-05,18.738,0
1.2501,2.450599E-05,18.7515,0,1.2501,-2.316319E-05,18.7515,0
1.251,-2.618448E-05,18.765,0,1.251,-3.088426E-05,18.765,0
1.2519,-4.36408E-05,18.7785,0,1.2519,-2.719158E-05,18.7785,0
1.2528,-3.121996E-05,18.792,0,1.2528,-5.069047E-05,18.792,0
1.2537,-3.424125E-05,18.8055,0,1.2537,-5.874724E-05,18.8055,0
1.2546,-2.584878E-05,18.819,0,1.2546,-4.061952E-05,18.819,0
1.2555,-2.28275E-05,18.8325,0,1.2555,-7.956054E-05,18.8325,0
1.2564,-9.063859E-06,18.846,0,1.2564,-4.867628E-05,18.846,0
1.2573,2.24918E-05,18.8595,0,1.2573,-1.678492E-05,18.8595,0
1.2582,3.927672E-05,18.873,0,1.2582,-1.577783E-05,18.873,0
1.2591,-2.081331E-05,18.8865,0,1.2591,-3.826963E-05,18.8865,0
1.26,-2.24918E-05,18.9,0,1.26,-4.196231E-05,18.9,0
1.2609,2.081331E-05,18.9135,0,1.2609,-3.726253E-05,18.9135,0
1.2618,-2.517739E-05,18.927,0,1.2618,4.699779E-06,18.927,0
1.2627,-4.53193E-05,18.9405,0,1.2627,-2.18204E-05,18.9405,0
1.2636,-3.692683E-06,18.954,0,1.2636,-5.673304E-05,18.954,0
1.2645,9.063859E-06,18.9675,0,1.2645,6.713969E-07,18.9675,0
1.2654,-7.049668E-06,18.981,0,1.2654,1.644922E-05,18.981,0
1.2663,-6.713969E-06,18.9945,0,1.2663,-3.323415E-05,18.9945,0
1.2672,2.24918E-05,19.008,0,1.2672,-2.719158E-05,19.008,0
1.2681,2.517739E-05,19.0215,0,1.2681,-3.356985E-07,19.0215,0
1.269,1.947051E-05,19.035,0,1.269,-7.721065E-06,19.035,0
1.2699,3.323415E-05,19.0485,0,1.2699,-4.699779E-06,19.0485,0
1.2708,3.994812E-05,19.062,0,1.2708,-2.014191E-05,19.062,0
1.2717,4.800488E-05,19.0755,0,1.2717,-7.385367E-06,19.0755,0
1.2726,5.706874E-06,19.089,0,1.2726,4.36408E-06,19.089,0
1.2735,-5.539025E-05,19.1025,0,1.2735,-3.256275E-05,19.1025,0
1.2744,-6.109713E-05,19.116,0,1.2744,-2.853437E-05,19.116,0
1.2753,-7.318227E-05,19.1295,0,1.2753,1.913481E-05,19.1295,0
1.2762,-4.867628E-05,19.143,0,1.2762,1.510643E-05,19.143,0
1.2771,-4.39765E-05,19.1565,0,1.2771,-1.678492E-05,19.1565,0
1.278,-2.450599E-05,19.17,0,1.278,3.356985E-07,19.17,0
1.2789,6.378271E-06,19.1835,0,1.2789,3.356985E-07,19.1835,0
1.2798,4.766919E-05,19.197,0,1.2798,-2.18204E-05,19.197,0
1.2807,5.673304E-05,19.2105,0,1.2807,-4.36408E-06,19.2105,0
1.2816,4.028382E-05,19.224,0,1.2816,2.349889E-06,19.224,0
1.2825,1.712062E-05,19.2375,0,1.2825,5.035477E-06,19.2375,0
1.2834,6.713969E-07,19.251,0,1.2834,-8.392462E-06,19.251,0
1.2843,2.349889E-06,19.2645,0,1.2843,-3.390555E-05,19.2645,0
1.2852,3.457694E-05,19.278,0,1.2852,-7.049668E-06,19.278,0
1.2861,1.644922E-05,19.2915,0,1.2861,3.021286E-06,19.2915,0
1.287,-3.625543E-05,19.305,0,1.287,-2.1149E-05,19.305,0
1.2879,-4.666209E-05,19.3185,0,1.2879,-3.558404E-05,19.3185,0
1.2888,-3.390555E-05,19.332,0,1.2888,-9.735256E-06,19.332,0
1.2897,-1.443504E-05,19.3455,0,1.2897,-2.081331E-05,19.3455,0
1.2906,-1.174945E-05,19.359,0,1.2906,-4.061952E-05,19.359,0
1.2915,-4.33051E-05,19.3725,0,1.2915,-1.309224E-05,19.3725,0
1.2924,-5.337606E-05,19.386,0,1.2924,-3.021286E-05,19.386,0
1.2933,-3.121996E-05,19.3995,0,1.2933,-5.438316E-05,19.3995,0
1.2942,-2.450599E-05,19.413,0,1.2942,-5.404745E-05,19.413,0
1.2951,-7.016098E-05,19.4265,0,1.2951,-3.021286E-05,19.4265,0
1.296,-4.46479E-05,19.44,0,1.296,-6.009003E-05,19.44,0
1.2969,2.014191E-06,19.4535,0,1.2969,-6.042573E-05,19.4535,0
1.2978,1.409934E-05,19.467,0,1.2978,-2.786297E-05,19.467,0
1.2987,1.913481E-05,19.4805,0,1.2987,-1.141375E-05,19.4805,0
1.2996,3.726253E-05,19.494,0,1.2996,6.042573E-06,19.494,0
1.3005,4.36408E-06,19.5075,0,1.3005,-2.417029E-05,19.5075,0
1.3014,1.141375E-05,19.521,0,1.3014,-3.994812E-05,19.521,0
1.3023,4.699779E-06,19.5345,0,1.3023,2.349889E-06,19.5345,0
1.3032,-3.692683E-06,19.548,0,1.3032,-3.692683E-06,19.548,0
1.3041,-7.049668E-06,19.5615,0,1.3041,-6.411841E-05,19.5615,0
1.305,-3.054856E-05,19.575,0,1.305,-2.383459E-05,19.575,0
1.3059,-5.404745E-05,19.5885,0,1.3059,5.706874E-06,19.5885,0
1.3068,-1.779202E-05,19.602,0,1.3068,-1.644922E-05,19.602,0
1.3077,3.860533E-05,19.6155,0,1.3077,-1.242084E-05,19.6155,0
1.3086,1.879912E-05,19.629,0,1.3086,1.678492E-06,19.629,0
1.3095,-8.392462E-06,19.6425,0,1.3095,5.706874E-06,19.6425,0
1.3104,4.36408E-06,19.656,0,1.3104,2.18204E-05,19.656,0
1.3113,1.712062E-05,19.6695,0,1.3113,-1.477073E-05,19.6695,0
1.3122,-2.28275E-05,19.683,0,1.3122,5.706874E-06,19.683,0
1.3131,-2.551309E-05,19.6965,0,1.3131,-5.035477E-06,19.6965,0
1.314,7.385367E-06,19.71,0,1.314,-3.591974E-05,19.71,0
1.3149,2.1149E-05,19.7235,0,1.3149,-4.196231E-05,19.7235,0
1.3158,1.007095E-05,19.737,0,1.3158,-1.007095E-05,19.737,0
1.3167,5.706874E-06,19.7505,0,1.3167,-6.713969E-06,19.7505,0
1.3176,4.39765E-05,19.764,0,1.3176,-2.752728E-05,19.764,0
1.3185,4.129091E-05,19.7775,0,1.3185,-1.007095E-06,19.7775,0
1.3194,-1.376364E-05,19.791,0,1.3194,-2.14847E-05,19.791,0
1.3203,-9.735256E-06,19.8045,0,1.3203,-3.659113E-05,19.8045,0
1.3212,-5.035477E-06,19.818,0,1.3212,-2.081331E-05,19.818,0
1.3221,-5.102617E-05,19.8315,0,1.3221,3.356985E-07,19.8315,0
1.323,-5.539025E-05,19.845,0,1.323,-4.46479E-05,19.845,0
1.3239,-5.404745E-05,19.8585,0,1.3239,-5.539025E-05,19.8585,0
1.3248,-2.719158E-05,19.872,0,1.3248,-4.733349E-05,19.872,0
1.3257,-2.920577E-05,19.8855,0,1.3257,2.517739E-05,19.8855,0
1.3266,-6.009003E-05,19.899,0,1.3266,4.196231E-05,19.899,0
1.3275,-5.236896E-05,19.9125,0,1.3275,-3.323415E-05,19.9125,0
1.3284,-2.18204E-05,19.926,0,1.3284,-5.740444E-05,19.926,0
1.3293,-3.256275E-05,19.9395,0,1.3293,-1.376364E-05,19.9395,0
1.3302,-4.095522E-05,19.953,0,1.3302,-1.309224E-05,19.953,0
1.3311,-1.678492E-05,19.9665,0,1.3311,-5.908293E-05,19.9665,0
1.332,-1.712062E-05,19.98,0,1.332,-3.927672E-05,19.98,0
1.3329,2.1149E-05,19.9935,0,1.3329,3.692683E-06,19.9935,0
1.3338,7.016098E-05,20.007,0,1.3338,-3.356985E-06,20.007,0
1.3347,7.183947E-05,20.0205,0,1.3347,-3.558404E-05,20.0205,0
1.3356,2.18204E-05,20.034,0,1.3356,-3.054856E-05,20.034,0
1.3365,2.517739E-05,20.0475,0,1.3365,-1.309224E-05,20.0475,0
1.3374,3.793393E-05,20.061,0,1.3374,7.721065E-06,20.061,0
1.3383,1.477073E-05,20.0745,0,1.3383,-5.069047E-05,20.0745,0
1.3392,-9.735256E-06,20.088,0,1.3392,-4.263371E-05,20.088,0
1.3401,4.36408E-06,20.1015,0,1.3401,-1.980621E-05,20.1015,0
1.341,-1.242084E-05,20.115,0,1.341,-4.867628E-05,20.115,0
1.3419,-5.706874E-06,20.1285,0,1.3419,-4.666209E-05,20.1285,0
1.3428,1.678492E-06,20.142,0,1.3428,1.644922E-05,20.142,0
1.3437,-1.376364E-05,20.1555,0,1.3437,4.196231E-05,20.1555,0
1.3446,6.713969E-07,20.169,0,1.3446,-1.678492E-05,20.169,0
1.3455,-6.378271E-06,20.1825,0,1.3455,4.028382E-06,20.1825,0
1.3464,-3.021286E-06,20.196,0,1.3464,3.356985E-06,20.196,0
1.3473,-1.846342E-05,20.2095,0,1.3473,-3.625543E-05,20.2095,0
1.3482,-4.800488E-05,20.223,0,1.3482,-1.913481E-05,20.223,0
1.3491,-3.659113E-05,20.2365,0,1.3491,2.786297E-05,20.2365,0
1.35,3.021286E-06,20.25,0,1.35,6.713969E-07,20.25,0
1.3509,-1.376364E-05,20.2635,0,1.3509,-1.409934E-05,20.2635,0
1.3518,-5.035477E-06,20.277,0,1.3518,-2.047761E-05,20.277,0
1.3527,-8.72816E-05,20.2905,0,1.3527,-4.229801E-05,20.2905,0
1.3536,-6.009003E-05,20.304,0,1.3536,-6.78111E-05,20.304,0
1.3545,1.007095E-05,20.3175,0,1.3545,-5.874724E-05,20.3175,0
1.3554,2.887007E-05,20.331,0,1.3554,-3.860533E-05,20.331,0
1.3563,-2.987716E-05,20.3445,0,1.3563,1.678492E-06,20.3445,0
1.3572,-5.706874E-06,20.358,0,1.3572,-1.007095E-06,20.358,0
1.3581,1.544213E-05,20.3715,0,1.3581,-5.539025E-05,20.3715,0
1.359,-2.349889E-06,20.385,0,1.359,-1.846342E-05,20.385,0
1.3599,8.728161E-06,20.3985,0,1.3599,1.678492E-06,20.3985,0
1.3608,-8.728161E-06,20.412,0,1.3608,-3.491264E-05,20.412,0
1.3617,6.378271E-06,20.4255,0,1.3617,-2.887007E-05,20.4255,0
1.3626,1.040665E-05,20.439,0,1.3626,1.577783E-05,20.439,0
1.3635,-7.049668E-06,20.4525,0,1.3635,-2.349889E-06,20.4525,0
1.3644,-1.376364E-05,20.466,0,1.3644,-7.721065E-06,20.466,0
1.3653,3.021286E-06,20.4795,0,1.3653,-3.054856E-05,20.4795,0
1.3662,3.021286E-06,20.493,0,1.3662,-2.685588E-06,20.493,0
1.3671,-9.735256E-06,20.5065,0,1.3671,1.712062E-05,20.5065,0
1.368,-1.678492E-06,20.52,0,1.368,-1.779202E-05,20.52,0
1.3689,3.860533E-05,20.5335,0,1.3689,-2.652018E-05,20.5335,0
1.3698,-1.242084E-05,20.547,0,1.3698,1.342794E-05,20.547,0
1.3707,-4.061952E-05,20.5605,0,1.3707,-1.477073E-05,20.5605,0
1.3716,-1.510643E-05,20.574,0,1.3716,-5.337606E-05,20.574,0
1.3725,-1.107805E-05,20.5875,0,1.3725,-1.745632E-05,20.5875,0
1.3734,-3.860533E-05,20.601,0,1.3734,-1.242084E-05,20.601,0
1.3743,-1.107805E-05,20.6145,0,1.3743,-3.256275E-05,20.6145,0
1.3752,1.477073E-05,20.628,0,1.3752,-8.392462E-06,20.628,0
1.3761,-2.28275E-05,20.6415,0,1.3761,-1.007095E-06,20.6415,0
1.377,-2.417029E-05,20.655,0,1.377,-1.779202E-05,20.655,0
1.3779,8.056763E-06,20.6685,0,1.3779,-2.618448E-05,20.6685,0
1.3788,2.987716E-05,20.682,0,1.3788,-2.920577E-05,20.682,0
1.3797,8.056763E-06,20.6955,0,1.3797,-2.28275E-05,20.6955,0
1.3806,-1.309224E-05,20.709,0,1.3806,-2.1149E-05,20.709,0
1.3815,2.014191E-06,20.7225,0,1.3815,-4.028382E-05,20.7225,0
1.3824,-9.063859E-06,20.736,0,1.3824,-5.001907E-05,20.736,0
1.3833,-2.752728E-05,20.7495,0,1.3833,-3.021286E-06,20.7495,0
1.3842,-6.378271E-06,20.763,0,1.3842,-3.692683E-06,20.763,0
1.3851,2.786297E-05,20.7765,0,1.3851,-4.49836E-05,20.7765,0
1.386,1.040665E-05,20.79,0,1.386,-7.385367E-06,20.79,0
1.3869,1.913481E-05,20.8035,0,1.3869,2.1149E-05,20.8035,0
1.3878,5.706874E-06,20.817,0,1.3878,-3.424125E-05,20.817,0
1.3887,1.712062E-05,20.8305,0,1.3887,-3.390555E-05,20.8305,0
1.3896,-2.081331E-05,20.844,0,1.3896,-3.356985E-07,20.844,0
1.3905,-4.733349E-05,20.8575,0,1.3905,6.378271E-06,20.8575,0
1.3914,-1.846342E-05,20.871,0,1.3914,1.040665E-05,20.871,0
1.3923,8.392462E-06,20.8845,0,1.3923,9.399558E-06,20.8845,0
1.3932,-1.510643E-05,20.898,0,1.3932,2.450599E-05,20.898,0
1.3941,-2.014191E-05,20.9115,0,1.3941,3.659113E-05,20.9115,0
1.395,0,20.925,0,1.395,-5.001907E-05,20.925,0
1.3959,-8.056763E-06,20.9385,0,1.3959,-9.835965E-05,20.9385,0
1.3968,-3.356985E-07,20.952,0,1.3968,-3.659113E-05,20.952,0
1.3977,-1.242084E-05,20.9655,0,1.3977,-5.404745E-05,20.9655,0
1.3986,-1.007095E-06,20.979,0,1.3986,-6.109713E-05,20.979,0
1.3995,3.692683E-06,20.9925,0,1.3995,-2.1149E-05,20.9925,0
1.4004,-2.719158E-05,21.006,0,1.4004,-8.392462E-06,21.006,0
1.4013,-2.517739E-05,21.0195,0,1.4013,-4.53193E-05,21.0195,0
1.4022,-1.779202E-05,21.033,0,1.4022,-2.987716E-05,21.033,0
1.4031,-2.417029E-05,21.0465,0,1.4031,1.208515E-05,21.0465,0
1.404,8.056763E-06,21.06,0,1.404,1.242084E-05,21.06,0
1.4049,-1.611353E-05,21.0735,0,1.4049,7.049668E-06,21.0735,0
1.4058,-5.203327E-05,21.087,0,1.4058,-6.042573E-05,21.087,0
1.4067,-1.309224E-05,21.1005,0,1.4067,-3.726253E-05,21.1005,0
1.4076,-7.721065E-06,21.114,0,1.4076,-1.208515E-05,21.114,0
1.4085,-1.174945E-05,21.1275,0,1.4085,-1.376364E-05,21.1275,0
1.4094,2.517739E-05,21.141,0,1.4094,-2.652018E-05,21.141,0
1.4103,1.007095E-05,21.1545,0,1.4103,2.383459E-05,21.1545,0
1.4112,-4.33051E-05,21.168,0,1.4112,-1.678492E-06,21.168,0
1.4121,-3.021286E-05,21.1815,0,1.4121,-8.056764E-05,21.1815,0
1.413,-4.36408E-06,21.195,0,1.413,-2.047761E-05,21.195,0
1.4139,-9.735256E-06,21.2085,0,1.4139,-1.409934E-05,21.2085,0
1.4148,2.349889E-06,21.222,0,1.4148,-3.692683E-05,21.222,0
1.4157,2.618448E-05,21.2355,0,1.4157,-1.007095E-06,21.2355,0
1.4166,-1.141375E-05,21.249,0,1.4166,-3.692683E-06,21.249,0
1.4175,-4.229801E-05,21.2625,0,1.4175,-5.706874E-06,21.2625,0
1.4184,-2.987716E-05,21.276,0,1.4184,8.728161E-06,21.276,0
1.4193,-2.047761E-05,21.2895,0,1.4193,-3.793393E-05,21.2895,0
1.4202,-5.941863E-05,21.303,0,1.4202,-4.632639E-05,21.303,0
1.4211,-3.289845E-05,21.3165,0,1.4211,-1.544213E-05,21.3165,0
1.422,4.733349E-05,21.33,0,1.422,-4.196231E-05,21.33,0
1.4229,5.606165E-05,21.3435,0,1.4229,-5.069047E-05,21.3435,0
1.4238,1.040665E-05,21.357,0,1.4238,-4.061952E-05,21.357,0
1.4247,1.577783E-05,21.3705,0,1.4247,-5.069047E-05,21.3705,0
1.4256,1.779202E-05,21.384,0,1.4256,-5.941863E-05,21.384,0
1.4265,-1.678492E-05,21.3975,0,1.4265,1.007095E-05,21.3975,0
1.4274,3.021286E-06,21.411,0,1.4274,1.779202E-05,21.411,0
1.4283,1.443504E-05,21.4245,0,1.4283,2.24918E-05,21.4245,0
1.4292,-1.678492E-05,21.438,0,1.4292,2.719158E-05,21.438,0
1.4301,-3.054856E-05,21.4515,0,1.4301,7.721065E-06,21.4515,0
1.431,-2.987716E-05,21.465,0,1.431,-2.18204E-05,21.465,0
1.4319,-2.28275E-05,21.4785,0,1.4319,-1.409934E-05,21.4785,0
1.4328,-2.28275E-05,21.492,0,1.4328,-2.887007E-05,21.492,0
1.4337,3.356985E-07,21.5055,0,1.4337,-2.484169E-05,21.5055,0
1.4346,1.007095E-06,21.519,0,1.4346,-2.719158E-05,21.519,0
1.4355,2.853437E-05,21.5325,0,1.4355,-4.129091E-05,21.5325,0
1.4364,1.309224E-05,21.546,0,1.4364,-6.076142E-05,21.546,0
1.4373,-1.611353E-05,21.5595,0,1.4373,-2.014191E-06,21.5595,0
1.4382,-3.054856E-05,21.573,0,1.4382,-1.980621E-05,21.573,0
1.4391,-1.510643E-05,21.5865,0,1.4391,-2.652018E-05,21.5865,0
1.44,3.356985E-07,21.6,0,1.44,6.143282E-05,21.6,0
1.4409,-1.947051E-05,21.6135,0,1.4409,2.987716E-05,21.6135,0
1.4418,2.18204E-05,21.627,0,1.4418,-1.510643E-05,21.627,0
1.4427,-1.174945E-05,21.6405,0,1.4427,2.349889E-06,21.6405,0
1.4436,-2.316319E-05,21.654,0,1.4436,2.1149E-05,21.654,0
1.4445,-1.376364E-05,21.6675,0,1.4445,-1.510643E-05,21.6675,0
1.4454,1.174945E-05,21.681,0,1.4454,-1.846342E-05,21.681,0
1.4463,-6.713969E-07,21.6945,0,1.4463,-2.920577E-05,21.6945,0
1.4472,-1.040665E-05,21.708,0,1.4472,-2.719158E-05,21.708,0
1.4481,-7.049668E-06,21.7215,0,1.4481,-2.584878E-05,21.7215,0
1.449,-1.846342E-05,21.735,0,1.449,-4.229801E-05,21.735,0
1.4499,2.383459E-05,21.7485,0,1.4499,-5.606165E-05,21.7485,0
1.4508,1.745632E-05,21.762,0,1.4508,-1.913481E-05,21.762,0
1.4517,6.378271E-06,21.7755,0,1.4517,-2.24918E-05,21.7755,0
1.4526,3.591974E-05,21.789,0,1.4526,-4.36408E-05,21.789,0
1.4535,4.36408E-06,21.8025,0,1.4535,-3.356985E-07,21.8025,0
1.4544,-8.728161E-06,21.816,0,1.4544,-3.021286E-06,21.816,0
1.4553,2.349889E-06,21.8295,0,1.4553,-3.927672E-05,21.8295,0
1.4562,-2.719158E-05,21.843,0,1.4562,-1.779202E-05,21.843,0
1.4571,-3.088426E-05,21.8565,0,1.4571,-5.035477E-06,21.8565,0
1.458,-4.061952E-05,21.87,0,1.458,-1.980621E-05,21.87,0
1.4589,-7.721065E-06,21.8835,0,1.4589,-2.652018E-05,21.8835,0
1.4598,7.385367E-06,21.897,0,1.4598,-3.759823E-05,21.897,0
1.4607,2.21561E-05,21.9105,0,1.4607,-1.510643E-05,21.9105,0
1.4616,-6.713969E-07,21.924,0,1.4616,-9.735256E-06,21.924,0
1.4625,-3.121996E-05,21.9375,0,1.4625,-2.652018E-05,21.9375,0
1.4634,1.913481E-05,21.951,0,1.4634,-3.927672E-05,21.951,0
1.4643,3.356985E-07,21.9645,0,1.4643,6.378271E-06,21.9645,0
1.4652,-1.174945E-05,21.978,0,1.4652,-5.035477E-06,21.978,0
1.4661,-2.316319E-05,21.9915,0,1.4661,-5.270466E-05,21.9915,0
1.467,-3.189136E-05,22.005,0,1.467,-1.275654E-05,22.005,0
1.4679,-1.309224E-05,22.0185,0,1.4679,-2.685588E-06,22.0185,0
1.4688,6.713969E-07,22.032,0,1.4688,-2.786297E-05,22.032,0
1.4697,1.174945E-05,22.0455,0,1.4697,-3.289845E-05,22.0455,0
1.4706,1.577783E-05,22.059,0,1.4706,3.356985E-07,22.059,0
1.4715,1.980621E-05,22.0725,0,1.4715,-1.812772E-05,22.0725,0
1.4724,-5.706874E-06,22.086,0,1.4724,-2.685588E-05,22.086,0
1.4733,-2.383459E-05,22.0995,0,1.4733,-4.43122E-05,22.0995,0
1.4742,-1.443504E-05,22.113,0,1.4742,-3.189136E-05,22.113,0
1.4751,-1.577783E-05,22.1265,0,1.4751,-2.349889E-05,22.1265,0
1.476,-9.063859E-06,22.14,0,1.476,-3.793393E-05,22.14,0
1.4769,-1.275654E-05,22.1535,0,1.4769,-5.438316E-05,22.1535,0
1.4778,-3.121996E-05,22.167,0,1.4778,-6.713969E-06,22.167,0
1.4787,5.035477E-06,22.1805,0,1.4787,-2.316319E-05,22.1805,0
1.4796,1.040665E-05,22.194,0,1.4796,-6.74754E-05,22.194,0
1.4805,-1.107805E-05,22.2075,0,1.4805,-1.846342E-05,22.2075,0
1.4814,-5.404745E-05,22.221,0,1.4814,1.678492E-06,22.221,0
1.4823,-3.491264E-05,22.2345,0,1.4823,-1.208515E-05,22.2345,0
1.4832,2.014191E-06,22.248,0,1.4832,-5.371176E-06,22.248,0
1.4841,-2.652018E-05,22.2615,0,1.4841,2.1149E-05,22.2615,0
1.485,-2.349889E-05,22.275,0,1.485,1.342794E-05,22.275,0
1.4859,-3.021286E-06,22.2885,0,1.4859,-1.074235E-05,22.2885,0
1.4868,1.980621E-05,22.302,0,1.4868,-3.289845E-05,22.302,0
1.4877,-6.042573E-06,22.3155,0,1.4877,-2.652018E-05,22.3155,0
1.4886,-6.176852E-05,22.329,0,1.4886,-2.987716E-05,22.329,0
1.4895,-2.316319E-05,22.3425,0,1.4895,-2.652018E-05,22.3425,0
1.4904,7.721065E-06,22.356,0,1.4904,-2.987716E-05,22.356,0
1.4913,2.047761E-05,22.3695,0,1.4913,3.121996E-05,22.3695,0
1.4922,5.035477E-06,22.383,0,1.4922,9.063859E-06,22.383,0
1.4931,-3.356985E-07,22.3965,0,1.4931,-2.987716E-05,22.3965,0
1.494,-1.779202E-05,22.41,0,1.494,2.014191E-05,22.41,0
1.4949,-2.349889E-06,22.4235,0,1.4949,0,22.4235,0
1.4958,0,22.437,0,1.4958,-8.023193E-05,22.437,0
1.4967,2.652018E-05,22.4505,0,1.4967,-8.426032E-05,22.4505,0
1.4976,-8.728161E-06,22.464,0,1.4976,-2.14847E-05,22.464,0
1.4985,-1.678492E-06,22.4775,0,1.4985,-1.510643E-05,22.4775,0
1.4994,3.054856E-05,22.491,0,1.4994,2.047761E-05,22.491,0
1.5003,1.443504E-05,22.5045,0,1.5003,-2.047761E-05,22.5045,0
1.5012,-2.853437E-05,22.518,0,1.5012,-1.712062E-05,22.518,0
1.5021,-2.584878E-05,22.5315,0,1.5021,-4.028382E-06,22.5315,0
1.503,-6.042573E-06,22.545,0,1.503,-4.43122E-05,22.545,0
1.5039,-1.644922E-05,22.5585,0,1.5039,-4.095522E-05,22.5585,0
1.5048,-1.846342E-05,22.572,0,1.5048,-1.007095E-06,22.572,0
1.5057,1.342794E-06,22.5855,0,1.5057,-2.349889E-06,22.5855,0
1.5066,1.007095E-06,22.599,0,1.5066,-1.510643E-05,22.599,0
1.5075,1.846342E-05,22.6125,0,1.5075,1.779202E-05,22.6125,0
1.5084,3.692683E-06,22.626,0,1.5084,1.342794E-05,22.626,0
1.5093,-2.21561E-05,22.6395,0,1.5093,-2.316319E-05,22.6395,0
1.5102,-5.069047E-05,22.653,0,1.5102,-2.349889E-06,22.653,0
1.5111,-2.517739E-05,22.6665,0,1.5111,1.309224E-05,22.6665,0
1.512,-3.356985E-07,22.68,0,1.512,-6.042573E-06,22.68,0
1.5129,-3.793393E-05,22.6935,0,1.5129,-3.054856E-05,22.6935,0
1.5138,7.385367E-06,22.707,0,1.5138,-5.471885E-05,22.707,0
1.5147,-3.021286E-06,22.7205,0,1.5147,-6.009003E-05,22.7205,0
1.5156,-1.678492E-05,22.734,0,1.5156,-3.591974E-05,22.734,0
1.5165,-6.042573E-06,22.7475,0,1.5165,-4.565499E-05,22.7475,0
1.5174,1.678492E-06,22.761,0,1.5174,-5.337606E-05,22.761,0
1.5183,-1.611353E-05,22.7745,0,1.5183,1.577783E-05,22.7745,0
1.5192,-2.920577E-05,22.788,0,1.5192,4.028382E-06,22.788,0
1.5201,4.028382E-06,22.8015,0,1.5201,-1.443504E-05,22.8015,0
1.521,2.383459E-05,22.815,0,1.521,1.913481E-05,22.815,0
1.5219,2.21561E-05,22.8285,0,1.5219,1.107805E-05,22.8285,0
1.5228,3.323415E-05,22.842,0,1.5228,-2.417029E-05,22.842,0
1.5237,-1.007095E-05,22.8555,0,1.5237,-2.920577E-05,22.8555,0
1.5246,-2.1149E-05,22.869,0,1.5246,2.450599E-05,22.869,0
1.5255,1.107805E-05,22.8825,0,1.5255,1.141375E-05,22.8825,0
1.5264,-1.309224E-05,22.896,0,1.5264,-4.867628E-05,22.896,0
1.5273,3.692683E-06,22.9095,0,1.5273,-7.016098E-05,22.9095,0
1.5282,-4.061952E-05,22.923,0,1.5282,-7.687495E-05,22.923,0
1.5291,-3.121996E-05,22.9365,0,1.5291,-6.51255E-05,22.9365,0
1.53,1.376364E-05,22.95,0,1.53,-3.826963E-05,22.95,0
1.5309,4.36408E-06,22.9635,0,1.5309,-3.659113E-05,22.9635,0
1.5318,-3.155566E-05,22.977,0,1.5318,-9.735256E-06,22.977,0
1.5327,-2.18204E-05,22.9905,0,1.5327,-1.242084E-05,22.9905,0
1.5336,-1.275654E-05,23.004,0,1.5336,-2.21561E-05,23.004,0
1.5345,-2.954147E-05,23.0175,0,1.5345,1.644922E-05,23.0175,0
1.5354,-4.095522E-05,23.031,0,1.5354,2.1149E-05,23.031,0
1.5363,-1.477073E-05,23.0445,0,1.5363,-2.584878E-05,23.0445,0
1.5372,1.040665E-05,23.058,0,1.5372,-2.786297E-05,23.058,0
1.5381,1.678492E-06,23.0715,0,1.5381,-2.719158E-05,23.0715,0
1.539,-2.1149E-05,23.085,0,1.539,-5.035477E-05,23.085,0
1.5399,-6.109713E-05,23.0985,0,1.5399,-6.243992E-05,23.0985,0
1.5408,-4.196231E-05,23.112,0,1.5408,-6.848249E-05,23.112,0
1.5417,-3.390555E-05,23.1255,0,1.5417,-2.920577E-05,23.1255,0
1.5426,2.517739E-05,23.139,0,1.5426,2.21561E-05,23.139,0
1.5435,4.129091E-05,23.1525,0,1.5435,3.390555E-05,23.1525,0
1.5444,3.021286E-05,23.166,0,1.5444,2.987716E-05,23.166,0
1.5453,2.014191E-06,23.1795,0,1.5453,2.24918E-05,23.1795,0
1.5462,2.24918E-05,23.193,0,1.5462,2.014191E-05,23.193,0
1.5471,2.752728E-05,23.2065,0,1.5471,-3.121996E-05,23.2065,0
1.548,-5.706874E-06,23.22,0,1.548,-7.385367E-06,23.22,0
1.5489,2.1149E-05,23.2335,0,1.5489,2.1149E-05,23.2335,0
1.5498,3.289845E-05,23.247,0,1.5498,-1.409934E-05,23.247,0
1.5507,1.779202E-05,23.2605,0,1.5507,-3.189136E-05,23.2605,0
1.5516,-5.035477E-06,23.274,0,1.5516,-5.371176E-06,23.274,0
1.5525,9.735256E-06,23.2875,0,1.5525,-1.443504E-05,23.2875,0
1.5534,-8.392462E-06,23.301,0,1.5534,-2.383459E-05,23.301,0
1.5543,-1.678492E-06,23.3145,0,1.5543,-1.577783E-05,23.3145,0
1.5552,4.028382E-06,23.328,0,1.5552,-4.028382E-06,23.328,0
1.5561,-1.007095E-06,23.3415,0,1.5561,0,23.3415,0
1.557,3.692683E-06,23.355,0,1.557,-1.644922E-05,23.355,0
1.5579,7.721065E-06,23.3685,0,1.5579,-3.256275E-05,23.3685,0
1.5588,-2.887007E-05,23.382,0,1.5588,-1.208515E-05,23.382,0
1.5597,-3.961242E-05,23.3955,0,1.5597,-3.659113E-05,23.3955,0
1.5606,-1.040665E-05,23.409,0,1.5606,-5.874724E-05,23.409,0
1.5615,-4.196231E-05,23.4225,0,1.5615,-1.309224E-05,23.4225,0
1.5624,-5.807584E-05,23.436,0,1.5624,-1.577783E-05,23.436,0
1.5633,-1.040665E-05,23.4495,0,1.5633,-2.18204E-05,23.4495,0
1.5642,1.510643E-05,23.463,0,1.5642,-1.678492E-05,23.463,0
1.5651,-7.049668E-06,23.4765,0,1.5651,-1.242084E-05,23.4765,0
1.566,-1.544213E-05,23.49,0,1.566,1.443504E-05,23.49,0
1.5669,-4.934768E-05,23.5035,0,1.5669,-3.692683E-06,23.5035,0
1.5678,-2.24918E-05,23.517,0,1.5678,-5.505455E-05,23.517,0
1.5687,-1.577783E-05,23.5305,0,1.5687,-2.786297E-05,23.5305,0
1.5696,-2.920577E-05,23.544,0,1.5696,-7.721065E-06,23.544,0
1.5705,-1.376364E-05,23.5575,0,1.5705,-2.987716E-05,23.5575,0
1.5714,-2.014191E-05,23.571,0,1.5714,-6.143282E-05,23.571,0
1.5723,-2.18204E-05,23.5845,0,1.5723,-9.063859E-06,23.5845,0
1.5732,1.007095E-06,23.598,0,1.5732,-1.376364E-05,23.598,0
1.5741,-2.349889E-06,23.6115,0,1.5741,-6.277562E-05,23.6115,0
1.575,-1.846342E-05,23.625,0,1.575,-2.853437E-05,23.625,0
1.5759,-3.356985E-07,23.6385,0,1.5759,-3.256275E-05,23.6385,0
1.5768,-2.853437E-05,23.652,0,1.5768,-5.975433E-05,23.652,0
1.5777,-5.001907E-05,23.6655,0,1.5777,-1.846342E-05,23.6655,0
1.5786,-3.356985E-06,23.679,0,1.5786,2.1149E-05,23.679,0
1.5795,2.383459E-05,23.6925,0,1.5795,-7.049668E-06,23.6925,0
1.5804,3.726253E-05,23.706,0,1.5804,-1.141375E-05,23.706,0
1.5813,2.987716E-05,23.7195,0,1.5813,-2.383459E-05,23.7195,0
1.5822,1.577783E-05,23.733,0,1.5822,-1.712062E-05,23.733,0
1.5831,1.980621E-05,23.7465,0,1.5831,-4.968337E-05,23.7465,0
1.584,-6.042573E-06,23.76,0,1.584,-5.337606E-05,23.76,0
1.5849,-3.323415E-05,23.7735,0,1.5849,-4.061952E-05,23.7735,0
1.5858,-3.927672E-05,23.787,0,1.5858,-1.779202E-05,23.787,0
1.5867,-1.141375E-05,23.8005,0,1.5867,-2.887007E-05,23.8005,0
1.5876,3.591974E-05,23.814,0,1.5876,-6.210422E-05,23.814,0
1.5885,4.43122E-05,23.8275,0,1.5885,6.042573E-06,23.8275,0
1.5894,1.947051E-05,23.841,0,1.5894,4.733349E-05,23.841,0
1.5903,1.208515E-05,23.8545,0,1.5903,-8.728161E-06,23.8545,0
1.5912,1.174945E-05,23.868,0,1.5912,-3.659113E-05,23.868,0
1.5921,-1.980621E-05,23.8815,0,1.5921,-4.36408E-06,23.8815,0
1.593,-1.712062E-05,23.895,0,1.593,-9.063859E-06,23.895,0
1.5939,-4.666209E-05,23.9085,0,1.5939,-2.484169E-05,23.9085,0
1.5948,-3.054856E-05,23.922,0,1.5948,-2.987716E-05,23.922,0
1.5957,-6.713969E-06,23.9355,0,1.5957,-1.409934E-05,23.9355,0
1.5966,-4.968337E-05,23.949,0,1.5966,3.356985E-06,23.949,0
1.5975,-2.618448E-05,23.9625,0,1.5975,1.409934E-05,23.9625,0
1.5984,-1.980621E-05,23.976,0,1.5984,1.376364E-05,23.976,0
1.5993,-4.43122E-05,23.9895,0,1.5993,-5.706874E-06,23.9895,0
1.6002,-2.316319E-05,24.003,0,1.6002,-1.107805E-05,24.003,0
1.6011,2.1149E-05,24.0165,0,1.6011,-2.887007E-05,24.0165,0
1.602,3.021286E-06,24.03,0,1.602,3.021286E-06,24.03,0
1.6029,-3.994812E-05,24.0435,0,1.6029,1.678492E-05,24.0435,0
1.6038,-4.632639E-05,24.057,0,1.6038,-2.752728E-05,24.057,0
1.6047,3.356985E-07,24.0705,0,1.6047,-9.399558E-06,24.0705,0
1.6056,-2.047761E-05,24.084,0,1.6056,7.721065E-06,24.084,0
1.6065,-1.913481E-05,24.0975,0,1.6065,-1.242084E-05,24.0975,0
1.6074,1.779202E-05,24.111,0,1.6074,-3.356985E-05,24.111,0
1.6083,9.399558E-06,24.1245,0,1.6083,-6.61326E-05,24.1245,0
1.6092,4.901198E-05,24.138,0,1.6092,-3.390555E-05,24.138,0
1.6101,5.069047E-05,24.1515,0,1.6101,1.678492E-06,24.1515,0
1.611,1.309224E-05,24.165,0,1.611,-2.21561E-05,24.165,0
1.6119,4.028382E-06,24.1785,0,1.6119,-4.934768E-05,24.1785,0
1.6128,-1.342794E-06,24.192,0,1.6128,-1.376364E-05,24.192,0
1.6137,3.659113E-05,24.2055,0,1.6137,-1.913481E-05,24.2055,0
1.6146,3.356985E-05,24.219,0,1.6146,-4.599069E-05,24.219,0
1.6155,-1.342794E-06,24.2325,0,1.6155,2.18204E-05,24.2325,0
1.6164,-5.706874E-06,24.246,0,1.6164,3.692683E-06,24.246,0
1.6173,-8.056763E-06,24.2595,0,1.6173,-6.411841E-05,24.2595,0
1.6182,-3.860533E-05,24.273,0,1.6182,-3.692683E-06,24.273,0
1.6191,-6.344701E-05,24.2865,0,1.6191,7.385367E-06,24.2865,0
1.62,-7.653925E-05,24.3,0,1.62,-1.107805E-05,24.3,0
1.6209,-4.061952E-05,24.3135,0,1.6209,1.275654E-05,24.3135,0
1.6218,3.356985E-07,24.327,0,1.6218,-1.107805E-05,24.327,0
1.6227,1.309224E-05,24.3405,0,1.6227,-8.392462E-06,24.3405,0
1.6236,6.6804E-05,24.354,0,1.6236,-1.107805E-05,24.354,0
1.6245,6.009003E-05,24.3675,0,1.6245,-6.881819E-05,24.3675,0
1.6254,4.599069E-05,24.381,0,1.6254,-9.466698E-05,24.381,0
1.6263,2.24918E-05,24.3945,0,1.6263,-2.450599E-05,24.3945,0
1.6272,-1.342794E-06,24.408,0,1.6272,-2.786297E-05,24.408,0
1.6281,9.063859E-06,24.4215,0,1.6281,-4.129091E-05,24.4215,0
1.629,-8.392462E-06,24.435,0,1.629,2.014191E-06,24.435,0
1.6299,-2.584878E-05,24.4485,0,1.6299,2.450599E-05,24.4485,0
1.6308,-2.18204E-05,24.462,0,1.6308,-1.846342E-05,24.462,0
1.6317,-2.853437E-05,24.4755,0,1.6317,-3.054856E-05,24.4755,0
1.6326,-3.121996E-05,24.489,0,1.6326,-7.049668E-06,24.489,0
1.6335,-1.544213E-05,24.5025,0,1.6335,-7.049668E-06,24.5025,0
1.6344,-6.378271E-06,24.516,0,1.6344,-3.390555E-05,24.516,0
1.6353,2.349889E-06,24.5295,0,1.6353,-4.33051E-05,24.5295,0
1.6362,1.040665E-05,24.543,0,1.6362,-9.735256E-06,24.543,0
1.6371,-5.035477E-05,24.5565,0,1.6371,-9.063859E-06,24.5565,0
1.638,-4.129091E-05,24.57,0,1.638,-3.323415E-05,24.57,0
1.6389,-1.208515E-05,24.5835,0,1.6389,-6.009003E-05,24.5835,0
1.6398,-4.46479E-05,24.597,0,1.6398,-2.316319E-05,24.597,0
1.6407,-5.807584E-05,24.6105,0,1.6407,-1.510643E-05,24.6105,0
1.6416,-1.712062E-05,24.624,0,1.6416,-4.800488E-05,24.624,0
1.6425,-2.349889E-06,24.6375,0,1.6425,-4.36408E-06,24.6375,0
1.6434,-2.14847E-05,24.651,0,1.6434,-1.443504E-05,24.651,0
1.6443,-2.316319E-05,24.6645,0,1.6443,-4.061952E-05,24.6645,0
1.6452,-2.21561E-05,24.678,0,1.6452,-3.054856E-05,24.678,0
1.6461,-1.544213E-05,24.6915,0,1.6461,-1.040665E-05,24.6915,0
1.647,5.706874E-06,24.705,0,1.647,-1.577783E-05,24.705,0
1.6479,5.706874E-06,24.7185,0,1.6479,-2.21561E-05,24.7185,0
1.6488,-1.275654E-05,24.732,0,1.6488,-3.793393E-05,24.732,0
1.6497,-9.063859E-06,24.7455,0,1.6497,-6.042573E-06,24.7455,0
1.6506,3.189136E-05,24.759,0,1.6506,3.323415E-05,24.759,0
1.6515,3.457694E-05,24.7725,0,1.6515,2.349889E-06,24.7725,0
1.6524,-1.577783E-05,24.786,0,1.6524,-6.311131E-05,24.786,0
1.6533,8.392462E-06,24.7995,0,1.6533,-1.678492E-06,24.7995,0
1.6542,7.385367E-06,24.813,0,1.6542,1.107805E-05,24.813,0
1.6551,-5.706874E-06,24.8265,0,1.6551,-4.061952E-05,24.8265,0
1.656,9.735256E-06,24.84,0,1.656,-1.174945E-05,24.84,0
1.6569,6.378271E-06,24.8535,0,1.6569,-1.779202E-05,24.8535,0
1.6578,1.443504E-05,24.867,0,1.6578,-5.539025E-05,24.867,0
1.6587,-6.713969E-06,24.8805,0,1.6587,-3.356985E-05,24.8805,0
1.6596,-7.721065E-06,24.894,0,1.6596,1.141375E-05,24.894,0
1.6605,-7.049668E-06,24.9075,0,1.6605,-2.014191E-05,24.9075,0
1.6614,-4.196231E-05,24.921,0,1.6614,-1.980621E-05,24.921,0
1.6623,-1.846342E-05,24.9345,0,1.6623,-3.021286E-05,24.9345,0
1.6632,-7.385367E-06,24.948,0,1.6632,-2.047761E-05,24.948,0
1.6641,-5.606165E-05,24.9615,0,1.6641,-1.510643E-05,24.9615,0
1.665,-5.539025E-05,24.975,0,1.665,-3.793393E-05,24.975,0
1.6659,-1.443504E-05,24.9885,0,1.6659,-3.659113E-05,24.9885,0
1.6668,-2.517739E-05,25.002,0,1.6668,-2.349889E-06,25.002,0
1.6677,1.040665E-05,25.0155,0,1.6677,-1.846342E-05,25.0155,0
1.6686,5.236896E-05,25.029,0,1.6686,-6.344701E-05,25.029,0
1.6695,-8.392462E-06,25.0425,0,1.6695,-2.819867E-05,25.0425,0
1.6704,-2.719158E-05,25.056,0,1.6704,-7.385367E-06,25.056,0
1.6713,-1.510643E-05,25.0695,0,1.6713,-4.699779E-05,25.0695,0
1.6722,-3.793393E-05,25.083,0,1.6722,-1.275654E-05,25.083,0
1.6731,-4.733349E-05,25.0965,0,1.6731,6.61326E-05,25.0965,0
1.674,-3.054856E-05,25.11,0,1.674,6.54612E-05,25.11,0
1.6749,-2.417029E-05,25.1235,0,1.6749,1.644922E-05,25.1235,0
1.6758,-1.309224E-05,25.137,0,1.6758,-9.399558E-06,25.137,0
1.6767,1.309224E-05,25.1505,0,1.6767,-4.699779E-06,25.1505,0
1.6776,3.189136E-05,25.164,0,1.6776,1.376364E-05,25.164,0
1.6785,5.136187E-05,25.1775,0,1.6785,9.063859E-06,25.1775,0
1.6794,9.735256E-06,25.191,0,1.6794,-4.36408E-05,25.191,0
1.6803,-6.6804E-05,25.2045,0,1.6803,-2.987716E-05,25.2045,0
1.6812,-6.71397E-05,25.218,0,1.6812,-3.659113E-05,25.218,0
1.6821,-3.457694E-05,25.2315,0,1.6821,-6.948959E-05,25.2315,0
1.683,1.309224E-05,25.245,0,1.683,-1.980621E-05,25.245,0
1.6839,1.779202E-05,25.2585,0,1.6839,-2.484169E-05,25.2585,0
1.6848,3.289845E-05,25.272,0,1.6848,-4.46479E-05,25.272,0
1.6857,4.263371E-05,25.2855,0,1.6857,2.1149E-05,25.2855,0
1.6866,-7.049668E-06,25.299,0,1.6866,9.735256E-06,25.299,0
1.6875,-2.517739E-05,25.3125,0,1.6875,-2.484169E-05,25.3125,0
1.6884,3.021286E-06,25.326,0,1.6884,-1.409934E-05,25.326,0
1.6893,-1.342794E-05,25.3395,0,1.6893,-4.46479E-05,25.3395,0
1.6902,-4.699779E-06,25.353,0,1.6902,-2.28275E-05,25.353,0
1.6911,2.853437E-05,25.3665,0,1.6911,-1.980621E-05,25.3665,0
1.692,1.779202E-05,25.38,0,1.692,-3.961242E-05,25.38,0
1.6929,1.342794E-05,25.3935,0,1.6929,-4.061952E-05,25.3935,0
1.6938,6.378271E-06,25.407,0,1.6938,-5.706874E-06,25.407,0
1.6947,1.779202E-05,25.4205,0,1.6947,-1.477073E-05,25.4205,0
1.6956,2.047761E-05,25.434,0,1.6956,-3.759823E-05,25.434,0
1.6965,-1.376364E-05,25.4475,0,1.6965,-1.376364E-05,25.4475,0
1.6974,-1.376364E-05,25.461,0,1.6974,9.735256E-06,25.461,0
1.6983,-4.46479E-05,25.4745,0,1.6983,-2.349889E-05,25.4745,0
1.6992,-5.404745E-05,25.488,0,1.6992,-2.920577E-05,25.488,0
1.7001,-3.961242E-05,25.5015,0,1.7001,-1.712062E-05,25.5015,0
1.701,-2.014191E-05,25.515,0,1.701,-1.208515E-05,25.515,0
1.7019,-1.242084E-05,25.5285,0,1.7019,-2.014191E-06,25.5285,0
1.7028,6.478981E-05,25.542,0,1.7028,-1.107805E-05,25.542,0
1.7037,5.807584E-05,25.5555,0,1.7037,4.699779E-06,25.5555,0
1.7046,-1.007095E-06,25.569,0,1.7046,1.477073E-05,25.569,0
1.7055,-1.174945E-05,25.5825,0,1.7055,-1.107805E-05,25.5825,0
1.7064,-4.36408E-06,25.596,0,1.7064,-3.625543E-05,25.596,0
1.7073,-3.256275E-05,25.6095,0,1.7073,-2.853437E-05,25.6095,0
1.7082,-1.309224E-05,25.623,0,1.7082,-4.33051E-05,25.623,0
1.7091,1.007095E-06,25.6365,0,1.7091,-6.277562E-05,25.6365,0
1.71,-1.141375E-05,25.65,0,1.71,-3.021286E-06,25.65,0
1.7109,-1.846342E-05,25.6635,0,1.7109,1.107805E-05,25.6635,0
1.7118,-3.323415E-05,25.677,0,1.7118,-2.1149E-05,25.677,0
1.7127,-3.793393E-05,25.6905,0,1.7127,-3.256275E-05,25.6905,0
1.7136,-4.934768E-05,25.704,0,1.7136,-7.049668E-06,25.704,0
1.7145,-9.063859E-06,25.7175,0,1.7145,-2.047761E-05,25.7175,0
1.7154,1.678492E-06,25.731,0,1.7154,-5.539025E-05,25.731,0
1.7163,1.208515E-05,25.7445,0,1.7163,-7.183947E-05,25.7445,0
1.7172,8.392462E-06,25.758,0,1.7172,-3.457694E-05,25.758,0
1.7181,2.719158E-05,25.7715,0,1.7181,-5.371176E-06,25.7715,0
1.719,6.042573E-05,25.785,0,1.719,-7.721065E-06,25.785,0
1.7199,4.263371E-05,25.7985,0,1.7199,-1.947051E-05,25.7985,0
1.7208,-2.28275E-05,25.812,0,1.7208,9.063859E-06,25.812,0
1.7217,-4.43122E-05,25.8255,0,1.7217,-7.721065E-06,25.8255,0
1.7226,3.692683E-06,25.839,0,1.7226,-4.632639E-05,25.839,0
1.7235,1.678492E-05,25.8525,0,1.7235,-1.040665E-05,25.8525,0
1.7244,2.383459E-05,25.866,0,1.7244,-1.376364E-05,25.866,0
1.7253,2.28275E-05,25.8795,0,1.7253,-5.874724E-05,25.8795,0
1.7262,6.042573E-05,25.893,0,1.7262,-2.047761E-05,25.893,0
1.7271,3.054856E-05,25.9065,0,1.7271,2.383459E-05,25.9065,0
1.728,-2.24918E-05,25.92,0,1.728,-2.920577E-05,25.92,0
1.7289,-1.846342E-05,25.9335,0,1.7289,-2.1149E-05,25.9335,0
1.7298,-6.042573E-06,25.947,0,1.7298,-2.551309E-05,25.947,0
1.7307,-1.040665E-05,25.9605,0,1.7307,1.477073E-05,25.9605,0
1.7316,-2.383459E-05,25.974,0,1.7316,3.524834E-05,25.974,0
1.7325,-1.879912E-05,25.9875,0,1.7325,-3.021286E-06,25.9875,0
1.7334,-4.33051E-05,26.001,0,1.7334,-2.887007E-05,26.001,0
1.7343,-5.371176E-05,26.0145,0,1.7343,6.042573E-06,26.0145,0
1.7352,-2.786297E-05,26.028,0,1.7352,-1.712062E-05,26.028,0
1.7361,-7.049668E-06,26.0415,0,1.7361,-6.344701E-05,26.0415,0
1.737,1.678492E-06,26.055,0,1.737,-4.599069E-05,26.055,0
1.7379,-3.726253E-05,26.0685,0,1.7379,-2.1149E-05,26.0685,0
1.7388,-2.752728E-05,26.082,0,1.7388,-1.174945E-05,26.082,0
1.7397,2.349889E-05,26.0955,0,1.7397,3.356985E-07,26.0955,0
1.7406,-1.947051E-05,26.109,0,1.7406,3.121996E-05,26.109,0
1.7415,-3.323415E-05,26.1225,0,1.7415,7.049668E-06,26.1225,0
1.7424,-3.860533E-05,26.136,0,1.7424,-3.759823E-05,26.136,0
1.7433,-2.551309E-05,26.1495,0,1.7433,-4.867628E-05,26.1495,0
1.7442,-2.18204E-05,26.163,0,1.7442,-3.558404E-05,26.163,0
1.7451,-5.169757E-05,26.1765,0,1.7451,-3.860533E-05,26.1765,0
1.746,1.443504E-05,26.19,0,1.746,-9.063859E-06,26.19,0
1.7469,2.853437E-05,26.2035,0,1.7469,-8.392462E-06,26.2035,0
1.7478,-1.577783E-05,26.217,0,1.7478,5.035477E-06,26.217,0
1.7487,-3.155566E-05,26.2305,0,1.7487,-1.309224E-05,26.2305,0
1.7496,9.735256E-06,26.244,0,1.7496,-4.565499E-05,26.244,0
1.7505,2.28275E-05,26.2575,0,1.7505,-2.551309E-05,26.2575,0
1.7514,1.007095E-05,26.271,0,1.7514,-4.028382E-06,26.271,0
1.7523,6.042573E-06,26.2845,0,1.7523,-4.028382E-05,26.2845,0
1.7532,-2.450599E-05,26.298,0,1.7532,-5.774014E-05,26.298,0
1.7541,-1.409934E-05,26.3115,0,1.7541,-3.054856E-05,26.3115,0
1.755,-5.706874E-06,26.325,0,1.755,-3.054856E-05,26.325,0
1.7559,1.007095E-06,26.3385,0,1.7559,-5.337606E-05,26.3385,0
1.7568,-1.242084E-05,26.352,0,1.7568,-8.82887E-05,26.352,0
1.7577,-2.920577E-05,26.3655,0,1.7577,-4.196231E-05,26.3655,0
1.7586,-1.644922E-05,26.379,0,1.7586,1.846342E-05,26.379,0
1.7595,-1.644922E-05,26.3925,0,1.7595,-2.484169E-05,26.3925,0
1.7604,6.378271E-06,26.406,0,1.7604,2.450599E-05,26.406,0
1.7613,1.007095E-06,26.4195,0,1.7613,9.130999E-05,26.4195,0
1.7622,-8.392462E-06,26.433,0,1.7622,1.745632E-05,26.433,0
1.7631,2.18204E-05,26.4465,0,1.7631,-3.659113E-05,26.4465,0
1.764,1.007095E-06,26.46,0,1.764,-1.678492E-06,26.46,0
1.7649,-4.733349E-05,26.4735,0,1.7649,2.450599E-05,26.4735,0
1.7658,-3.323415E-05,26.487,0,1.7658,-1.980621E-05,26.487,0
1.7667,-3.021286E-06,26.5005,0,1.7667,-3.726253E-05,26.5005,0
1.7676,5.706874E-06,26.514,0,1.7676,-6.042573E-06,26.514,0
1.7685,-4.028382E-06,26.5275,0,1.7685,-8.728161E-06,26.5275,0
1.7694,7.385367E-06,26.541,0,1.7694,-1.947051E-05,26.541,0
1.7703,3.726253E-05,26.5545,0,1.7703,-3.927672E-05,26.5545,0
1.7712,1.174945E-05,26.568,0,1.7712,-2.417029E-05,26.568,0
1.7721,6.713969E-07,26.5815,0,1.7721,1.577783E-05,26.5815,0
1.773,1.577783E-05,26.595,0,1.773,-6.378271E-06,26.595,0
1.7739,9.399558E-06,26.6085,0,1.7739,-2.517739E-05,26.6085,0
1.7748,-3.726253E-05,26.622,0,1.7748,5.706874E-06,26.622,0
1.7757,-4.263371E-05,26.6355,0,1.7757,-1.544213E-05,26.6355,0
1.7766,-1.107805E-05,26.649,0,1.7766,-5.169757E-05,26.649,0
1.7775,-1.644922E-05,26.6625,0,1.7775,-2.047761E-05,26.6625,0
1.7784,3.692683E-06,26.676,0,1.7784,-2.18204E-05,26.676,0
1.7793,4.028382E-05,26.6895,0,1.7793,-2.786297E-05,26.6895,0
1.7802,-2.24918E-05,26.703,0,1.7802,-2.584878E-05,26.703,0
1.7811,-4.599069E-05,26.7165,0,1.7811,-2.21561E-05,26.7165,0
1.782,-4.028382E-06,26.73,0,1.782,6.713969E-07,26.73,0
1.7829,-3.659113E-05,26.7435,0,1.7829,-2.047761E-05,26.7435,0
1.7838,-3.524834E-05,26.757,0,1.7838,-4.867628E-05,26.757,0
1.7847,-2.618448E-05,26.7705,0,1.7847,-7.049668E-06,26.7705,0
1.7856,-5.001907E-05,26.784,0,1.7856,2.349889E-06,26.784,0
1.7865,-3.726253E-05,26.7975,0,1.7865,-3.390555E-05,26.7975,0
1.7874,-2.1149E-05,26.811,0,1.7874,-5.169757E-05,26.811,0
1.7883,-4.196231E-05,26.8245,0,1.7883,-1.409934E-05,26.8245,0
1.7892,4.36408E-06,26.838,0,1.7892,-1.678492E-05,26.838,0
1.7901,1.242084E-05,26.8515,0,1.7901,-6.176852E-05,26.8515,0
1.791,-4.699779E-06,26.865,0,1.791,-1.040665E-05,26.865,0
1.7919,5.035477E-06,26.8785,0,1.7919,1.208515E-05,26.8785,0
1.7928,1.376364E-05,26.892,0,1.7928,-3.054856E-05,26.892,0
1.7937,9.063859E-06,26.9055,0,1.7937,-1.577783E-05,26.9055,0
1.7946,-3.356985E-06,26.919,0,1.7946,6.378271E-06,26.919,0
1.7955,1.913481E-05,26.9325,0,1.7955,-1.107805E-05,26.9325,0
1.7964,2.316319E-05,26.946,0,1.7964,-2.786297E-05,26.946,0
1.7973,7.049668E-06,26.9595,0,1.7973,-4.666209E-05,26.9595,0
1.7982,6.378271E-06,26.973,0,1.7982,-3.524834E-05,26.973,0
1.7991,7.049668E-06,26.9865,0,1.7991,-3.793393E-05,26.9865,0
1.8,1.007095E-06,27,0,1.8,-3.692683E-05,27,0
1.8009,2.1149E-05,27.0135,0,1.8009,-4.36408E-05,27.0135,0
1.8018,1.342794E-05,27.027,0,1.8018,-3.021286E-06,27.027,0
1.8027,-2.316319E-05,27.0405,0,1.8027,-3.054856E-05,27.0405,0
1.8036,-2.21561E-05,27.054,0,1.8036,-6.814679E-05,27.054,0
1.8045,-9.063859E-06,27.0675,0,1.8045,-2.450599E-05,27.0675,0
1.8054,-6.378271E-06,27.081,0,1.8054,-1.678492E-06,27.081,0
1.8063,-3.121996E-05,27.0945,0,1.8063,-3.054856E-05,27.0945,0
1.8072,-5.471885E-05,27.108,0,1.8072,-5.136187E-05,27.108,0
1.8081,-6.042573E-06,27.1215,0,1.8081,-6.713969E-07,27.1215,0
1.809,-9.735256E-06,27.135,0,1.809,-3.021286E-06,27.135,0
1.8099,-1.409934E-05,27.1485,0,1.8099,-1.879912E-05,27.1485,0
1.8108,-1.678492E-06,27.162,0,1.8108,-4.33051E-05,27.162,0
1.8117,3.256275E-05,27.1755,0,1.8117,1.779202E-05,27.1755,0
1.8126,-2.18204E-05,27.189,0,1.8126,1.443504E-05,27.189,0
1.8135,-3.155566E-05,27.2025,0,1.8135,-2.18204E-05,27.2025,0
1.8144,7.049668E-06,27.216,0,1.8144,-3.356985E-05,27.216,0
1.8153,-1.242084E-05,27.2295,0,1.8153,-1.678492E-06,27.2295,0
1.8162,-4.699779E-06,27.243,0,1.8162,-6.713969E-06,27.243,0
1.8171,1.913481E-05,27.2565,0,1.8171,-4.33051E-05,27.2565,0
1.818,-1.376364E-05,27.27,0,1.818,-2.014191E-06,27.27,0
