X[s],"Trigno IM sensor 3: EMG 3 (IM)",X[s],"Trigno IM sensor 3: Mag 3.Z (IM)",X[s],"Trigno IM sensor 4: EMG 4 (IM)",X[s],"Trigno IM sensor 4: Mag 4.Z (IM)"
0.000000,1.376364E-05,0.000000,125,0.000000,0.0002222324,0.000000,-2
0.0009,-1.745632E-05,0.0135,124,0.0009,0.0002762798,0.0135,0
0.0018,-1.947051E-05,0.027,126,0.0018,0.000190341,0.027,-3
0.0027,2.349889E-06,0.0405,125,0.0027,0.0001044022,0.0405,-2
0.0036,-1.712062E-05,0.054,124,0.0036,6.143282E-05,0.054,-3
0.0045,0.000148043,0.0675,124,0.0045,2.987716E-05,0.0675,-2
0.0054,0.0002373388,0.081,124,0.0054,-9.735256E-06,0.081,-4
0.0063,0.0002235752,0.0945,123,0.0063,-6.948959E-05,0.0945,-3
0.0072,0.0001393149,0.108,124,0.0072,-9.533837E-05,0.108,-4
0.0081,4.934768E-05,0.1215,125,0.0081,-7.888914E-05,0.1215,-4
0.009000001,-1.040665E-05,0.135,124,0.009000001,-6.009003E-05,0.135,-4
0.0099,1.275654E-05,0.1485,125,0.0099,-3.994812E-05,0.1485,-2
0.0108,1.846342E-05,0.162,124,0.0108,-5.371176E-06,0.162,-2
0.0117,-0.0001812772,0.1755,125,0.0117,-1.913481E-05,0.1755,-5
0.0126,-0.0001359579,0.189,125,0.0126,-1.477073E-05,0.189,-2
0.0135,-9.500267E-05,0.2025,125,0.0135,-3.356985E-07,0.2025,-5
0.0144,-0.0002786297,0.216,124,0.0144,-2.316319E-05,0.216,-4
0.0153,-0.0001443503,0.2295,125,0.0153,1.275654E-05,0.2295,-5
0.0162,4.263371E-05,0.243,125,0.0162,6.713969E-07,0.243,-2
0.0171,9.063859E-06,0.2565,125,0.0171,-7.284657E-05,0.2565,-2
0.018,3.390555E-05,0.27,123,0.018,-0.0001393149,0.27,-3
0.0189,-3.390555E-05,0.2835,124,0.0189,-0.0002229038,0.2835,-6
0.0198,-9.802396E-05,0.297,123,0.0198,-0.0001752346,0.297,-5
0.0207,-6.009003E-05,0.3105,125,0.0207,-0.0001460288,0.3105,-4
0.0216,-8.090334E-05,0.324,125,0.0216,-0.0001144732,0.324,-6
0.0225,-6.915389E-05,0.3375,125,0.0225,-3.793393E-05,0.3375,-3
0.0234,6.54612E-05,0.351,125,0.0234,0.0001161517,0.351,-4
0.0243,1.644922E-05,0.3645,125,0.0243,6.478981E-05,0.3645,-1
0.0252,2.517739E-05,0.378,124,0.0252,4.061952E-05,0.378,-5
0.0261,7.620356E-05,0.3915,123,0.0261,0.0001033951,0.3915,-3
0.027,0.0001668421,0.405,124,0.027,0.0001218585,0.405,-4
0.0279,0.0001376364,0.4185,124,0.0279,9.231708E-05,0.4185,-2
0.0288,1.007095E-06,0.432,124,0.0288,6.713969E-06,0.432,-3
0.0297,3.356985E-07,0.4455,125,0.0297,-1.510643E-05,0.4455,-2
0.0306,0.0001453574,0.459,125,0.0306,-8.358892E-05,0.459,-2
0.0315,0.0001376364,0.4725,125,0.0315,-0.0001399863,0.4725,-3
0.0324,-3.524834E-05,0.486,124,0.0324,-0.0001742275,0.486,-2
0.0333,2.047761E-05,0.4995,124,0.0333,-0.0001473716,0.4995,-4
0.0342,6.713969E-06,0.513,125,0.0342,-9.735256E-05,0.513,-3
0.0351,-0.0001712062,0.5265,124,0.0351,-2.081331E-05,0.5265,-4
0.036,-8.157473E-05,0.54,125,0.036,0.0001376364,0.54,-3
0.0369,-1.644922E-05,0.5535,125,0.0369,0.0001514,0.5535,-5
0.0378,-4.39765E-05,0.567,125,0.0378,0.0001453574,0.567,-4
0.0387,-9.735256E-06,0.5805,125,0.0387,9.802396E-05,0.5805,-4
0.0396,-1.208515E-05,0.594,126,0.0396,3.054856E-05,0.594,-3
0.0405,-0.0001003738,0.6075,125,0.0405,-1.107805E-05,0.6075,-7
0.0414,-9.903105E-05,0.621,125,0.0414,3.289845E-05,0.621,-4
0.0423,5.035477E-06,0.6345,125,0.0423,-5.807584E-05,0.6345,-3
0.0432,-8.191043E-05,0.648,124,0.0432,-0.0001097734,0.648,-5
0.0441,-0.0001218585,0.6615,125,0.0441,-0.0001299153,0.6615,-1
0.045,-1.409934E-05,0.675,125,0.045,-0.0001178302,0.675,-2
0.0459,1.376364E-05,0.6885,122,0.0459,-5.975433E-05,0.6885,-3
0.0468,2.987716E-05,0.702,124,0.0468,2.484169E-05,0.702,-5
0.0477,8.69459E-05,0.7155,125,0.0477,3.457694E-05,0.7155,-4
0.0486,0.0001856413,0.729,125,0.0486,-1.644922E-05,0.729,-4
0.0495,0.000144686,0.7425,124,0.0495,-2.24918E-05,0.7425,-2
0.0504,7.049668E-05,0.756,124,0.0504,1.913481E-05,0.756,-5
0.0513,8.023193E-05,0.7695,124,0.0513,-1.812772E-05,0.7695,-2
0.0522,1.007095E-05,0.783,123,0.0522,-3.424125E-05,0.783,-2
0.0531,-5.304036E-05,0.7965,122,0.0531,9.063859E-06,0.7965,-2
0.054,-3.189136E-05,0.81,122,0.054,-4.229801E-05,0.81,-2
0.0549,3.726253E-05,0.8235,123,0.0549,-0.0001070878,0.8235,-5
0.0558,4.800488E-05,0.837,120,0.0558,-0.0001315938,0.837,-5
0.0567,-4.33051E-05,0.8505,122,0.0567,-0.0001044022,0.8505,-3
0.0576,3.558404E-05,0.864,123,0.0576,-3.256275E-05,0.864,-7
0.0585,0.0003118639,0.8775,122,0.0585,-1.611353E-05,0.8775,-6
0.0594,0.0001285725,0.891,122,0.0594,-1.678492E-06,0.891,-6
0.0603,-0.0002752728,0.9045,122,0.0603,9.634547E-05,0.9045,-6
0.0612,-0.000278294,0.918,122,0.0612,8.627451E-05,0.918,-3
0.0621,-0.0002702373,0.9315,121,0.0621,-4.46479E-05,0.9315,-4
0.063,-0.0001806058,0.945,122,0.063,-6.109713E-05,0.945,-6
0.0639,-2.450599E-05,0.9585,120,0.0639,-1.913481E-05,0.9585,-8
0.0648,-3.692683E-05,0.972,122,0.0648,1.040665E-05,0.972,-5
0.0657,-0.0001148089,0.9855,121,0.0657,4.733349E-05,0.9855,-3
0.0666,-0.0001507286,0.999,120,0.0666,3.289845E-05,0.999,-6
0.0675,-4.766919E-05,1.0125,120,0.0675,3.121996E-05,1.0125,-5
0.0684,3.726253E-05,1.026,121,0.0684,4.46479E-05,1.026,-4
0.0693,6.54612E-05,1.0395,121,0.0693,-2.349889E-06,1.0395,-7
0.0702,5.740444E-05,1.053,120,0.0702,-4.53193E-05,1.053,-4
0.0711,-0.0001245441,1.0665,121,0.0711,-8.89601E-05,1.0665,-4
0.072,-0.0002064546,1.08,121,0.072,-0.0001299153,1.08,-3
0.0729,-5.169757E-05,1.0935,121,0.0729,-0.000154757,1.0935,-5
0.07380001,2.014191E-05,1.107,120,0.07380001,-7.553216E-05,1.107,-4
0.07470001,3.491264E-05,1.1205,121,0.07470001,2.1149E-05,1.1205,-3
0.0756,5.304036E-05,1.134,122,0.0756,0.0001218585,1.134,-4
0.0765,1.947051E-05,1.1475,121,0.0765,0.0001413291,1.1475,-6
0.0774,4.263371E-05,1.161,121,0.0774,6.61326E-05,1.161,-5
0.0783,5.505455E-05,1.1745,120,0.0783,-3.524834E-05,1.1745,-1
0.0792,8.92958E-05,1.188,120,0.0792,-0.0001060807,1.188,-5
0.0801,0.0002279393,1.2015,121,0.0801,-9.164568E-05,1.2015,-3
0.081,0.0002252537,1.215,121,0.081,-5.505455E-05,1.215,-3
0.0819,0.000164828,1.2285,122,0.0819,-1.544213E-05,1.2285,-5
0.0828,7.452507E-05,1.242,120,0.0828,2.920577E-05,1.242,-4
0.0837,1.040665E-05,1.2555,121,0.0837,9.701686E-05,1.2555,-3
0.0846,-0.0001037308,1.269,121,0.0846,6.411841E-05,1.269,-6
0.0855,-0.0001849699,1.2825,121,0.0855,-5.941863E-05,1.2825,-2
0.0864,-0.000158114,1.296,120,0.0864,-0.000112459,1.296,-5
0.0873,-4.39765E-05,1.3095,120,0.0873,-9.063859E-05,1.3095,-4
0.0882,5.539025E-05,1.323,121,0.0882,-0.0001107805,1.323,-1
0.0891,-5.404745E-05,1.3365,119,0.0891,-0.0001376364,1.3365,-4
0.09,-0.0001332723,1.35,119,0.09,-8.123904E-05,1.35,-5
0.0909,-9.835965E-05,1.3635,120,0.0909,-8.191043E-05,1.3635,-4
0.0918,-9.466698E-05,1.377,120,0.0918,-8.96315E-05,1.377,-5
0.0927,-9.768826E-05,1.3905,122,0.0927,-2.853437E-05,1.3905,-2
0.0936,-2.484169E-05,1.404,121,0.0936,3.189136E-05,1.404,-2
0.09450001,-3.088426E-05,1.4175,121,0.09450001,7.049668E-05,1.4175,-3
0.09540001,-2.987716E-05,1.431,121,0.09540001,0.0001295796,1.431,-3
0.09630001,3.793393E-05,1.4445,121,0.09630001,0.0001285725,1.4445,-3
0.0972,8.493171E-05,1.458,121,0.0972,0.0001359579,1.458,-4
0.0981,0.0001064164,1.4715,120,0.0981,9.365987E-05,1.4715,-5
0.099,0.0001339437,1.485,120,0.099,-3.692683E-06,1.485,-2
0.0999,0.0001131304,1.4985,121,0.0999,-5.136187E-05,1.4985,-5
0.1008,0.0001198444,1.512,122,0.1008,-3.088426E-05,1.512,-5
0.1017,0.0001027237,1.5255,121,0.1017,-3.793393E-05,1.5255,-6
0.1026,8.392462E-06,1.539,121,0.1026,-0.000144686,1.539,-3
0.1035,-1.947051E-05,1.5525,120,0.1035,-0.0001050736,1.5525,-4
0.1044,9.332418E-05,1.566,122,0.1044,-7.284657E-05,1.566,-3
0.1053,5.001907E-05,1.5795,119,0.1053,-4.867628E-05,1.5795,-1
0.1062,-5.639734E-05,1.593,122,0.1062,-1.376364E-05,1.593,-3
0.1071,-0.0001785916,1.6065,121,0.1071,-3.692683E-06,1.6065,-4
0.108,-0.0001161517,1.62,122,0.108,3.457694E-05,1.62,-2
0.1089,-1.007095E-06,1.6335,121,0.1089,3.793393E-05,1.6335,-5
0.1098,-1.644922E-05,1.647,122,0.1098,-2.853437E-05,1.647,-7
0.1107,-7.385367E-06,1.6605,120,0.1107,-4.934768E-05,1.6605,-3
0.1116,-7.754635E-05,1.674,119,0.1116,-3.961242E-05,1.674,-4
0.1125,-5.404745E-05,1.6875,119,0.1125,-5.606165E-05,1.6875,-2
0.1134,4.699779E-06,1.701,119,0.1134,-0.000126894,1.701,-4
0.1143,3.021286E-06,1.7145,120,0.1143,-0.0001440146,1.7145,-2
0.1152,3.994812E-05,1.728,120,0.1152,-0.00018262,1.728,-2
0.1161,0.0002185397,1.7415,120,0.1161,-0.0001779202,1.7415,-6
0.117,5.941863E-05,1.755,119,0.117,-2.18204E-05,1.755,-3
0.1179,-5.438316E-05,1.7685,122,0.1179,0.0001433432,1.7685,-3
0.1188,-9.567407E-05,1.782,120,0.1188,0.0002373388,1.782,-2
0.1197,-0.0001779202,1.7955,121,0.1197,0.0002534524,1.7955,-5
0.1206,-0.0001641566,1.809,122,0.1206,0.0001326009,1.809,-2
0.1215,7.049668E-06,1.8225,121,0.1215,3.256275E-05,1.8225,-3
0.1224,9.533837E-05,1.836,121,0.1224,-1.577783E-05,1.836,-6
0.1233,-8.426032E-05,1.8495,122,0.1233,-8.224613E-05,1.8495,-4
0.1242,-0.000197055,1.863,120,0.1242,-0.0001765774,1.863,-4
0.1251,-0.0001097734,1.8765,121,0.1251,-0.0002403601,1.8765,-5
0.126,-0.000115816,1.89,120,0.126,-0.0001953765,1.89,-3
0.1269,-6.076142E-05,1.9035,121,0.1269,-0.0001315938,1.9035,-5
0.1278,1.443504E-05,1.917,122,0.1278,3.054856E-05,1.917,-3
0.1287,4.666209E-05,1.9305,122,0.1287,0.0001809415,1.9305,-3
0.1296,0.0001873197,1.944,121,0.1296,0.0002373388,1.944,-3
0.1305,0.0002366674,1.9575,122,0.1305,0.0001876554,1.9575,-6
0.1314,0.0001795987,1.971,122,0.1314,0.0001121233,1.971,-4
0.1323,6.143282E-05,1.9845,121,0.1323,-0.0001070878,1.9845,-4
0.1332,2.920577E-05,1.998,121,0.1332,-0.0002467384,1.998,-6
0.1341,-0.0002319677,2.0115,120,0.1341,-0.0002084688,2.0115,-5
0.135,-0.0003125353,2.025,121,0.135,-0.0001769131,2.025,-4
0.1359,-6.51255E-05,2.0385,121,0.1359,-0.0001242084,2.0385,-4
0.1368,0.0002907149,2.052,122,0.1368,4.129091E-05,2.052,-6
0.1377,0.0006408484,2.0655,121,0.1377,0.0002299535,2.0655,-9
0.1386,0.0004347295,2.079,120,0.1386,0.0002373388,2.079,-5
0.1395,0.0001205158,2.0925,121,0.1395,9.701686E-05,2.0925,-6
0.1404,-2.349889E-05,2.106,120,0.1404,9.735256E-06,2.106,-5
0.1413,-0.0006173495,2.1195,120,0.1413,3.289845E-05,2.1195,-3
0.1422,-0.000770428,2.133,121,0.1422,-5.001907E-05,2.133,-3
0.1431,-0.0003504692,2.1465,120,0.1431,-0.0001154803,2.1465,-3
0.144,-0.0001802701,2.16,120,0.144,-7.351797E-05,2.16,-5
0.1449,-0.000115816,2.1735,121,0.1449,-8.090334E-05,2.1735,-4
0.1458,-6.042573E-05,2.187,121,0.1458,-9.097429E-05,2.187,-7
0.1467,-5.471885E-05,2.2005,120,0.1467,-0.0001003738,2.2005,-4
0.1476,-1.678492E-06,2.214,122,0.1476,-5.069047E-05,2.214,-5
0.1485,2.18204E-05,2.2275,121,0.1485,-6.109713E-05,2.2275,-4
0.1494,0.0001285725,2.241,120,0.1494,-4.46479E-05,2.241,-5
0.1503,0.0001889983,2.2545,121,0.1503,-2.920577E-05,2.2545,-8
0.1512,0.0001050736,2.268,120,0.1512,-2.316319E-05,2.268,-4
0.1521,0.0001782559,2.2815,121,0.1521,-3.121996E-05,2.2815,-7
0.153,0.000418616,2.295,121,0.153,-4.901198E-05,2.295,-3
0.1539,0.0002897078,2.3085,121,0.1539,-4.934768E-05,2.3085,-5
0.1548,2.28275E-05,2.322,119,0.1548,6.378271E-06,2.322,-7
0.1557,-0.0002051118,2.3355,121,0.1557,-2.450599E-05,2.3355,-6
0.1566,-0.0002803082,2.349,120,0.1566,-7.687495E-05,2.349,-6
0.1575,-0.0002695659,2.3625,121,0.1575,-1.007095E-06,2.3625,-5
0.1584,-0.0001433432,2.376,121,0.1584,2.18204E-05,2.376,-4
0.1593,-7.754635E-05,2.3895,120,0.1593,-3.323415E-05,2.3895,-4
0.1602,-9.063859E-06,2.403,121,0.1602,-3.558404E-05,2.403,-3
0.1611,4.800488E-05,2.4165,121,0.1611,2.349889E-06,2.4165,-6
0.162,4.095522E-05,2.43,121,0.162,-3.289845E-05,2.43,-2
0.1629,4.196231E-05,2.4435,120,0.1629,-3.692683E-05,2.4435,-3
0.1638,6.076142E-05,2.457,122,0.1638,-1.678492E-05,2.457,-2
0.1647,6.411841E-05,2.4705,121,0.1647,1.712062E-05,2.4705,-2
0.1656,5.270466E-05,2.484,122,0.1656,-4.834058E-05,2.484,-1
0.1665,2.349889E-05,2.4975,120,0.1665,-0.0001490501,2.4975,-4
0.1674,1.174945E-05,2.511,120,0.1674,-0.0001373007,2.511,-3
0.1683,5.606165E-05,2.5245,121,0.1683,-4.162661E-05,2.5245,-8
0.1692,6.277562E-05,2.538,122,0.1692,1.376364E-05,2.538,-4
0.1701,7.150377E-05,2.5515,121,0.1701,6.109713E-05,2.5515,-5
0.171,8.291753E-05,2.565,120,0.171,0.0001312581,2.565,-2
0.1719,3.189136E-05,2.5785,121,0.1719,0.0001044022,2.5785,-4
0.1728,-2.383459E-05,2.592,122,0.1728,6.54612E-05,2.592,-6
0.1737,-2.719158E-05,2.6055,123,0.1737,5.706874E-05,2.6055,-4
0.1746,-3.256275E-05,2.619,120,0.1746,5.471885E-05,2.619,-5
0.1755,-0.0001399863,2.6325,122,0.1755,1.947051E-05,2.6325,-4
0.1764,-0.0001117876,2.646,121,0.1764,2.517739E-05,2.646,-4
0.1773,-1.007095E-06,2.6595,121,0.1773,-9.735256E-06,2.6595,-4
0.1782,-1.242084E-05,2.673,121,0.1782,-4.46479E-05,2.673,-4
0.1791,-3.692683E-06,2.6865,121,0.1791,-3.524834E-05,2.6865,-4
0.18,3.457694E-05,2.7,121,0.18,-4.229801E-05,2.7,-6
0.1809,2.920577E-05,2.7135,120,0.1809,-8.358892E-05,2.7135,-5
0.1818,-9.735256E-06,2.727,121,0.1818,-9.903105E-05,2.727,-1
0.1827,2.954147E-05,2.7405,120,0.1827,-8.69459E-05,2.7405,-2
0.1836,6.009003E-05,2.754,120,0.1836,-0.0001221943,2.754,-2
0.1845,0.0001104448,2.7675,121,0.1845,-5.304036E-05,2.7675,-5
0.1854,5.673304E-05,2.781,121,0.1854,2.417029E-05,2.781,-4
0.1863,-8.090334E-05,2.7945,121,0.1863,5.740444E-05,2.7945,-4
0.1872,4.028382E-05,2.808,122,0.1872,1.309224E-05,2.808,-5
0.1881,1.644922E-05,2.8215,120,0.1881,-1.376364E-05,2.8215,-3
0.189,-3.054856E-05,2.835,122,0.189,-5.035477E-06,2.835,-6
0.1899,-6.378271E-06,2.8485,121,0.1899,-3.356985E-05,2.8485,-3
0.1908,3.491264E-05,2.862,121,0.1908,-5.874724E-05,2.862,-5
0.1917,-0.0001409934,2.8755,122,0.1917,-4.733349E-05,2.8755,-5
0.1926,-0.0001440146,2.889,120,0.1926,-3.356985E-06,2.889,-7
0.1935,5.270466E-05,2.9025,121,0.1935,4.800488E-05,2.9025,-3
0.1944,0.0001362936,2.916,122,0.1944,8.426032E-05,2.916,-5
0.1953,9.231708E-05,2.9295,120,0.1953,0.0001319295,2.9295,-4
0.1962,-9.063859E-06,2.943,121,0.1962,9.768826E-05,2.943,-6
0.1971,-0.0002054475,2.9565,121,0.1971,-4.129091E-05,2.9565,-2
0.198,-0.0001467002,2.97,121,0.198,-0.0001044022,2.97,-6
0.1989,-0.0001138018,2.9835,120,0.1989,-0.0001399863,2.9835,-7
0.1998,-0.0001510643,2.997,121,0.1998,-0.0001567712,2.997,-4
0.2007,-1.779202E-05,3.0105,121,0.2007,-0.0001000381,3.0105,-4
0.2016,0.0001285725,3.024,121,0.2016,-2.551309E-05,3.024,-3
0.2025,0.0001373007,3.0375,120,0.2025,-1.242084E-05,3.0375,-2
0.2034,0.0001373007,3.051,120,0.2034,-6.713969E-06,3.051,-3
0.2043,0.0002292821,3.0645,120,0.2043,-4.632639E-05,3.0645,-6
0.2052,0.0001312581,3.078,0,0.2052,1.779202E-05,3.078,0
0.2061,-0.0001007095,3.0915,0,0.2061,5.941863E-05,3.0915,0
0.207,-0.0001735561,3.105,0,0.207,1.007095E-06,3.105,0
0.2079,-0.0001688563,3.1185,0,0.2079,-4.766919E-05,3.1185,0
0.2088,-0.000263859,3.132,0,0.2088,2.383459E-05,3.132,0
0.2097,-0.0003467765,3.1455,0,0.2097,2.24918E-05,3.1455,0
0.2106,-0.0002406958,3.159,0,0.2106,-6.57969E-05,3.159,0
0.2115,-6.881819E-05,3.1725,0,0.2115,-5.404745E-05,3.1725,0
0.2124,-7.351797E-05,3.186,0,0.2124,-6.210422E-05,3.186,0
0.2133,-1.074235E-05,3.1995,0,0.2133,-5.639734E-05,3.1995,0
0.2142,2.954147E-05,3.213,0,0.2142,3.256275E-05,3.213,0
0.2151,-2.484169E-05,3.2265,0,0.2151,3.692683E-05,3.2265,0
0.216,5.035477E-06,3.24,0,0.216,8.392462E-06,3.24,0
0.2169,4.129091E-05,3.2535,0,0.2169,4.36408E-06,3.2535,0
0.2178,0.0001030594,3.267,0,0.2178,-4.162661E-05,3.267,0
0.2187,0.000133608,3.2805,0,0.2187,-6.210422E-05,3.2805,0
0.2196,9.030289E-05,3.294,0,0.2196,-3.591974E-05,3.294,0
0.2205,5.874724E-05,3.3075,0,0.2205,-2.014191E-05,3.3075,0
0.2214,8.291753E-05,3.321,0,0.2214,-6.74754E-05,3.321,0
0.2223,4.867628E-05,3.3345,0,0.2223,-0.0001493858,3.3345,0
0.2232,-3.994812E-05,3.348,0,0.2232,-0.0001517357,3.348,0
0.2241,5.069047E-05,3.3615,0,0.2241,-0.0001067521,3.3615,0
0.225,9.835965E-05,3.375,0,0.225,1.846342E-05,3.375,0
0.2259,5.572595E-05,3.3885,0,0.2259,8.090334E-05,3.3885,0
0.2268,7.385367E-06,3.402,0,0.2268,6.344701E-05,3.402,0
0.2277,0.0001047379,3.4155,0,0.2277,0.0001362936,3.4155,0
0.2286,8.493171E-05,3.429,0,0.2286,0.0001017166,3.429,0
0.2295,0.0001641566,3.4425,0,0.2295,-8.157473E-05,3.4425,0
0.2304,0.0001849699,3.456,0,0.2304,-0.0001138018,3.456,0
0.2313,-8.661021E-05,3.4695,0,0.2313,-0.0001379721,3.4695,0
0.2322,-0.0001698634,3.483,0,0.2322,-8.72816E-05,3.483,0
0.2331,-5.035477E-05,3.4965,0,0.2331,-0.0001101091,3.4965,0
0.234,-1.007095E-06,3.51,0,0.234,-9.567407E-05,3.51,0
0.2349,-0.0001322652,3.5235,0,0.2349,4.733349E-05,3.5235,0
0.2358,-0.0001467002,3.537,0,0.2358,0.0001537499,3.537,0
0.2367,-9.030289E-05,3.5505,0,0.2367,9.030289E-05,3.5505,0
0.2376,-4.901198E-05,3.564,0,0.2376,0.0001104448,3.564,0
0.2385,-8.090334E-05,3.5775,0,0.2385,0.0001762417,3.5775,0
0.2394,-1.007095E-06,3.591,0,0.2394,8.560311E-05,3.591,0
0.2403,-5.270466E-05,3.6045,0,0.2403,-2.383459E-05,3.6045,0
0.2412,-0.0001957122,3.618,0,0.2412,-8.123904E-05,3.618,0
0.2421,-0.0001134661,3.6315,0,0.2421,-7.821774E-05,3.6315,0
0.243,-4.599069E-05,3.645,0,0.243,-8.96315E-05,3.645,0
0.2439,-2.383459E-05,3.6585,0,0.2439,-7.989624E-05,3.6585,0
0.2448,0.0001144732,3.672,0,0.2448,-3.894102E-05,3.672,0
0.2457,0.0001406577,3.6855,0,0.2457,6.478981E-05,3.6855,0
0.2466,0.0001275654,3.699,0,0.2466,8.291753E-05,3.699,0
0.2475,0.0001379721,3.7125,0,0.2475,4.129091E-05,3.7125,0
0.2484,0.0001809415,3.726,0,0.2484,-6.076142E-05,3.726,0
0.2493,2.920577E-05,3.7395,0,0.2493,-7.653925E-05,3.7395,0
0.2502,-7.653925E-05,3.753,0,0.2502,-0.0001084306,3.753,0
0.2511,6.6804E-05,3.7665,0,0.2511,-0.0001164874,3.7665,0
0.252,1.544213E-05,3.78,0,0.252,-4.129091E-05,3.78,0
0.2529,-1.376364E-05,3.7935,0,0.2529,2.450599E-05,3.7935,0
0.2538,-2.584878E-05,3.807,0,0.2538,4.061952E-05,3.807,0
0.2547,-2.652018E-05,3.8205,0,0.2547,4.968337E-05,3.8205,0
0.2556,-1.678492E-06,3.834,0,0.2556,4.263371E-05,3.834,0
0.2565,-8.291753E-05,3.8475,0,0.2565,-5.673304E-05,3.8475,0
0.2574,-1.510643E-05,3.861,0,0.2574,-0.0001077592,3.861,0
0.2583,-7.821774E-05,3.8745,0,0.2583,-0.0001460288,3.8745,0
0.2592,-0.00024271,3.888,0,0.2592,-0.0001644923,3.888,0
0.2601,-0.0001473716,3.9015,0,0.2601,-0.0001141375,3.9015,0
0.261,-6.713969E-06,3.915,0,0.261,-0.0001292439,3.915,0
0.2619,-4.699779E-06,3.9285,0,0.2619,-0.0001037308,3.9285,0
0.2628,-4.666209E-05,3.942,0,0.2628,1.208515E-05,3.942,0
0.2637,3.021286E-06,3.9555,0,0.2637,3.860533E-05,3.9555,0
0.2646,3.994812E-05,3.969,0,0.2646,4.766919E-05,3.969,0
0.2655,0.0001003738,3.9825,0,0.2655,9.097429E-05,3.9825,0
0.2664,0.0001084306,3.996,0,0.2664,6.54612E-05,3.996,0
0.2673,8.258183E-05,4.0095,0,0.2673,5.270466E-05,4.0095,0
0.2682,7.183947E-05,4.023,0,0.2682,3.189136E-05,4.023,0
0.2691,9.332418E-05,4.0365,0,0.2691,-8.392462E-06,4.0365,0
0.27,0.0001322652,4.05,0,0.27,-1.712062E-05,4.05,0
0.2709,0.0001514,4.0635,0,0.2709,-3.961242E-05,4.0635,0
0.2718,0.000136965,4.077,0,0.2718,-8.69459E-05,4.077,0
0.2727,-4.46479E-05,4.0905,0,0.2727,-1.309224E-05,4.0905,0
0.2736,-0.000252781,4.104,0,0.2736,9.433127E-05,4.104,0
0.2745,-0.0002168612,4.1175,0,0.2745,3.994812E-05,4.1175,0
0.2754,-0.0001299153,4.131,0,0.2754,1.007095E-06,4.131,0
0.2763,-3.659113E-05,4.1445,0,0.2763,2.618448E-05,4.1445,0
0.2772,2.920577E-05,4.158,0,0.2772,9.735256E-06,4.158,0
0.2781,-1.678492E-06,4.1715,0,0.2781,-4.061952E-05,4.1715,0
0.279,-4.196231E-05,4.185,0,0.279,5.706874E-06,4.185,0
0.2799,-5.001907E-05,4.1985,0,0.2799,-1.443504E-05,4.1985,0
0.2808,-2.853437E-05,4.212,0,0.2808,-0.0001943694,4.212,0
0.2817,5.270466E-05,4.2255,0,0.2817,-0.0002406958,4.2255,0
0.2826,6.277562E-05,4.239,0,0.2826,-0.0002128328,4.239,0
0.2835,3.692683E-06,4.2525,0,0.2835,-0.0001933623,4.2525,0
0.2844,9.634547E-05,4.266,0,0.2844,-0.0001097734,4.266,0
0.2853,0.0001554284,4.2795,0,0.2853,5.203327E-05,4.2795,0
0.2862,-2.618448E-05,4.293,0,0.2862,0.0001003738,4.293,0
0.2871,-4.43122E-05,4.3065,0,0.2871,0.0001084306,4.3065,0
0.288,3.356985E-07,4.32,0,0.288,9.903105E-05,4.32,0
0.2889,-0.0002376745,4.3335,0,0.2889,7.519646E-05,4.3335,0
0.2898,-0.0002568093,4.347,0,0.2898,0.0001849699,4.347,0
0.2907,1.510643E-05,4.3605,0,0.2907,0.0001107805,4.3605,0
0.2916,8.358892E-05,4.374,0,0.2916,3.054856E-05,4.374,0
0.2925,2.853437E-05,4.3875,0,0.2925,7.284657E-05,4.3875,0
0.2934,-7.016098E-05,4.401,0,0.2934,0.0001007095,4.401,0
0.2943,-5.874724E-05,4.4145,0,0.2943,5.706874E-06,4.4145,0
0.2952,-4.800488E-05,4.428,0,0.2952,-1.879912E-05,4.428,0
0.2961,-0.0001832914,4.4415,0,0.2961,-1.644922E-05,4.4415,0
0.297,-7.586786E-05,4.455,0,0.297,-3.256275E-05,4.455,0
0.2979,2.652018E-05,4.4685,0,0.2979,-5.304036E-05,4.4685,0
0.2988,0.0001587854,4.482,0,0.2988,-6.64683E-05,4.482,0
0.2997,0.0002457313,4.4955,0,0.2997,-3.524834E-05,4.4955,0
0.3006,0.0001151446,4.509,0,0.3006,-2.652018E-05,4.509,0
0.3015,9.735256E-05,4.5225,0,0.3015,-7.821774E-05,4.5225,0
0.3024,4.53193E-05,4.536,0,0.3024,-8.291753E-05,4.536,0
0.3033,-8.426032E-05,4.5495,0,0.3033,-2.887007E-05,4.5495,0
0.3042,-1.712062E-05,4.563,0,0.3042,-3.591974E-05,4.563,0
0.3051,-0.0001242084,4.5765,0,0.3051,-7.049668E-05,4.5765,0
0.306,-0.0002977645,4.59,0,0.306,-4.46479E-05,4.59,0
0.3069,-5.438316E-05,4.6035,0,0.3069,-5.069047E-05,4.6035,0
0.3078,3.692683E-05,4.617,0,0.3078,-9.567407E-05,4.617,0
0.3087,-5.706874E-05,4.6305,0,0.3087,-8.82887E-05,4.6305,0
0.3096,-9.097429E-05,4.644,0,0.3096,-6.948959E-05,4.644,0
0.3105,-4.666209E-05,4.6575,0,0.3105,-8.426032E-05,4.6575,0
0.3114,-0.0001151446,4.671,0,0.3114,-8.560311E-05,4.671,0
0.3123,5.035477E-06,4.6845,0,0.3123,-6.64683E-05,4.6845,0
0.3132,7.486076E-05,4.698,0,0.3132,-1.779202E-05,4.698,0
0.3141,0.0001762417,4.7115,0,0.3141,-2.349889E-06,4.7115,0
0.315,0.0001715419,4.725,0,0.315,-4.33051E-05,4.725,0
0.3159,0.0002000763,4.7385,0,0.3159,-6.61326E-05,4.7385,0
0.3168,0.0003931029,4.752,0,0.3168,-9.835965E-05,4.752,0
0.3177,0.0002594949,4.7655,0,0.3177,-0.0003279774,4.7655,0
0.3186,-5.673304E-05,4.779,0,0.3186,-0.0004414435,4.779,0
0.3195,-0.0001836271,4.7925,0,0.3195,-0.0003598688,4.7925,0
0.3204,-0.0001849699,4.806,0,0.3204,-0.0001265583,4.806,0
0.3213,-0.0004870985,4.8195,0,0.3213,0.0001171588,4.8195,0
0.3222,-0.0004454719,4.833,0,0.3222,0.000369604,4.833,0
0.3231,-0.0001393149,4.8465,0,0.3231,0.0005528954,4.8465,0
0.324,-8.82887E-05,4.86,0,0.324,0.0004011597,4.86,0
0.3249,-6.210422E-05,4.8735,0,0.3249,0.0002000763,4.8735,0
0.3258,1.007095E-05,4.887,0,0.3258,0.0001144732,4.887,0
0.3267,4.36408E-05,4.9005,0,0.3267,6.009003E-05,4.9005,0
0.3276,4.36408E-05,4.914,0,0.3276,1.510643E-05,4.914,0
0.3285,0.0001218585,4.9275,0,0.3285,-6.210422E-05,4.9275,0
0.3294,0.0001282368,4.941,0,0.3294,-4.766919E-05,4.941,0
0.3303,8.69459E-05,4.9545,0,0.3303,-1.040665E-05,4.9545,0
0.3312,7.721065E-05,4.968,0,0.3312,-6.210422E-05,4.968,0
0.3321,0.0001500572,4.9815,0,0.3321,-0.0001275654,4.9815,0
0.333,0.0001990692,4.995,0,0.333,-0.0001104448,4.995,0
0.3339,0.0002124971,5.0085,0,0.3339,-3.289845E-05,5.0085,0
0.3348,5.236896E-05,5.022,0,0.3348,-6.64683E-05,5.022,0
0.3357,-3.994812E-05,5.0355,0,0.3357,3.524834E-05,5.0355,0
0.3366,-9.030289E-05,5.049,0,0.3366,0.0001540856,5.049,0
0.3375,-0.0001205158,5.0625,0,0.3375,0.0001688563,5.0625,0
0.3384,-7.519646E-05,5.076,0,0.3384,8.69459E-05,5.076,0
0.3393,-0.0001003738,5.0895,0,0.3393,-3.155566E-05,5.0895,0
0.3402,-5.975433E-05,5.103,0,0.3402,-2.28275E-05,5.103,0
0.3411,1.007095E-05,5.1165,0,0.3411,-2.18204E-05,5.1165,0
0.342,6.51255E-05,5.13,0,0.342,-7.821774E-05,5.13,0
0.3429,-1.309224E-05,5.1435,0,0.3429,-8.627451E-05,5.1435,0
0.3438,-5.975433E-05,5.157,0,0.3438,-2.752728E-05,5.157,0
0.3447,3.457694E-05,5.1705,0,0.3447,-7.821774E-05,5.1705,0
0.3456,9.936675E-05,5.184,0,0.3456,-0.0002158541,5.184,0
0.3465,7.956054E-05,5.1975,0,0.3465,-0.0002158541,5.1975,0
0.3474,5.337606E-05,5.211,0,0.3474,-0.0001819486,5.211,0
0.3483,-2.719158E-05,5.2245,0,0.3483,-0.0001641566,5.2245,0
0.3492,-9.466698E-05,5.238,0,0.3492,-4.968337E-05,5.238,0
0.3501,-0.0002017548,5.2515,0,0.3501,0.0001131304,5.2515,0
0.351,-0.0001789273,5.265,0,0.351,0.0001144732,5.265,0
0.3519,-3.994812E-05,5.2785,0,0.3519,-1.074235E-05,5.2785,0
0.3528,5.841154E-05,5.292,0,0.3528,-5.270466E-05,5.292,0
0.3537,8.560311E-05,5.3055,0,0.3537,7.721065E-06,5.3055,0
0.3546,1.980621E-05,5.319,0,0.3546,4.968337E-05,5.319,0
0.3555,6.713969E-07,5.3325,0,0.3555,5.975433E-05,5.3325,0
0.3564,-3.692683E-06,5.346,0,0.3564,4.263371E-05,5.346,0
0.3573,-0.0001064164,5.3595,0,0.3573,3.994812E-05,5.3595,0
0.3582,-9.701686E-05,5.373,0,0.3582,-1.745632E-05,5.373,0
0.3591,3.323415E-05,5.3865,0,0.3591,-2.853437E-05,5.3865,0
0.36,9.768826E-05,5.4,0,0.36,2.752728E-05,5.4,0
0.3609,0.0002010834,5.4135,0,0.3609,1.443504E-05,5.4135,0
0.3618,0.0002729229,5.427,0,0.3618,-4.934768E-05,5.427,0
0.3627,0.000460914,5.4405,0,0.3627,-9.433127E-05,5.4405,0
0.3636,0.0004078737,5.454,0,0.3636,-9.533837E-05,5.454,0
0.3645,0.0001836271,5.4675,0,0.3645,-0.0001201801,5.4675,0
0.3654,2.383459E-05,5.481,0,0.3654,-0.0001121233,5.481,0
0.3663,-0.0002685588,5.4945,0,0.3663,-7.049668E-05,5.4945,0
0.3672,-0.0008681163,5.508,0,0.3672,6.378271E-06,5.508,0
0.3681,-0.0006059358,5.5215,0,0.3681,-1.577783E-05,5.5215,0
0.369,-0.0002447242,5.535,0,0.369,-4.666209E-05,5.535,0
0.3699,-0.0001534142,5.5485,0,0.3699,1.007095E-05,5.5485,0
0.3708,-3.021286E-06,5.562,0,0.3708,8.291753E-05,5.562,0
0.3717,9.063859E-06,5.5755,0,0.3717,2.517739E-05,5.5755,0
0.3726,8.291753E-05,5.589,0,0.3726,-9.701686E-05,5.589,0
0.3735,4.867628E-05,5.6025,0,0.3735,-0.0001232013,5.6025,0
0.3744,-6.74754E-05,5.616,0,0.3744,-0.0001809415,5.616,0
0.3753,-0.0001114519,5.6295,0,0.3753,-0.0001916838,5.6295,0
0.3762,-3.155566E-05,5.643,0,0.3762,-0.0001181659,5.643,0
0.3771,4.632639E-05,5.6565,0,0.3771,6.411841E-05,5.6565,0
0.378,0.0001010452,5.67,0,0.378,0.0001104448,5.67,0
0.3789,6.176852E-05,5.6835,0,0.3789,0.0001107805,5.6835,0
0.3798,5.001907E-05,5.697,0,0.3798,5.874724E-05,5.697,0
0.3807,2.1149E-05,5.7105,0,0.3807,4.599069E-05,5.7105,0
0.3816,-5.539025E-05,5.724,0,0.3816,2.853437E-05,5.724,0
0.3825,-2.752728E-05,5.7375,0,0.3825,-2.316319E-05,5.7375,0
0.3834,0.0001849699,5.751,0,0.3834,3.054856E-05,5.751,0
0.3843,0.0004911269,5.7645,0,0.3843,6.076142E-05,5.7645,0
0.3852,0.0005300679,5.778,0,0.3852,-2.786297E-05,5.778,0
0.3861,0.0002034333,5.7915,0,0.3861,-0.0001943694,5.7915,0
0.387,-0.0002333104,5.805,0,0.387,-0.0001396506,5.805,0
0.3879,-0.0002860151,5.8185,0,0.3879,-4.53193E-05,5.8185,0
0.3888,-0.0004850843,5.832,0,0.3888,-5.001907E-05,5.832,0
0.3897,-0.0004743419,5.8455,0,0.3897,-6.713969E-07,5.8455,0
0.3906,-7.855344E-05,5.859,0,0.3906,0.0001493858,5.859,0
0.3915,-3.591974E-05,5.8725,0,0.3915,0.0002856794,5.8725,0
0.3924,-2.081331E-05,5.886,0,0.3924,0.0001883268,5.886,0
0.3933,-3.256275E-05,5.8995,0,0.3933,4.263371E-05,5.8995,0
0.3942,-2.349889E-06,5.913,0,0.3942,1.309224E-05,5.913,0
0.3951,7.821774E-05,5.9265,0,0.3951,2.047761E-05,5.9265,0
0.396,0.0001285725,5.94,0,0.396,6.713969E-06,5.94,0
0.3969,0.000190341,5.9535,0,0.3969,-5.774014E-05,5.9535,0
0.3978,0.0003058213,5.967,0,0.3978,-0.000126894,5.967,0
0.3987,0.0004004883,5.9805,0,0.3987,-0.0001829557,5.9805,0
0.3996,0.0004280156,5.994,0,0.3996,-0.0002077974,5.994,0
0.4005,0.0002353246,6.0075,0,0.4005,-0.000126894,6.0075,0
0.4014,-0.0002641947,6.021,0,0.4014,-1.779202E-05,6.021,0
0.4023,-0.0005451743,6.0345,0,0.4023,6.478981E-05,6.0345,0
0.4032,-0.0005740444,6.048,0,0.4032,0.0001292439,6.048,0
0.4041,-0.0004125734,6.0615,0,0.4041,0.0001359579,6.0615,0
0.405,-0.000123537,6.075,0,0.405,5.606165E-05,6.075,0
0.4059,-0.0001359579,6.0885,0,0.4059,-3.356985E-07,6.0885,0
0.4068,-8.69459E-05,6.102,0,0.4068,-3.121996E-05,6.102,0
0.4077,1.510643E-05,6.1155,0,0.4077,-1.309224E-05,6.1155,0
0.4086,1.141375E-05,6.129,0,0.4086,-2.853437E-05,6.129,0
0.4095,1.577783E-05,6.1425,0,0.4095,-6.57969E-05,6.1425,0
0.4104,3.927672E-05,6.156,0,0.4104,-9.030289E-05,6.156,0
0.4113,2.920577E-05,6.1695,0,0.4113,-5.236896E-05,6.1695,0
0.4122,0.0001094377,6.183,0,0.4122,-3.994812E-05,6.183,0
0.4131,8.69459E-05,6.1965,0,0.4131,-0.0001487144,6.1965,0
0.414,3.189136E-05,6.21,0,0.414,-0.0002641947,6.21,0
0.4149,-2.920577E-05,6.2235,0,0.4149,-0.0002702373,6.2235,0
0.4158,5.035477E-06,6.237,0,0.4158,-0.0002232395,6.237,0
0.4167,3.189136E-05,6.2505,0,0.4167,-8.996719E-05,6.2505,0
0.4176,4.934768E-05,6.264,0,0.4176,8.392462E-05,6.264,0
0.4185,0.0001399863,6.2775,0,0.4185,0.0002319677,6.2775,0
0.4194,0.000105745,6.291,0,0.4194,0.0002648661,6.291,0
0.4203,6.814679E-05,6.3045,0,0.4203,0.0001272297,6.3045,0
0.4212,6.109713E-05,6.318,0,0.4212,8.023193E-05,6.318,0
0.4221,1.275654E-05,6.3315,0,0.4221,6.814679E-05,6.3315,0
0.423,2.517739E-05,6.345,0,0.423,2.24918E-05,6.345,0
0.4239,4.263371E-05,6.3585,0,0.4239,1.376364E-05,6.3585,0
0.4248,5.069047E-05,6.372,0,0.4248,-2.450599E-05,6.372,0
0.4257,6.143282E-05,6.3855,0,0.4257,-0.0002138399,6.3855,0
0.4266,0.0001980621,6.399,0,0.4266,-0.0003440909,6.399,0
0.4275,0.0001762417,6.4125,0,0.4275,-0.0003215991,6.4125,0
0.4284,3.659113E-05,6.426,0,0.4284,-0.0002218967,6.426,0
0.4293,7.989624E-05,6.4395,0,0.4293,-0.0001208515,6.4395,0
0.4302,3.021286E-06,6.453,0,0.4302,2.853437E-05,6.453,0
0.4311,-0.0001957122,6.4665,0,0.4311,0.000316228,6.4665,0
0.432,-0.0001245441,6.48,0,0.432,0.0002923934,6.48,0
0.4329,-1.242084E-05,6.4935,0,0.4329,0.0001151446,6.4935,0
0.4338,8.157473E-05,6.507,0,0.4338,3.793393E-05,6.507,0
0.4347,2.014191E-05,6.5205,0,0.4347,4.901198E-05,6.5205,0
0.4356,-0.0002470741,6.534,0,0.4356,9.869535E-05,6.534,0
0.4365,-0.0003951171,6.5475,0,0.4365,6.411841E-05,6.5475,0
0.4374,-0.0001641566,6.561,0,0.4374,-1.007095E-05,6.561,0
0.4383,6.78111E-05,6.5745,0,0.4383,3.591974E-05,6.5745,0
0.4392,0.0002145113,6.588,0,0.4392,7.788205E-05,6.588,0
0.4401,0.0002064546,6.6015,0,0.4401,1.644922E-05,6.6015,0
0.441,0.000158114,6.615,0,0.441,7.754635E-05,6.615,0
0.4419,8.526741E-05,6.6285,0,0.4419,2.316319E-05,6.6285,0
0.4428,-2.1149E-05,6.642,0,0.4428,-0.0001668421,6.642,0
0.4437,-6.076142E-05,6.6555,0,0.4437,-0.0002752728,6.6555,0
0.4446,-5.404745E-05,6.669,0,0.4446,-0.0002329748,6.669,0
0.4455,-0.0001356222,6.6825,0,0.4455,-0.0001638209,6.6825,0
0.4464,-1.913481E-05,6.696,0,0.4464,-6.6804E-05,6.696,0
0.4473,-4.061952E-05,6.7095,0,0.4473,1.812772E-05,6.7095,0
0.4482,-0.0002403601,6.723,0,0.4482,4.263371E-05,6.723,0
0.4491,-0.0004246586,6.7365,0,0.4491,7.351797E-05,6.7365,0
0.45,-0.000383032,6.75,0,0.45,2.047761E-05,6.75,0
0.4509,-0.0001916838,6.7635,0,0.4509,-9.399558E-06,6.7635,0
0.4518,-3.021286E-06,6.777,0,0.4518,4.733349E-05,6.777,0
0.4527,3.356985E-06,6.7905,0,0.4527,1.477073E-05,6.7905,0
0.4536,1.242084E-05,6.804,0,0.4536,-8.661021E-05,6.804,0
0.4545,7.351797E-05,6.8175,0,0.4545,-0.0001060807,6.8175,0
0.4554,8.560311E-05,6.831,0,0.4554,-8.69459E-05,6.831,0
0.4563,0.0001675135,6.8445,0,0.4563,-0.0001312581,6.8445,0
0.4572,0.0001540856,6.858,0,0.4572,-0.0002034333,6.858,0
0.4581,5.505455E-05,6.8715,0,0.4581,-0.0003390555,6.8715,0
0.459,0.0002024262,6.885,0,0.459,-0.000351812,6.885,0
0.4599,0.0002722515,6.8985,0,0.4599,-0.0003494621,6.8985,0
0.4608,0.0001607996,6.912,0,0.4608,-0.0002272679,6.912,0
0.4617,-0.0002339818,6.9255,0,0.4617,7.083238E-05,6.9255,0
0.4626,-0.0001983978,6.939,0,0.4626,0.0004179446,6.939,0
0.4635,-7.452507E-05,6.9525,0,0.4635,0.000646891,6.9525,0
0.4644,-0.0001255512,6.966,0,0.4644,0.0004521859,6.966,0
0.4653,5.035477E-06,6.9795,0,0.4653,0.0002558022,6.9795,0
0.4662,0.0001916838,6.993,0,0.4662,0.0001789273,6.993,0
0.4671,0.0003078355,7.0065,0,0.4671,5.539025E-05,7.0065,0
0.468,0.000200412,7.02,0,0.468,4.699779E-05,7.02,0
0.4689,0.000270573,7.0335,0,0.4689,4.36408E-06,7.0335,0
0.4698,0.0002984359,7.047,0,0.4698,-8.358892E-05,7.047,0
0.4707,4.36408E-06,7.0605,0,0.4707,-0.0001040665,7.0605,0
0.4716,-0.0003581903,7.074,0,0.4716,-4.229801E-05,7.074,0
0.4725,-0.0003702754,7.0875,0,0.4725,-3.826963E-05,7.0875,0
0.4734,-0.0002853437,7.101,0,0.4734,-3.256275E-05,7.101,0
0.4743,-0.0002860151,7.1145,0,0.4743,-8.493171E-05,7.1145,0
0.4752,-0.0003246204,7.128,0,0.4752,-7.989624E-05,7.128,0
0.4761,-9.231708E-05,7.1415,0,0.4761,-5.471885E-05,7.1415,0
0.477,8.493171E-05,7.155,0,0.477,-4.46479E-05,7.155,0
0.4779,7.687495E-05,7.1685,0,0.4779,-4.33051E-05,7.1685,0
0.4788,7.351797E-05,7.182,0,0.4788,-3.356985E-05,7.182,0
0.4797,0.0001161517,7.1955,0,0.4797,-6.009003E-05,7.1955,0
0.4806,3.054856E-05,7.209,0,0.4806,-7.418937E-05,7.209,0
0.4815,-2.987716E-05,7.2225,0,0.4815,-2.383459E-05,7.2225,0
0.4824,0.0001681849,7.236,0,0.4824,-6.076142E-05,7.236,0
0.4833,0.000179263,7.2495,0,0.4833,-8.358892E-05,7.2495,0
0.4842,-1.712062E-05,7.263,0,0.4842,-5.471885E-05,7.263,0
0.4851,-9.500267E-05,7.2765,0,0.4851,-4.43122E-05,7.2765,0
0.486,-9.634547E-05,7.29,0,0.486,-0.0001299153,7.29,0
0.4869,-0.0001467002,7.3035,0,0.4869,-0.0003105211,7.3035,0
0.4878,-3.894102E-05,7.317,0,0.4878,-0.0003212634,7.317,0
0.4887,0.0001762417,7.3305,0,0.4887,-0.0002017548,7.3305,0
0.4896,0.0001822843,7.344,0,0.4896,-8.191043E-05,7.344,0
0.4905,9.164568E-05,7.3575,0,0.4905,6.61326E-05,7.3575,0
0.4914,-0.0002823224,7.371,0,0.4914,0.0002417029,7.371,0
0.4923,-0.0001238727,7.3845,0,0.4923,0.0003951171,7.3845,0
0.4932,-5.035477E-06,7.398,0,0.4932,0.0001930266,7.398,0
0.4941,-3.793393E-05,7.4115,0,0.4941,7.956054E-05,7.4115,0
0.495,-4.934768E-05,7.425,0,0.495,7.821774E-05,7.425,0
0.4959,-1.174945E-05,7.4385,0,0.4959,4.061952E-05,7.4385,0
0.4968,7.284657E-05,7.452,0,0.4968,-2.417029E-05,7.452,0
0.4977,0.0001554284,7.4655,0,0.4977,-4.632639E-05,7.4655,0
0.4986,0.0001346151,7.479,0,0.4986,-2.920577E-05,7.479,0
0.4995,7.888914E-05,7.4925,0,0.4995,-0.0001245441,7.4925,0
0.5004,-0.0001994049,7.506,0,0.5004,-0.0001080949,7.506,0
0.5013,-0.0003538262,7.5195,0,0.5013,-9.164568E-05,7.5195,0
0.5022,-0.0001497215,7.533,0,0.5022,-6.6804E-05,7.533,0
0.5031,-5.807584E-05,7.5465,0,0.5031,-4.028382E-05,7.5465,0
0.504,1.309224E-05,7.56,0,0.504,-8.157473E-05,7.56,0
0.5049,8.291753E-05,7.5735,0,0.5049,-2.450599E-05,7.5735,0
0.5058,5.069047E-05,7.587,0,0.5058,5.572595E-05,7.587,0
0.5067,4.49836E-05,7.6005,0,0.5067,-3.356985E-06,7.6005,0
0.5076,0.0001299153,7.614,0,0.5076,-4.666209E-05,7.614,0
0.5085,0.0002239109,7.6275,0,0.5085,7.452507E-05,7.6275,0
0.5094,0.0002628519,7.641,0,0.5094,0.0001262226,7.641,0
0.5103,0.0001587854,7.6545,0,0.5103,2.1149E-05,7.6545,0
0.5112,8.291753E-05,7.668,0,0.5112,-2.047761E-05,7.668,0
0.5121,-0.0001342794,7.6815,0,0.5121,-0.0001168231,7.6815,0
0.513,-0.0002269322,7.695,0,0.513,-0.0002373388,7.695,0
0.5139,-0.000148043,7.7085,0,0.5139,-0.0003121996,7.7085,0
0.5148,-0.0001030594,7.722,0,0.5148,-0.000295079,7.722,0
0.5157,-0.0001258869,7.7355,0,0.5157,-0.0001980621,7.7355,0
0.5166,-0.0001030594,7.749,0,0.5166,-3.524834E-05,7.749,0
0.5175,-3.457694E-05,7.7625,0,0.5175,0.0002269322,7.7625,0
0.5184,7.721065E-06,7.776,0,0.5184,0.0003074998,7.776,0
0.5193,6.78111E-05,7.7895,0,0.5193,0.000224918,7.7895,0
0.5202,7.888914E-05,7.803,0,0.5202,0.0001607996,7.803,0
0.5211,0,7.8165,0,0.5211,-3.927672E-05,7.8165,0
0.522,-0.0001037308,7.83,0,0.522,-1.208515E-05,7.83,0
0.5229,-8.090334E-05,7.8435,0,0.5229,1.007095E-05,7.8435,0
0.5238,-9.768826E-05,7.857,0,0.5238,-8.090334E-05,7.857,0
0.5247,5.136187E-05,7.8705,0,0.5247,-6.311131E-05,7.8705,0
0.5256,0.0001607996,7.884,0,0.5256,5.539025E-05,7.884,0
0.5265,0.0003434196,7.8975,0,0.5265,0.0001393149,7.8975,0
0.5274,0.0004891127,7.911,0,0.5274,1.678492E-06,7.911,0
0.5283,0.0002591592,7.9245,0,0.5283,-0.0001735561,7.9245,0
0.5292,-9.063859E-05,7.938,0,0.5292,-0.0001252155,7.938,0
0.5301,-0.0002682231,7.9515,0,0.5301,-0.0001409934,7.9515,0
0.531,-0.0004166018,7.965,0,0.531,-0.000130251,7.965,0
0.5319,-0.0003521477,7.9785,0,0.5319,3.356985E-07,7.9785,0
0.5328,-0.0001856413,7.992,0,0.5328,0.0001889983,7.992,0
0.5337,5.673304E-05,8.0055,0,0.5337,8.493171E-05,8.0055,0
0.5346,0.0004716564,8.019,0,0.5346,-0.0001312581,8.019,0
0.5355,0.0003202563,8.0325,0,0.5355,-0.0002326391,8.0325,0
0.5364,8.661021E-05,8.046,0,0.5364,-0.0003111925,8.046,0
0.5373,7.150377E-05,8.0595,0,0.5373,-0.0002057832,8.0595,0
0.5382,-1.779202E-05,8.073,0,0.5382,4.028382E-06,8.073,0
0.5391,-0.0005223468,8.0865,0,0.5391,0.0002111543,8.0865,0
0.54,-0.0006814679,8.1,0,0.54,0.0002574807,8.1,0
0.5409,-0.0001863127,8.1135,0,0.5409,0.0002910506,8.1135,0
0.5418,8.459602E-05,8.127,0,0.5418,0.0003726253,8.127,0
0.5427,5.035477E-06,8.1405,0,0.5427,0.0002594949,8.1405,0
0.5436,-0.0001883268,8.154,0,0.5436,0.0001030594,8.154,0
0.5445,-8.761731E-05,8.1675,0,0.5445,-2.920577E-05,8.1675,0
0.5454,-5.941863E-05,8.181,0,0.5454,-0.0001198444,8.181,0
0.5463,-0.000102388,8.1945,0,0.5463,-5.807584E-05,8.1945,0
0.5472,0.0001121233,8.208,0,0.5472,-1.007095E-05,8.208,0
0.5481,0.0004743419,8.2215,0,0.5481,-3.256275E-05,8.2215,0
0.549,0.0003850462,8.235,0,0.549,-2.383459E-05,8.235,0
0.5499,0.0002735943,8.2485,0,0.5499,-0.0001960479,8.2485,0
0.5508,0.0003581903,8.262,0,0.5508,-0.0003981384,8.262,0
0.5517,0.0004092164,8.2755,0,0.5517,-0.000355169,8.2755,0
0.5526,2.517739E-05,8.289,0,0.5526,-0.0002507668,8.289,0
0.5535,-0.0004196231,8.3025,0,0.5535,-0.0001383078,8.3025,0
0.5544,-0.0005089189,8.316,0,0.5544,8.526741E-05,8.316,0
0.5553,-0.0003158923,8.3295,0,0.5553,0.0002185397,8.3295,0
0.5562,-0.0003810178,8.343,0,0.5562,0.0001775845,8.343,0
0.5571,-0.0003541619,8.3565,0,0.5571,6.277562E-05,8.3565,0
0.558,-5.807584E-05,8.37,0,0.558,-7.687495E-05,8.37,0
0.5589,-0.0002155184,8.3835,0,0.5589,-3.256275E-05,8.3835,0
0.5598,-0.0003048142,8.397,0,0.5598,1.510643E-05,8.397,0
0.5607,-4.800488E-05,8.4105,0,0.5607,1.510643E-05,8.4105,0
0.5616,0.000102388,8.424,0,0.5616,1.812772E-05,8.424,0
0.5625,9.567407E-05,8.4375,0,0.5625,4.733349E-05,8.4375,0
0.5634,0.0001409934,8.451,0,0.5634,7.385367E-06,8.451,0
0.5643,0.0001943694,8.4645,0,0.5643,-0.0001188373,8.4645,0
0.5652,0.0002218967,8.478,0,0.5652,-0.0001883268,8.478,0
0.5661,0.0001816129,8.4915,0,0.5661,-0.0001762417,8.4915,0
0.567,1.577783E-05,8.505,0,0.567,-0.000144686,8.505,0
0.5679,-5.471885E-05,8.5185,0,0.5679,-5.001907E-05,8.5185,0
0.5688,0.0001185016,8.532,0,0.5688,4.867628E-05,8.532,0
0.5697,4.599069E-05,8.5455,0,0.5697,0.0001728847,8.5455,0
0.5706,0.000102388,8.559,0,0.5706,0.0001453574,8.559,0
0.5715,0.0001359579,8.5725,0,0.5715,-4.028382E-06,8.5725,0
0.5724,-6.713969E-07,8.586,0,0.5724,-3.189136E-05,8.586,0
0.5733,-0.00021149,8.5995,0,0.5733,-3.021286E-06,8.5995,0
0.5742,-0.00024271,8.613,0,0.5742,-3.961242E-05,8.613,0
0.5751,1.342794E-05,8.6265,0,0.5751,-5.203327E-05,8.6265,0
0.576,6.411841E-05,8.64,0,0.576,-5.841154E-05,8.64,0
0.5769,0.0001332723,8.6535,0,0.5769,-8.090334E-05,8.6535,0
0.5778,0.0001695277,8.667,0,0.5778,-7.217517E-05,8.667,0
0.5787,0.0001493858,8.6805,0,0.5787,-1.611353E-05,8.6805,0
0.5796,0.0001943694,8.694,0,0.5796,5.001907E-05,8.694,0
0.5805,0.0003048142,8.7075,0,0.5805,5.404745E-05,8.7075,0
0.5814,0.0005485313,8.721,0,0.5814,7.721065E-06,8.721,0
0.5823,0.0006979171,8.7345,0,0.5823,-5.001907E-05,8.7345,0
0.5832,0.0004867628,8.748,0,0.5832,-9.634547E-05,8.748,0
0.5841,-5.069047E-05,8.7615,0,0.5841,-0.0001708705,8.7615,0
0.585,-0.0004129091,8.775,0,0.585,-0.0001574426,8.775,0
0.5859,-0.0009355916,8.7885,0,0.5859,-0.0001228656,8.7885,0
0.5868,-0.001016495,8.802,0,0.5868,-5.874724E-05,8.802,0
0.5877,-0.0004844129,8.8155,0,0.5877,-9.735256E-06,8.8155,0
0.5886,-0.0002017548,8.829,0,0.5886,1.980621E-05,8.829,0
0.5895,-0.0001141375,8.8425,0,0.5895,6.6804E-05,8.8425,0
0.5904,-7.217517E-05,8.856,0,0.5904,1.846342E-05,8.856,0
0.5913,-7.217517E-05,8.8695,0,0.5913,-3.356985E-07,8.8695,0
0.5922,-5.539025E-05,8.883,0,0.5922,8.459602E-05,8.883,0
0.5931,-1.913481E-05,8.8965,0,0.5931,6.277562E-05,8.8965,0
0.594,-1.007095E-05,8.91,0,0.594,-3.323415E-05,8.91,0
0.5949,0.0001201801,8.9235,0,0.5949,-0.0001144732,8.9235,0
0.5958,0.000224918,8.937,0,0.5958,-9.802396E-05,8.937,0
0.5967,0.0001701991,8.9505,0,0.5967,8.023193E-05,8.9505,0
0.5976,6.54612E-05,8.964,0,0.5976,4.666209E-05,8.964,0
0.5985,0.0001037308,8.9775,0,0.5985,-0.0001661708,8.9775,0
0.5994,4.53193E-05,8.991,0,0.5994,-0.0002292821,8.991,0
0.6003,-5.606165E-05,9.0045,0,0.6003,-0.0001688563,9.0045,0
0.6012,8.291753E-05,9.018,0,0.6012,-4.766919E-05,9.018,0
0.6021,0.0002779583,9.0315,0,0.6021,-6.713969E-07,9.0315,0
0.603,0.0003189135,9.045,0,0.603,0.000278294,9.045,0
0.6039,0.0001923552,9.0585,0,0.6039,0.0003988098,9.0585,0
0.6048,0.0001084306,9.072001,0,0.6048,0.0001957122,9.072001,0
0.6057,-0.0002014191,9.0855,0,0.6057,0.0001621424,9.0855,0
0.6066,-0.0004501717,9.099,0,0.6066,0.0001524071,9.099,0
0.6075,-0.0002840009,9.1125,0,0.6075,6.948959E-05,9.1125,0
0.6084,-2.081331E-05,9.126,0,0.6084,3.256275E-05,9.126,0
0.6093,1.242084E-05,9.1395,0,0.6093,7.083238E-05,9.1395,0
0.6102,-5.001907E-05,9.153,0,0.6102,6.378271E-06,9.153,0
0.6111,1.242084E-05,9.1665,0,0.6111,-0.0001849699,9.1665,0
0.612,-2.383459E-05,9.18,0,0.612,-0.000330663,9.18,0
0.6129,2.652018E-05,9.1935,0,0.6129,-0.0004283513,9.1935,0
0.6138,0.0002252537,9.207,0,0.6138,-0.000433051,9.207,0
0.6147,0.0003246204,9.2205,0,0.6147,-0.0004615854,9.2205,0
0.6156,0.0001698634,9.234,0,0.6156,-0.0004021668,9.234,0
0.6165,2.853437E-05,9.2475,0,0.6165,-0.0001426719,9.2475,0
0.6174,-9.433127E-05,9.261,0,0.6174,-4.867628E-05,9.261,0
0.6183,-0.0003387198,9.2745,0,0.6183,0.0001473716,9.2745,0
0.6192,-0.000200412,9.288,0,0.6192,0.0003642329,9.288,0
0.6201,8.89601E-05,9.3015,0,0.6201,0.0005334249,9.3015,0
0.621,0.0001205158,9.315,0,0.621,0.0004750133,9.315,0
0.6219,-2.584878E-05,9.3285,0,0.6219,0.0003964599,9.3285,0
0.6228,-0.0001591211,9.342,0,0.6228,0.0002608377,9.342,0
0.6237,-0.0001775845,9.3555,0,0.6237,7.486076E-05,9.3555,0
0.6246,-3.558404E-05,9.369,0,0.6246,6.243992E-05,9.369,0
0.6255,6.713969E-07,9.3825,0,0.6255,4.632639E-05,9.3825,0
0.6264,-8.86244E-05,9.396,0,0.6264,-7.956054E-05,9.396,0
0.6273,8.560311E-05,9.4095,0,0.6273,-0.0002608377,9.4095,0
0.6282,0.0003215991,9.423,0,0.6282,-0.0002890364,9.423,0
0.6291,0.0004172732,9.4365,0,0.6291,-0.0002581521,9.4365,0
0.63,0.0004276799,9.45,0,0.63,-0.0001624781,9.45,0
0.6309,7.553216E-05,9.4635,0,0.6309,5.706874E-06,9.4635,0
0.6318,-2.316319E-05,9.477,0,0.6318,9.365987E-05,9.477,0
0.6327,1.040665E-05,9.4905,0,0.6327,0.000119173,9.4905,0
0.6336,-0.0002044404,9.504,0,0.6336,9.903105E-05,9.504,0
0.6345,-0.0002702373,9.5175,0,0.6345,-4.028382E-06,9.5175,0
0.6354,-0.000295079,9.531,0,0.6354,-0.0001527428,9.531,0
0.6363,-0.00033402,9.5445,0,0.6363,-0.0002239109,9.5445,0
0.6372,-0.0003363699,9.558,0,0.6372,-0.0001537499,9.558,0
0.6381,-0.0001111162,9.5715,0,0.6381,-9.231708E-05,9.5715,0
0.639,-4.599069E-05,9.585,0,0.639,-4.263371E-05,9.585,0
0.6399,-0.0001493858,9.5985,0,0.6399,2.316319E-05,9.5985,0
0.6408,-0.0001594568,9.612,0,0.6408,6.64683E-05,9.612,0
0.6417,-0.000119173,9.6255,0,0.6417,7.956054E-05,9.6255,0
0.6426,-6.243992E-05,9.639,0,0.6426,-1.309224E-05,9.639,0
0.6435,-0.0001507286,9.6525,0,0.6435,-3.189136E-05,9.6525,0
0.6444,-5.539025E-05,9.666,0,0.6444,8.392462E-06,9.666,0
0.6453,-3.256275E-05,9.6795,0,0.6453,-3.256275E-05,9.6795,0
0.6462,8.89601E-05,9.693,0,0.6462,-4.934768E-05,9.693,0
0.6471,0.0002158541,9.7065,0,0.6471,-3.356985E-05,9.7065,0
0.648,0.0004615854,9.72,0,0.648,-4.46479E-05,9.72,0
0.6489,0.000509926,9.7335,0,0.6489,-7.016098E-05,9.7335,0
0.6498,0.0002863508,9.747,0,0.6498,-0.0001319295,9.747,0
0.6507,0.0001349508,9.7605,0,0.6507,-0.0001198444,9.7605,0
0.6516,-0.0001467002,9.774,0,0.6516,-0.0001379721,9.774,0
0.6525,-0.0002306248,9.7875,0,0.6525,-0.0001315938,9.7875,0
0.6534,-0.0004266728,9.801,0,0.6534,-9.332418E-05,9.801,0
0.6543,-0.0003655757,9.8145,0,0.6543,4.53193E-05,9.8145,0
0.6552,-0.000358526,9.828,0,0.6552,9.936675E-05,9.828,0
0.6561,-6.210422E-05,9.8415,0,0.6561,2.920577E-05,9.8415,0
0.657,1.443504E-05,9.855,0,0.657,9.063859E-05,9.855,0
0.6579,3.659113E-05,9.8685,0,0.6579,4.800488E-05,9.8685,0
0.6588,5.337606E-05,9.882,0,0.6588,-1.107805E-05,9.882,0
0.6597,3.289845E-05,9.8955,0,0.6597,-2.450599E-05,9.8955,0
0.6606,-7.116808E-05,9.909,0,0.6606,-2.1149E-05,9.909,0
0.6615,-2.383459E-05,9.9225,0,0.6615,-2.819867E-05,9.9225,0
0.6624,5.706874E-05,9.936,0,0.6624,-1.980621E-05,9.936,0
0.6633,5.069047E-05,9.9495,0,0.6633,-4.095522E-05,9.9495,0
0.6642,3.860533E-05,9.963,0,0.6642,-3.894102E-05,9.963,0
0.6651,6.143282E-05,9.976501,0,0.6651,-6.713969E-07,9.976501,0
0.666,9.332418E-05,9.99,0,0.666,-2.719158E-05,9.99,0
0.6669,8.493171E-05,10.0035,0,0.6669,-4.53193E-05,10.0035,0
0.6678,6.881819E-05,10.017,0,0.6678,-1.309224E-05,10.017,0
0.6687,8.392462E-05,10.0305,0,0.6687,-1.107805E-05,10.0305,0
0.6696,8.560311E-05,10.044,0,0.6696,-6.6804E-05,10.044,0
0.6705,6.881819E-05,10.0575,0,0.6705,-3.054856E-05,10.0575,0
0.6714,5.539025E-05,10.071,0,0.6714,-1.980621E-05,10.071,0
0.6723,4.33051E-05,10.0845,0,0.6723,-5.471885E-05,10.0845,0
0.6732,2.21561E-05,10.098,0,0.6732,-3.793393E-05,10.098,0
0.6741,5.035477E-06,10.1115,0,0.6741,-1.644922E-05,10.1115,0
0.675,2.786297E-05,10.125,0,0.675,-2.618448E-05,10.125,0
0.6759,2.652018E-05,10.1385,0,0.6759,-2.887007E-05,10.1385,0
0.6768,3.558404E-05,10.152,0,0.6768,-3.826963E-05,10.152,0
0.6777,7.721065E-06,10.1655,0,0.6777,-2.719158E-05,10.1655,0
0.6786,-1.846342E-05,10.179,0,0.6786,-3.356985E-07,10.179,0
0.6795,-3.457694E-05,10.1925,0,0.6795,-1.275654E-05,10.1925,0
0.6804,-4.061952E-05,10.206,0,0.6804,-5.404745E-05,10.206,0
0.6813,-3.323415E-05,10.2195,0,0.6813,-1.342794E-06,10.2195,0
0.6822,-3.256275E-05,10.233,0,0.6822,1.342794E-05,10.233,0
0.6831,-2.685588E-06,10.2465,0,0.6831,-3.860533E-05,10.2465,0
0.684,4.699779E-06,10.26,0,0.684,-3.356985E-06,10.26,0
0.6849,1.678492E-05,10.2735,0,0.6849,1.141375E-05,10.2735,0
0.6858,4.46479E-05,10.287,0,0.6858,-1.678492E-06,10.287,0
0.6867,4.46479E-05,10.3005,0,0.6867,2.316319E-05,10.3005,0
0.6876,2.383459E-05,10.314,0,0.6876,5.337606E-05,10.314,0
0.6885,3.256275E-05,10.3275,0,0.6885,1.007095E-05,10.3275,0
0.6894,2.853437E-05,10.341,0,0.6894,-3.524834E-05,10.341,0
0.6903,2.987716E-05,10.3545,0,0.6903,-5.001907E-05,10.3545,0
0.6912,2.450599E-05,10.368,0,0.6912,-4.263371E-05,10.368,0
0.6921,-1.309224E-05,10.3815,0,0.6921,-8.392462E-06,10.3815,0
0.693,-1.007095E-05,10.395,0,0.693,-1.678492E-06,10.395,0
0.6939,7.721065E-06,10.4085,0,0.6939,-1.678492E-06,10.4085,0
0.6948,-4.699779E-06,10.422,0,0.6948,1.007095E-05,10.422,0
0.6957,-3.189136E-05,10.4355,0,0.6957,-4.43122E-05,10.4355,0
0.6966,-2.14847E-05,10.449,0,0.6966,-8.627451E-05,10.449,0
0.6975,-1.879912E-05,10.4625,0,0.6975,-3.256275E-05,10.4625,0
0.6984,-9.735256E-06,10.476,0,0.6984,-1.007095E-06,10.476,0
0.6993,-2.450599E-05,10.4895,0,0.6993,2.081331E-05,10.4895,0
0.7002,-5.673304E-05,10.503,0,0.7002,4.46479E-05,10.503,0
0.7011,-0.0001164874,10.5165,0,0.7011,4.565499E-05,10.5165,0
0.702,-0.0001399863,10.53,0,0.702,2.081331E-05,10.53,0
0.7029,-0.0001379721,10.5435,0,0.7029,-8.392462E-06,10.5435,0
0.7038,-0.0001346151,10.557,0,0.7038,-4.061952E-05,10.557,0
0.7047,-0.0001171588,10.5705,0,0.7047,9.735256E-06,10.5705,0
0.7056,-0.0001373007,10.584,0,0.7056,4.46479E-05,10.584,0
0.7065,-0.000130251,10.5975,0,0.7065,1.141375E-05,10.5975,0
0.7074,-6.61326E-05,10.611,0,0.7074,-6.478981E-05,10.611,0
0.7083,-2.349889E-06,10.6245,0,0.7083,-7.351797E-05,10.6245,0
0.7092,0.0001030594,10.638,0,0.7092,-6.51255E-05,10.638,0
0.7101,0.0001500572,10.6515,0,0.7101,-0.0001114519,10.6515,0
0.711,0.0001225299,10.665,0,0.711,-5.941863E-05,10.665,0
0.7119,0.0001514,10.6785,0,0.7119,-3.524834E-05,10.6785,0
0.7128,0.0001178302,10.692,0,0.7128,-4.028382E-05,10.692,0
0.7137,7.754635E-05,10.7055,0,0.7137,-4.43122E-05,10.7055,0
0.7146,6.076142E-05,10.719,0,0.7146,7.721065E-06,10.719,0
0.7155,2.1149E-05,10.7325,0,0.7155,1.980621E-05,10.7325,0
0.7164,1.678492E-06,10.746,0,0.7164,2.450599E-05,10.746,0
0.7173,6.378271E-06,10.7595,0,0.7173,-1.913481E-05,10.7595,0
0.7182,-3.457694E-05,10.773,0,0.7182,-1.913481E-05,10.773,0
0.7191,-6.076142E-05,10.7865,0,0.7191,-3.457694E-05,10.7865,0
0.72,-3.256275E-05,10.8,0,0.72,-6.78111E-05,10.8,0
0.7209,-2.349889E-06,10.8135,0,0.7209,-3.189136E-05,10.8135,0
0.7218,-2.349889E-05,10.827,0,0.7218,1.577783E-05,10.827,0
0.7227,1.846342E-05,10.8405,0,0.7227,1.577783E-05,10.8405,0
0.7236,6.042573E-05,10.854,0,0.7236,-2.719158E-05,10.854,0
0.7245,1.779202E-05,10.8675,0,0.7245,-1.174945E-05,10.8675,0
0.7254,-6.277562E-05,10.881,0,0.7254,-5.706874E-06,10.881,0
0.7263,-9.835965E-05,10.8945,0,0.7263,-4.49836E-05,10.8945,0
0.7272,-9.869535E-05,10.908,0,0.7272,-3.826963E-05,10.908,0
0.7281,-0.0001077592,10.9215,0,0.7281,-1.342794E-05,10.9215,0
0.729,-0.000119173,10.935,0,0.729,-9.063859E-06,10.935,0
0.7299,-6.74754E-05,10.9485,0,0.7299,0,10.9485,0
0.7308,-5.673304E-05,10.962,0,0.7308,-1.644922E-05,10.962,0
0.7317,-5.471885E-05,10.9755,0,0.7317,2.584878E-05,10.9755,0
0.7326,-3.356985E-07,10.989,0,0.7326,6.54612E-05,10.989,0
0.7335,8.392462E-06,11.0025,0,0.7335,8.728161E-06,11.0025,0
0.7344,5.371176E-06,11.016,0,0.7344,-4.061952E-05,11.016,0
0.7353,5.270466E-05,11.0295,0,0.7353,2.014191E-06,11.0295,0
0.7362,5.975433E-05,11.043,0,0.7362,5.035477E-06,11.043,0
0.7371,9.063859E-06,11.0565,0,0.7371,-5.505455E-05,11.0565,0
0.738,-1.745632E-05,11.07,0,0.738,-5.069047E-05,11.07,0
0.7389,-9.735256E-06,11.0835,0,0.7389,-4.800488E-05,11.0835,0
0.7398,-3.121996E-05,11.097,0,0.7398,-8.426032E-05,11.097,0
0.7407,3.726253E-05,11.1105,0,0.7407,-5.941863E-05,11.1105,0
0.7416,4.666209E-05,11.124,0,0.7416,-1.913481E-05,11.124,0
0.7425,9.735256E-06,11.1375,0,0.7425,7.721065E-06,11.1375,0
0.7434,2.887007E-05,11.151,0,0.7434,-1.040665E-05,11.151,0
0.7443,5.740444E-05,11.1645,0,0.7443,-4.46479E-05,11.1645,0
0.7452,3.054856E-05,11.178,0,0.7452,-9.735256E-06,11.178,0
0.7461,2.014191E-06,11.1915,0,0.7461,-6.713969E-07,11.1915,0
0.747,-7.049668E-06,11.205,0,0.747,-2.786297E-05,11.205,0
0.7479,-2.047761E-05,11.2185,0,0.7479,-2.417029E-05,11.2185,0
0.7488,-9.735256E-06,11.232,0,0.7488,1.309224E-05,11.232,0
0.7497,-3.155566E-05,11.2455,0,0.7497,3.692683E-06,11.2455,0
0.7506,3.659113E-05,11.259,0,0.7506,-1.779202E-05,11.259,0
0.7515,6.378271E-06,11.2725,0,0.7515,1.577783E-05,11.2725,0
0.7524,-4.800488E-05,11.286,0,0.7524,2.719158E-05,11.286,0
0.7533,-3.121996E-05,11.2995,0,0.7533,-3.323415E-05,11.2995,0
0.7542,-8.426032E-05,11.313,0,0.7542,-4.800488E-05,11.313,0
0.7551,-8.86244E-05,11.3265,0,0.7551,-2.551309E-05,11.3265,0
0.756,-4.800488E-05,11.34,0,0.756,-1.712062E-05,11.34,0
0.7569,-4.196231E-05,11.3535,0,0.7569,-3.121996E-05,11.3535,0
0.7578,-3.491264E-05,11.367,0,0.7578,-7.553216E-05,11.367,0
0.7587,6.042573E-06,11.3805,0,0.7587,-1.947051E-05,11.3805,0
0.7596,4.061952E-05,11.394,0,0.7596,2.316319E-05,11.394,0
0.7605,3.189136E-05,11.4075,0,0.7605,2.584878E-05,11.4075,0
0.7614,1.745632E-05,11.421,0,0.7614,7.049668E-06,11.421,0
0.7623,-5.371176E-06,11.4345,0,0.7623,2.24918E-05,11.4345,0
0.7632,-1.577783E-05,11.448,0,0.7632,-2.081331E-05,11.448,0
0.7641,1.309224E-05,11.4615,0,0.7641,-6.445411E-05,11.4615,0
0.765,3.189136E-05,11.475,0,0.765,-5.035477E-06,11.475,0
0.7659,6.713969E-07,11.4885,0,0.7659,-1.577783E-05,11.4885,0
0.7668,6.042573E-06,11.502,0,0.7668,-5.035477E-05,11.502,0
0.7677,5.706874E-06,11.5155,0,0.7677,-1.779202E-05,11.5155,0
0.7686,-2.853437E-05,11.529,0,0.7686,-1.007095E-05,11.529,0
0.7695,-2.819867E-05,11.5425,0,0.7695,-1.107805E-05,11.5425,0
0.7704,-3.121996E-05,11.556,0,0.7704,1.678492E-06,11.556,0
0.7713,-7.049668E-06,11.5695,0,0.7713,-3.390555E-05,11.5695,0
0.7722,4.36408E-06,11.583,0,0.7722,-2.987716E-05,11.583,0
0.7731,1.040665E-05,11.5965,0,0.7731,-4.229801E-05,11.5965,0
0.774,-2.349889E-06,11.61,0,0.774,-4.901198E-05,11.61,0
0.7749,-3.021286E-06,11.6235,0,0.7749,-4.666209E-05,11.6235,0
0.7758,-3.356985E-07,11.637,0,0.7758,-3.356985E-06,11.637,0
0.7767,9.735256E-06,11.6505,0,0.7767,-1.477073E-05,11.6505,0
0.7776,-1.779202E-05,11.664,0,0.7776,-7.888914E-05,11.664,0
0.7785,-3.860533E-05,11.6775,0,0.7785,-2.920577E-05,11.6775,0
0.7794,-3.994812E-05,11.691,0,0.7794,1.342794E-06,11.691,0
0.7803,-3.121996E-05,11.7045,0,0.7803,-4.968337E-05,11.7045,0
0.7812,6.378271E-06,11.718,0,0.7812,-2.450599E-05,11.718,0
0.7821,1.443504E-05,11.7315,0,0.7821,3.692683E-05,11.7315,0
0.783,5.203327E-05,11.745,0,0.783,2.484169E-05,11.745,0
0.7839,5.874724E-05,11.7585,0,0.7839,1.510643E-05,11.7585,0
0.7848,8.560311E-05,11.772,0,0.7848,-9.735256E-06,11.772,0
0.7857,3.860533E-05,11.7855,0,0.7857,-1.107805E-05,11.7855,0
0.7866,5.706874E-06,11.799,0,0.7866,7.049668E-06,11.799,0
0.7875,2.1149E-05,11.8125,0,0.7875,-2.1149E-05,11.8125,0
0.7884,4.934768E-05,11.826,0,0.7884,-3.591974E-05,11.826,0
0.7893,2.316319E-05,11.8395,0,0.7893,6.042573E-06,11.8395,0
0.7902,-1.443504E-05,11.853,0,0.7902,-3.356985E-06,11.853,0
0.7911,-3.021286E-06,11.8665,0,0.7911,-4.196231E-05,11.8665,0
0.792,-1.678492E-06,11.88,0,0.792,-6.378271E-06,11.88,0
0.7929,-6.478981E-05,11.8935,0,0.7929,-1.107805E-05,11.8935,0
0.7938,-7.721065E-05,11.907,0,0.7938,-3.994812E-05,11.907,0
0.7947,-5.404745E-05,11.9205,0,0.7947,-4.33051E-05,11.9205,0
0.7956,-2.417029E-05,11.934,0,0.7956,-1.208515E-05,11.934,0
0.7965,-1.477073E-05,11.9475,0,0.7965,-1.678492E-06,11.9475,0
0.7974,-6.277562E-05,11.961,0,0.7974,-1.644922E-05,11.961,0
0.7983,-0.0001077592,11.9745,0,0.7983,-3.994812E-05,11.9745,0
0.7992,-9.567407E-05,11.988,0,0.7992,-3.088426E-05,11.988,0
0.8001,-8.92958E-05,12.0015,0,0.8001,-2.450599E-05,12.0015,0
0.801,-8.090334E-05,12.015,0,0.801,-6.210422E-05,12.015,0
0.8019,-3.189136E-05,12.0285,0,0.8019,-9.433127E-05,12.0285,0
0.8028,9.063859E-06,12.042,0,0.8028,-4.46479E-05,12.042,0
0.8037,6.478981E-05,12.0555,0,0.8037,-1.309224E-05,12.0555,0
0.8046,0.0001094377,12.069,0,0.8046,-1.947051E-05,12.069,0
0.8055,0.000105745,12.0825,0,0.8055,4.36408E-06,12.0825,0
0.8064,9.231708E-05,12.096,0,0.8064,-4.36408E-06,12.096,0
0.8073,6.378271E-05,12.1095,0,0.8073,-3.659113E-05,12.1095,0
0.8082,1.544213E-05,12.123,0,0.8082,-2.28275E-05,12.123,0
0.8091,1.644922E-05,12.1365,0,0.8091,-2.584878E-05,12.1365,0
0.81,6.378271E-06,12.15,0,0.81,-1.846342E-05,12.15,0
0.8109,5.035477E-06,12.1635,0,0.8109,-7.049668E-06,12.1635,0
0.8118,1.275654E-05,12.177,0,0.8118,-2.18204E-05,12.177,0
0.8127,-3.591974E-05,12.1905,0,0.8127,1.812772E-05,12.1905,0
0.8136,-3.457694E-05,12.204,0,0.8136,5.539025E-05,12.204,0
0.8145,-9.735256E-06,12.2175,0,0.8145,-3.356985E-07,12.2175,0
0.8154,-9.735256E-06,12.231,0,0.8154,-3.927672E-05,12.231,0
0.8163,-2.24918E-05,12.2445,0,0.8163,3.356985E-06,12.2445,0
0.8172,-7.721065E-06,12.258,0,0.8172,-6.378271E-06,12.258,0
0.8181,1.577783E-05,12.2715,0,0.8181,-7.721065E-05,12.2715,0
0.819,1.678492E-06,12.285,0,0.819,-5.471885E-05,12.285,0
0.8199,1.309224E-05,12.2985,0,0.8199,-1.007095E-05,12.2985,0
0.8208,-1.644922E-05,12.312,0,0.8208,-0.0001201801,12.312,0
0.8217,1.376364E-05,12.3255,0,0.8217,-0.0001013809,12.3255,0
0.8226,-2.349889E-05,12.339,0,0.8226,-1.309224E-05,12.339,0
0.8235,-2.18204E-05,12.3525,0,0.8235,2.014191E-06,12.3525,0
0.8244,-1.779202E-05,12.366,0,0.8244,9.063859E-06,12.366,0
0.8253,-8.728161E-06,12.3795,0,0.8253,-2.383459E-05,12.3795,0
0.8262,-7.721065E-06,12.393,0,0.8262,-1.309224E-05,12.393,0
0.8271,6.713969E-07,12.4065,0,0.8271,-6.713969E-07,12.4065,0
0.828,1.879912E-05,12.42,0,0.828,-1.443504E-05,12.42,0
0.8289,5.404745E-05,12.4335,0,0.8289,-1.980621E-05,12.4335,0
0.8298,1.174945E-05,12.447,0,0.8298,1.040665E-05,12.447,0
0.8307,-2.1149E-05,12.4605,0,0.8307,-2.987716E-05,12.4605,0
0.8316,2.383459E-05,12.474,0,0.8316,-5.471885E-05,12.474,0
0.8325,-2.014191E-06,12.4875,0,0.8325,7.049668E-06,12.4875,0
0.8334,-1.174945E-05,12.501,0,0.8334,9.735256E-06,12.501,0
0.8343,-1.007095E-06,12.5145,0,0.8343,-2.887007E-05,12.5145,0
0.8352,-4.901198E-05,12.528,0,0.8352,-1.376364E-05,12.528,0
0.8361,-6.74754E-05,12.5415,0,0.8361,5.203327E-05,12.5415,0
0.837,-5.606165E-05,12.555,0,0.837,3.390555E-05,12.555,0
0.8379,-4.061952E-05,12.5685,0,0.8379,-6.713969E-07,12.5685,0
0.8388,-4.263371E-05,12.582,0,0.8388,-4.632639E-05,12.582,0
0.8397,-2.316319E-05,12.5955,0,0.8397,-3.457694E-05,12.5955,0
0.8406,-1.107805E-05,12.609,0,0.8406,-5.841154E-05,12.609,0
0.8415,-3.659113E-05,12.6225,0,0.8415,-8.661021E-05,12.6225,0
0.8424,-1.745632E-05,12.636,0,0.8424,-3.591974E-05,12.636,0
0.8433,-3.121996E-05,12.6495,0,0.8433,1.040665E-05,12.6495,0
0.8442,3.692683E-06,12.663,0,0.8442,-7.721065E-06,12.663,0
0.8451,4.53193E-05,12.6765,0,0.8451,-4.46479E-05,12.6765,0
0.846,4.196231E-05,12.69,0,0.846,1.309224E-05,12.69,0
0.8469,-1.980621E-05,12.7035,0,0.8469,3.793393E-05,12.7035,0
0.8478,-3.390555E-05,12.717,0,0.8478,-2.954147E-05,12.717,0
0.8487,-1.007095E-06,12.7305,0,0.8487,-3.390555E-05,12.7305,0
0.8496,3.189136E-05,12.744,0,0.8496,2.349889E-06,12.744,0
0.8505,3.054856E-05,12.7575,0,0.8505,-4.699779E-05,12.7575,0
0.8514,1.947051E-05,12.771,0,0.8514,-4.733349E-05,12.771,0
0.8523,1.510643E-05,12.7845,0,0.8523,-3.726253E-05,12.7845,0
0.8532,-1.107805E-05,12.798,0,0.8532,2.047761E-05,12.798,0
0.8541,-3.860533E-05,12.8115,0,0.8541,5.740444E-05,12.8115,0
0.855,-3.121996E-05,12.825,0,0.855,4.733349E-05,12.825,0
0.8559,-3.692683E-05,12.8385,0,0.8559,2.014191E-05,12.8385,0
0.8568,-5.035477E-05,12.852,0,0.8568,2.417029E-05,12.852,0
0.8577,-2.719158E-05,12.8655,0,0.8577,-1.174945E-05,12.8655,0
0.8586,-1.644922E-05,12.879,0,0.8586,-6.277562E-05,12.879,0
0.8595001,-4.263371E-05,12.8925,0,0.8595001,-3.088426E-05,12.8925,0
0.8604,-5.740444E-05,12.906,0,0.8604,6.378271E-06,12.906,0
0.8613,-5.438316E-05,12.9195,0,0.8613,-3.021286E-06,12.9195,0
0.8622,7.721065E-06,12.933,0,0.8622,6.378271E-06,12.933,0
0.8631,-1.107805E-05,12.9465,0,0.8631,3.659113E-05,12.9465,0
0.864,-8.392462E-06,12.96,0,0.864,1.376364E-05,12.96,0
0.8649,1.107805E-05,12.9735,0,0.8649,-2.047761E-05,12.9735,0
0.8658,8.224613E-05,12.987,0,0.8658,-6.344701E-05,12.987,0
0.8667,0.0001037308,13.0005,0,0.8667,-0.0001000381,13.0005,0
0.8676,1.309224E-05,13.014,0,0.8676,-0.0001094377,13.014,0
0.8685,-1.007095E-06,13.0275,0,0.8685,-7.016098E-05,13.0275,0
0.8694,5.001907E-05,13.041,0,0.8694,-5.438316E-05,13.041,0
0.8703,0,13.0545,0,0.8703,-2.28275E-05,13.0545,0
0.8712,-3.994812E-05,13.068,0,0.8712,-2.21561E-05,13.068,0
0.8721,-3.793393E-05,13.0815,0,0.8721,-4.33051E-05,13.0815,0
0.873,-5.203327E-05,13.095,0,0.873,-7.049668E-06,13.095,0
0.8739,-1.779202E-05,13.1085,0,0.8739,1.510643E-05,13.1085,0
0.8748,9.063859E-06,13.122,0,0.8748,-1.611353E-05,13.122,0
0.8757,4.599069E-05,13.1355,0,0.8757,-5.371176E-06,13.1355,0
0.8766,-5.706874E-06,13.149,0,0.8766,-9.063859E-06,13.149,0
0.8775,-1.678492E-05,13.1625,0,0.8775,-4.061952E-05,13.1625,0
0.8784,-9.735256E-06,13.176,0,0.8784,-2.987716E-05,13.176,0
0.8793,-5.706874E-06,13.1895,0,0.8793,-4.699779E-05,13.1895,0
0.8802,-5.673304E-05,13.203,0,0.8802,-2.618448E-05,13.203,0
0.8811,-8.627451E-05,13.2165,0,0.8811,-2.987716E-05,13.2165,0
0.882,-5.807584E-05,13.23,0,0.882,-3.894102E-05,13.23,0
0.8829,-4.43122E-05,13.2435,0,0.8829,-3.155566E-05,13.2435,0
0.8838,-4.934768E-05,13.257,0,0.8838,3.189136E-05,13.257,0
0.8847,-4.43122E-05,13.2705,0,0.8847,3.256275E-05,13.2705,0
0.8856,-4.36408E-06,13.284,0,0.8856,-2.383459E-05,13.284,0
0.8865,2.1149E-05,13.2975,0,0.8865,1.678492E-05,13.2975,0
0.8874,2.517739E-05,13.311,0,0.8874,2.1149E-05,13.311,0
0.8883,2.652018E-05,13.3245,0,0.8883,-2.1149E-05,13.3245,0
0.8892,5.236896E-05,13.338,0,0.8892,2.24918E-05,13.338,0
0.8901,2.584878E-05,13.3515,0,0.8901,2.383459E-05,13.3515,0
0.891,4.53193E-05,13.365,0,0.891,6.713969E-07,13.365,0
0.8919,3.189136E-05,13.3785,0,0.8919,-3.491264E-05,13.3785,0
0.8928,2.752728E-05,13.392,0,0.8928,-7.150377E-05,13.392,0
0.8937,4.699779E-06,13.4055,0,0.8937,-4.766919E-05,13.4055,0
0.8946,2.652018E-05,13.419,0,0.8946,-1.913481E-05,13.419,0
0.8955,6.814679E-05,13.4325,0,0.8955,-2.517739E-05,13.4325,0
0.8964,3.155566E-05,13.446,0,0.8964,-3.021286E-06,13.446,0
0.8973,-2.987716E-05,13.4595,0,0.8973,4.968337E-05,13.4595,0
0.8982,-4.39765E-05,13.473,0,0.8982,-1.242084E-05,13.473,0
0.8991,-6.378271E-05,13.4865,0,0.8991,-0.0001245441,13.4865,0
0.9,-8.82887E-05,13.5,0,0.9,-6.210422E-05,13.5,0
0.9009,-6.51255E-05,13.5135,0,0.9009,-1.477073E-05,13.5135,0
0.9018,-2.987716E-05,13.527,0,0.9018,-4.162661E-05,13.527,0
0.9027,-1.141375E-05,13.5405,0,0.9027,-3.927672E-05,13.5405,0
0.9036,-2.24918E-05,13.554,0,0.9036,-1.913481E-05,13.554,0
0.9045,6.713969E-07,13.5675,0,0.9045,-1.107805E-05,13.5675,0
0.9054,-2.584878E-05,13.581,0,0.9054,-3.524834E-05,13.581,0
0.9063,-1.846342E-05,13.5945,0,0.9063,-4.46479E-05,13.5945,0
0.9072,2.21561E-05,13.608,0,0.9072,-5.035477E-06,13.608,0
0.9081,-2.18204E-05,13.6215,0,0.9081,4.061952E-05,13.6215,0
0.909,-3.121996E-05,13.635,0,0.909,1.409934E-05,13.635,0
0.9099,-1.040665E-05,13.6485,0,0.9099,-2.18204E-05,13.6485,0
0.9108,-1.242084E-05,13.662,0,0.9108,2.014191E-05,13.662,0
0.9117,-3.390555E-05,13.6755,0,0.9117,-5.706874E-06,13.6755,0
0.9126,-3.524834E-05,13.689,0,0.9126,-5.673304E-05,13.689,0
0.9135,-5.471885E-05,13.7025,0,0.9135,-1.947051E-05,13.7025,0
0.9144,-2.584878E-05,13.716,0,0.9144,-2.383459E-05,13.716,0
0.9153,8.056763E-06,13.7295,0,0.9153,-5.337606E-05,13.7295,0
0.9162,-5.035477E-06,13.743,0,0.9162,7.385367E-06,13.743,0
0.9171,2.383459E-05,13.7565,0,0.9171,3.189136E-05,13.7565,0
0.918,5.539025E-05,13.77,0,0.918,1.846342E-05,13.77,0
0.9189,6.042573E-05,13.7835,0,0.9189,2.21561E-05,13.7835,0
0.9198,5.337606E-05,13.797,0,0.9198,2.047761E-05,13.797,0
0.9207,-1.007095E-06,13.8105,0,0.9207,2.349889E-06,13.8105,0
0.9216,-4.666209E-05,13.824,0,0.9216,5.035477E-06,13.824,0
0.9225,-2.719158E-05,13.8375,0,0.9225,-2.349889E-05,13.8375,0
0.9234,-2.685588E-06,13.851,0,0.9234,-3.625543E-05,13.851,0
0.9243,-1.141375E-05,13.8645,0,0.9243,-5.706874E-06,13.8645,0
0.9252,3.021286E-06,13.878,0,0.9252,-4.028382E-06,13.878,0
0.9261,2.24918E-05,13.8915,0,0.9261,-5.069047E-05,13.8915,0
0.927,2.28275E-05,13.905,0,0.927,-2.014191E-05,13.905,0
0.9279,2.551309E-05,13.9185,0,0.9279,-1.208515E-05,13.9185,0
0.9288,-1.107805E-05,13.932,0,0.9288,-5.539025E-05,13.932,0
0.9297,-9.063859E-06,13.9455,0,0.9297,-4.095522E-05,13.9455,0
0.9306,-3.793393E-05,13.959,0,0.9306,-1.644922E-05,13.959,0
0.9315,-6.64683E-05,13.9725,0,0.9315,-3.591974E-05,13.9725,0
0.9324,-3.088426E-05,13.986,0,0.9324,-3.793393E-05,13.986,0
0.9333,-2.349889E-06,13.9995,0,0.9333,-5.807584E-05,13.9995,0
0.9342,-9.399558E-06,14.013,0,0.9342,-3.390555E-05,14.013,0
0.9351,3.692683E-06,14.0265,0,0.9351,2.014191E-06,14.0265,0
0.936,8.392462E-06,14.04,0,0.936,-3.793393E-05,14.04,0
0.9369,1.477073E-05,14.0535,0,0.9369,-5.706874E-05,14.0535,0
0.9378,-2.349889E-06,14.067,0,0.9378,-6.378271E-06,14.067,0
0.9387,-1.107805E-05,14.0805,0,0.9387,-4.699779E-06,14.0805,0
0.9396001,-5.706874E-06,14.094,0,0.9396001,-3.927672E-05,14.094,0
0.9405,-3.021286E-06,14.1075,0,0.9405,-3.692683E-06,14.1075,0
0.9414001,7.049668E-06,14.121,0,0.9414001,-2.316319E-05,14.121,0
0.9423,-1.376364E-05,14.1345,0,0.9423,-5.404745E-05,14.1345,0
0.9432001,-6.176852E-05,14.148,0,0.9432001,-4.263371E-05,14.148,0
0.9441,-5.069047E-05,14.1615,0,0.9441,-4.36408E-06,14.1615,0
0.9450001,-9.735256E-06,14.175,0,0.9450001,-6.378271E-06,14.175,0
0.9459,1.376364E-05,14.1885,0,0.9459,-2.584878E-05,14.1885,0
0.9468,1.342794E-05,14.202,0,0.9468,-5.069047E-05,14.202,0
0.9477,7.049668E-06,14.2155,0,0.9477,-1.779202E-05,14.2155,0
0.9486,1.376364E-05,14.229,0,0.9486,7.721065E-06,14.229,0
0.9495,3.088426E-05,14.2425,0,0.9495,-1.779202E-05,14.2425,0
0.9504,5.035477E-06,14.256,0,0.9504,-6.64683E-05,14.256,0
0.9513,-3.860533E-05,14.2695,0,0.9513,-8.392462E-06,14.2695,0
0.9522,-2.853437E-05,14.283,0,0.9522,1.846342E-05,14.283,0
0.9531,4.699779E-06,14.2965,0,0.9531,-1.040665E-05,14.2965,0
0.954,-2.18204E-05,14.31,0,0.954,3.155566E-05,14.31,0
0.9549,-3.323415E-05,14.3235,0,0.9549,8.728161E-06,14.3235,0
0.9558,5.706874E-06,14.337,0,0.9558,-7.318227E-05,14.337,0
0.9567,-1.242084E-05,14.3505,0,0.9567,-7.049668E-05,14.3505,0
0.9576,-3.961242E-05,14.364,0,0.9576,-5.371176E-05,14.364,0
0.9585,-1.443504E-05,14.3775,0,0.9585,-5.941863E-05,14.3775,0
0.9594,-2.349889E-06,14.391,0,0.9594,-4.901198E-05,14.391,0
0.9603,-3.524834E-05,14.4045,0,0.9603,-4.49836E-05,14.4045,0
0.9612,-1.947051E-05,14.418,0,0.9612,-3.021286E-06,14.418,0
0.9621,3.021286E-06,14.4315,0,0.9621,3.457694E-05,14.4315,0
0.963,-1.040665E-05,14.445,0,0.963,7.385367E-06,14.445,0
0.9639,1.577783E-05,14.4585,0,0.9639,1.007095E-06,14.4585,0
0.9648,2.450599E-05,14.472,0,0.9648,3.323415E-05,14.472,0
0.9657,8.392462E-06,14.4855,0,0.9657,9.399558E-06,14.4855,0
0.9666,-3.390555E-05,14.499,0,0.9666,-2.316319E-05,14.499,0
0.9675,-4.901198E-05,14.5125,0,0.9675,2.383459E-05,14.5125,0
0.9684,-8.392462E-06,14.526,0,0.9684,2.786297E-05,14.526,0
0.9693,-2.752728E-05,14.5395,0,0.9693,-1.577783E-05,14.5395,0
0.9702,1.980621E-05,14.553,0,0.9702,-1.577783E-05,14.553,0
0.9711,1.712062E-05,14.5665,0,0.9711,6.713969E-07,14.5665,0
0.972,2.047761E-05,14.58,0,0.972,-3.256275E-05,14.58,0
0.9729,2.652018E-05,14.5935,0,0.9729,-5.539025E-05,14.5935,0
0.9738,2.786297E-05,14.607,0,0.9738,-5.001907E-05,14.607,0
0.9747,2.584878E-05,14.6205,0,0.9747,-2.383459E-05,14.6205,0
0.9756,-1.409934E-05,14.634,0,0.9756,-3.155566E-05,14.634,0
0.9765,-2.517739E-05,14.6475,0,0.9765,-4.733349E-05,14.6475,0
0.9774,6.713969E-06,14.661,0,0.9774,-6.74754E-05,14.661,0
0.9783,-2.18204E-05,14.6745,0,0.9783,-3.021286E-05,14.6745,0
0.9792,-5.706874E-06,14.688,0,0.9792,-3.424125E-05,14.688,0
0.9801,8.728161E-06,14.7015,0,0.9801,-4.867628E-05,14.7015,0
0.981,-2.316319E-05,14.715,0,0.981,-9.735256E-06,14.715,0
0.9819,1.577783E-05,14.7285,0,0.9819,-1.007095E-06,14.7285,0
0.9828,3.692683E-05,14.742,0,0.9828,-5.203327E-05,14.742,0
0.9837,-3.692683E-06,14.7555,0,0.9837,-7.721065E-05,14.7555,0
0.9846,-2.28275E-05,14.769,0,0.9846,-5.404745E-05,14.769,0
0.9855,-1.275654E-05,14.7825,0,0.9855,-2.18204E-05,14.7825,0
0.9864,-9.735256E-06,14.796,0,0.9864,2.987716E-05,14.796,0
0.9873,-2.987716E-05,14.8095,0,0.9873,3.726253E-05,14.8095,0
0.9882,-2.417029E-05,14.823,0,0.9882,4.53193E-05,14.823,0
0.9891,5.706874E-06,14.8365,0,0.9891,2.316319E-05,14.8365,0
0.99,-5.035477E-06,14.85,0,0.99,-2.316319E-05,14.85,0
0.9909,-3.356985E-07,14.8635,0,0.9909,-2.047761E-05,14.8635,0
0.9918,2.618448E-05,14.877,0,0.9918,3.457694E-05,14.877,0
0.9927,5.706874E-06,14.8905,0,0.9927,9.063859E-06,14.8905,0
0.9936,5.035477E-06,14.904,0,0.9936,-4.565499E-05,14.904,0
0.9945,1.174945E-05,14.9175,0,0.9945,-2.349889E-06,14.9175,0
0.9954,-1.007095E-05,14.931,0,0.9954,3.390555E-05,14.931,0
0.9963,-1.913481E-05,14.9445,0,0.9963,-1.544213E-05,14.9445,0
0.9972,-1.779202E-05,14.958,0,0.9972,-4.263371E-05,14.958,0
0.9981,-5.706874E-05,14.9715,0,0.9981,-6.042573E-06,14.9715,0
0.999,-7.620356E-05,14.985,0,0.999,-1.107805E-05,14.985,0
0.9999,-5.270466E-05,14.9985,0,0.9999,-1.477073E-05,14.9985,0
1.0008,-2.18204E-05,15.012,0,1.0008,-5.035477E-05,15.012,0
1.0017,-2.316319E-05,15.0255,0,1.0017,-2.517739E-05,15.0255,0
1.0026,-3.659113E-05,15.039,0,1.0026,-1.007095E-06,15.039,0
1.0035,-6.713969E-07,15.0525,0,1.0035,-2.18204E-05,15.0525,0
1.0044,3.826963E-05,15.066,0,1.0044,-4.162661E-05,15.066,0
1.0053,1.443504E-05,15.0795,0,1.0053,-6.713969E-06,15.0795,0
1.0062,-1.544213E-05,15.093,0,1.0062,-2.786297E-05,15.093,0
1.0071,-1.242084E-05,15.1065,0,1.0071,-6.948959E-05,15.1065,0
1.008,-2.752728E-05,15.12,0,1.008,-1.376364E-05,15.12,0
1.0089,-2.081331E-05,15.1335,0,1.0089,2.853437E-05,15.1335,0
1.0098,-2.652018E-05,15.147,0,1.0098,-2.081331E-05,15.147,0
1.0107,1.040665E-05,15.1605,0,1.0107,-2.24918E-05,15.1605,0
1.0116,1.812772E-05,15.174,0,1.0116,2.349889E-06,15.174,0
1.0125,2.484169E-05,15.1875,0,1.0125,-7.049668E-06,15.1875,0
1.0134,5.706874E-06,15.201,0,1.0134,-1.376364E-05,15.201,0
1.0143,-6.378271E-06,15.2145,0,1.0143,-3.088426E-05,15.2145,0
1.0152,1.678492E-06,15.228,0,1.0152,-2.014191E-05,15.228,0
1.0161,-5.706874E-06,15.2415,0,1.0161,1.174945E-05,15.2415,0
1.017,1.007095E-05,15.255,0,1.017,-1.913481E-05,15.255,0
1.0179,9.399558E-06,15.2685,0,1.0179,-5.941863E-05,15.2685,0
1.0188,-2.517739E-05,15.282,0,1.0188,-1.510643E-05,15.282,0
1.0197,-2.047761E-05,15.2955,0,1.0197,-3.356985E-05,15.2955,0
1.0206,1.443504E-05,15.309,0,1.0206,-6.881819E-05,15.309,0
1.0215,-3.793393E-05,15.3225,0,1.0215,-3.356985E-07,15.3225,0
1.0224,-3.826963E-05,15.336,0,1.0224,1.611353E-05,15.336,0
1.0233,3.726253E-05,15.3495,0,1.0233,-4.129091E-05,15.3495,0
1.0242,1.342794E-05,15.363,0,1.0242,-5.069047E-05,15.363,0
1.0251,-1.980621E-05,15.3765,0,1.0251,-8.056763E-06,15.3765,0
1.026,-3.356985E-07,15.39,0,1.026,-5.706874E-06,15.39,0
1.0269,7.721065E-06,15.4035,0,1.0269,-1.376364E-05,15.4035,0
1.0278,4.36408E-06,15.417,0,1.0278,-3.591974E-05,15.417,0
1.0287,2.18204E-05,15.4305,0,1.0287,-1.040665E-05,15.4305,0
1.0296,4.36408E-05,15.444,0,1.0296,9.735256E-06,15.444,0
1.0305,3.994812E-05,15.4575,0,1.0305,-1.846342E-05,15.4575,0
1.0314,7.721065E-06,15.471,0,1.0314,-5.404745E-05,15.471,0
1.0323,-2.652018E-05,15.4845,0,1.0323,-1.980621E-05,15.4845,0
1.0332,-2.081331E-05,15.498,0,1.0332,-4.229801E-05,15.498,0
1.0341,-1.779202E-05,15.5115,0,1.0341,-7.452507E-05,15.5115,0
1.035,-3.289845E-05,15.525,0,1.035,-8.392462E-06,15.525,0
1.0359,-3.457694E-05,15.5385,0,1.0359,3.356985E-06,15.5385,0
1.0368,-3.524834E-05,15.552,0,1.0368,-4.095522E-05,15.552,0
1.0377,3.256275E-05,15.5655,0,1.0377,-4.061952E-05,15.5655,0
1.0386,2.719158E-05,15.579,0,1.0386,-1.040665E-05,15.579,0
1.0395,1.309224E-05,15.5925,0,1.0395,-3.356985E-07,15.5925,0
1.0404,6.378271E-06,15.606,0,1.0404,-2.014191E-06,15.606,0
1.0413,-2.349889E-06,15.6195,0,1.0413,-3.793393E-05,15.6195,0
1.0422,-8.056763E-06,15.633,0,1.0422,-1.477073E-05,15.633,0
1.0431,-1.342794E-06,15.6465,0,1.0431,1.074235E-05,15.6465,0
1.044,1.510643E-05,15.66,0,1.044,-2.047761E-05,15.66,0
1.0449,2.887007E-05,15.6735,0,1.0449,-2.920577E-05,15.6735,0
1.0458,1.577783E-05,15.687,0,1.0458,1.141375E-05,15.687,0
1.0467,-1.544213E-05,15.7005,0,1.0467,-2.551309E-05,15.7005,0
1.0476,-8.392462E-06,15.714,0,1.0476,-6.076142E-05,15.714,0
1.0485,-2.819867E-05,15.7275,0,1.0485,-3.692683E-06,15.7275,0
1.0494,-4.766919E-05,15.741,0,1.0494,9.063859E-06,15.741,0
1.0503,-2.24918E-05,15.7545,0,1.0503,-1.510643E-05,15.7545,0
1.0512,-7.989624E-05,15.768,0,1.0512,-1.678492E-05,15.768,0
1.0521,-7.687495E-05,15.7815,0,1.0521,-1.007095E-05,15.7815,0
1.053,-7.049668E-06,15.795,0,1.053,-5.001907E-05,15.795,0
1.0539,0,15.8085,0,1.0539,-3.793393E-05,15.8085,0
1.0548,3.121996E-05,15.822,0,1.0548,-2.719158E-05,15.822,0
1.0557,1.812772E-05,15.8355,0,1.0557,-2.987716E-05,15.8355,0
1.0566,-4.49836E-05,15.849,0,1.0566,1.913481E-05,15.849,0
1.0575,-3.591974E-05,15.8625,0,1.0575,-2.18204E-05,15.8625,0
1.0584,-2.28275E-05,15.876,0,1.0584,-5.270466E-05,15.876,0
1.0593,-6.848249E-05,15.8895,0,1.0593,-1.644922E-05,15.8895,0
1.0602,-4.901198E-05,15.903,0,1.0602,1.007095E-06,15.903,0
1.0611,-6.713969E-07,15.9165,0,1.0611,-4.53193E-05,15.9165,0
1.062,2.652018E-05,15.93,0,1.062,9.735256E-06,15.93,0
1.0629,2.517739E-05,15.9435,0,1.0629,2.450599E-05,15.9435,0
1.0638,-1.678492E-06,15.957,0,1.0638,-3.424125E-05,15.957,0
1.0647,-4.263371E-05,15.9705,0,1.0647,-3.323415E-05,15.9705,0
1.0656,-4.599069E-05,15.984,0,1.0656,5.035477E-06,15.984,0
1.0665,-1.644922E-05,15.9975,0,1.0665,-8.728161E-06,15.9975,0
1.0674,-5.706874E-06,16.011,0,1.0674,-1.678492E-06,16.011,0
1.0683,1.947051E-05,16.0245,0,1.0683,-2.047761E-05,16.0245,0
1.0692,4.263371E-05,16.038,0,1.0692,-3.356985E-06,16.038,0
1.0701,6.042573E-06,16.0515,0,1.0701,1.107805E-05,16.0515,0
1.071,-1.141375E-05,16.065,0,1.071,-2.719158E-05,16.065,0
1.0719,7.385367E-06,16.0785,0,1.0719,-3.323415E-05,16.0785,0
1.0728,1.678492E-06,16.092,0,1.0728,-6.042573E-06,16.092,0
1.0737,1.007095E-06,16.1055,0,1.0737,-5.371176E-06,16.1055,0
1.0746,5.706874E-06,16.119,0,1.0746,-4.46479E-05,16.119,0
1.0755,-3.356985E-05,16.1325,0,1.0755,2.349889E-06,16.1325,0
1.0764,-1.107805E-05,16.146,0,1.0764,-7.049668E-06,16.146,0
1.0773,-1.342794E-06,16.1595,0,1.0773,-6.243992E-05,16.1595,0
1.0782,-5.706874E-06,16.173,0,1.0782,-2.987716E-05,16.173,0
1.0791,0,16.1865,0,1.0791,9.735256E-06,16.1865,0
1.08,5.035477E-06,16.2,0,1.08,4.36408E-06,16.2,0
1.0809,2.1149E-05,16.2135,0,1.0809,-6.378271E-06,16.2135,0
1.0818,1.846342E-05,16.227,0,1.0818,-3.021286E-06,16.227,0
1.0827,-7.049668E-06,16.2405,0,1.0827,1.510643E-05,16.2405,0
1.0836,-4.800488E-05,16.254,0,1.0836,8.392462E-06,16.254,0
1.0845,-4.028382E-06,16.2675,0,1.0845,-2.853437E-05,16.2675,0
1.0854,5.337606E-05,16.281,0,1.0854,-8.69459E-05,16.281,0
1.0863,2.484169E-05,16.2945,0,1.0863,-4.666209E-05,16.2945,0
1.0872,3.591974E-05,16.308,0,1.0872,-7.351797E-05,16.308,0
1.0881,2.987716E-05,16.3215,0,1.0881,-0.000105745,16.3215,0
1.089,-6.378271E-06,16.335,0,1.089,-2.719158E-05,16.335,0
1.0899,1.040665E-05,16.3485,0,1.0899,7.016098E-05,16.3485,0
1.0908,-4.36408E-06,16.362,0,1.0908,4.934768E-05,16.362,0
1.0917,-4.599069E-05,16.3755,0,1.0917,-1.040665E-05,16.3755,0
1.0926,-4.800488E-05,16.389,0,1.0926,2.014191E-05,16.389,0
1.0935,-2.1149E-05,16.4025,0,1.0935,7.721065E-06,16.4025,0
1.0944,-3.390555E-05,16.416,0,1.0944,-1.947051E-05,16.416,0
1.0953,-1.644922E-05,16.4295,0,1.0953,-4.36408E-05,16.4295,0
1.0962,3.021286E-06,16.443,0,1.0962,-2.18204E-05,16.443,0
1.0971,1.174945E-05,16.4565,0,1.0971,-1.846342E-05,16.4565,0
1.098,7.049668E-06,16.47,0,1.098,-4.800488E-05,16.47,0
1.0989,1.678492E-06,16.4835,0,1.0989,-5.941863E-05,16.4835,0
1.0998,-6.478981E-05,16.497,0,1.0998,-4.699779E-06,16.497,0
1.1007,-6.076142E-05,16.5105,0,1.1007,-1.107805E-05,16.5105,0
1.1016,2.28275E-05,16.524,0,1.1016,-3.054856E-05,16.524,0
1.1025,-3.356985E-07,16.5375,0,1.1025,8.392462E-06,16.5375,0
1.1034,-2.987716E-05,16.551,0,1.1034,2.349889E-06,16.551,0
1.1043,2.584878E-05,16.5645,0,1.1043,-3.591974E-05,16.5645,0
1.1052,1.007095E-06,16.578,0,1.1052,-4.028382E-05,16.578,0
1.1061,-2.551309E-05,16.5915,0,1.1061,-3.021286E-05,16.5915,0
1.107,1.443504E-05,16.605,0,1.107,-3.994812E-05,16.605,0
1.1079,3.356985E-06,16.6185,0,1.1079,-2.24918E-05,16.6185,0
1.1088,-2.987716E-05,16.632,0,1.1088,-2.853437E-05,16.632,0
1.1097,-4.766919E-05,16.6455,0,1.1097,-2.517739E-05,16.6455,0
1.1106,-4.666209E-05,16.659,0,1.1106,-1.107805E-05,16.659,0
1.1115,-2.047761E-05,16.6725,0,1.1115,-3.457694E-05,16.6725,0
1.1124,5.035477E-06,16.686,0,1.1124,-6.009003E-05,16.686,0
1.1133,2.652018E-05,16.6995,0,1.1133,-1.242084E-05,16.6995,0
1.1142,2.24918E-05,16.713,0,1.1142,-5.035477E-06,16.713,0
1.1151,-6.713969E-07,16.7265,0,1.1151,-3.457694E-05,16.7265,0
1.116,7.049668E-06,16.74,0,1.116,-1.510643E-05,16.74,0
1.1169,2.18204E-05,16.7535,0,1.1169,1.477073E-05,16.7535,0
1.1178,-1.913481E-05,16.767,0,1.1178,-2.047761E-05,16.767,0
1.1187,-3.356985E-07,16.7805,0,1.1187,-2.584878E-05,16.7805,0
1.1196,-3.356985E-07,16.794,0,1.1196,1.544213E-05,16.794,0
1.1205,-2.047761E-05,16.8075,0,1.1205,-1.242084E-05,16.8075,0
1.1214,-4.800488E-05,16.821,0,1.1214,-3.524834E-05,16.821,0
1.1223,-3.692683E-06,16.8345,0,1.1223,-3.558404E-05,16.8345,0
1.1232,-9.735256E-06,16.848,0,1.1232,3.356985E-07,16.848,0
1.1241,-7.418937E-05,16.8615,0,1.1241,1.779202E-05,16.8615,0
1.125,-1.174945E-05,16.875,0,1.125,-9.735256E-06,16.875,0
1.1259,1.242084E-05,16.8885,0,1.1259,-2.18204E-05,16.8885,0
1.1268,6.713969E-06,16.902,0,1.1268,1.544213E-05,16.902,0
1.1277,2.887007E-05,16.9155,0,1.1277,-2.786297E-05,16.9155,0
1.1286,3.591974E-05,16.929,0,1.1286,-7.788205E-05,16.929,0
1.1295,1.678492E-06,16.9425,0,1.1295,-1.208515E-05,16.9425,0
1.1304,2.450599E-05,16.956,0,1.1304,-1.342794E-05,16.956,0
1.1313,2.517739E-05,16.9695,0,1.1313,-2.1149E-05,16.9695,0
1.1322,-3.424125E-05,16.983,0,1.1322,1.980621E-05,16.983,0
1.1331,-2.584878E-05,16.9965,0,1.1331,1.040665E-05,16.9965,0
1.134,2.014191E-06,17.01,0,1.134,-2.21561E-05,17.01,0
1.1349,-9.735256E-06,17.0235,0,1.1349,-3.726253E-05,17.0235,0
1.1358,5.035477E-06,17.037,0,1.1358,-4.599069E-05,17.037,0
1.1367,3.121996E-05,17.0505,0,1.1367,-2.652018E-05,17.0505,0
1.1376,2.584878E-05,17.064,0,1.1376,-8.728161E-06,17.064,0
1.1385,7.049668E-06,17.0775,0,1.1385,-2.786297E-05,17.0775,0
1.1394,1.342794E-05,17.091,0,1.1394,-4.43122E-05,17.091,0
1.1403,-2.819867E-05,17.1045,0,1.1403,-2.517739E-05,17.1045,0
1.1412,-1.980621E-05,17.118,0,1.1412,-3.591974E-05,17.118,0
1.1421,1.678492E-06,17.1315,0,1.1421,-5.539025E-05,17.1315,0
1.143,1.678492E-05,17.145,0,1.143,-1.141375E-05,17.145,0
1.1439,-1.141375E-05,17.1585,0,1.1439,1.510643E-05,17.1585,0
1.1448,-4.36408E-06,17.172,0,1.1448,-1.544213E-05,17.172,0
1.1457,-1.007095E-06,17.1855,0,1.1457,3.692683E-06,17.1855,0
1.1466,-4.901198E-05,17.199,0,1.1466,1.611353E-05,17.199,0
1.1475,-4.867628E-05,17.2125,0,1.1475,-1.007095E-06,17.2125,0
1.1484,-3.591974E-05,17.226,0,1.1484,-3.121996E-05,17.226,0
1.1493,-2.786297E-05,17.2395,0,1.1493,-5.740444E-05,17.2395,0
1.1502,-3.457694E-05,17.253,0,1.1502,-4.263371E-05,17.253,0
1.1511,-3.726253E-05,17.2665,0,1.1511,-1.107805E-05,17.2665,0
1.152,-5.639734E-05,17.28,0,1.152,-5.606165E-05,17.28,0
1.1529,-3.424125E-05,17.2935,0,1.1529,-7.754635E-05,17.2935,0
1.1538,-1.812772E-05,17.307,0,1.1538,1.510643E-05,17.307,0
1.1547,-2.685588E-06,17.3205,0,1.1547,4.666209E-05,17.3205,0
1.1556,3.524834E-05,17.334,0,1.1556,-5.706874E-06,17.334,0
1.1565,2.752728E-05,17.3475,0,1.1565,6.378271E-06,17.3475,0
1.1574,7.049668E-06,17.361,0,1.1574,6.042573E-06,17.361,0
1.1583,1.577783E-05,17.3745,0,1.1583,-2.081331E-05,17.3745,0
1.1592,3.121996E-05,17.388,0,1.1592,-2.819867E-05,17.388,0
1.1601,1.007095E-05,17.4015,0,1.1601,-2.081331E-05,17.4015,0
1.161,-1.477073E-05,17.415,0,1.161,-5.371176E-05,17.415,0
1.1619,-1.376364E-05,17.4285,0,1.1619,-3.860533E-05,17.4285,0
1.1628,1.678492E-06,17.442,0,1.1628,-3.021286E-05,17.442,0
1.1637,-1.644922E-05,17.4555,0,1.1637,-2.1149E-05,17.4555,0
1.1646,-5.539025E-05,17.469,0,1.1646,-1.107805E-05,17.469,0
1.1655,-4.901198E-05,17.4825,0,1.1655,-2.618448E-05,17.4825,0
1.1664,-3.457694E-05,17.496,0,1.1664,-3.860533E-05,17.496,0
1.1673,-3.021286E-05,17.5095,0,1.1673,3.356985E-07,17.5095,0
1.1682,-1.678492E-05,17.523,0,1.1682,-3.356985E-07,17.523,0
1.1691,-6.713969E-07,17.5365,0,1.1691,-6.243992E-05,17.5365,0
1.17,-4.699779E-05,17.55,0,1.17,-4.599069E-05,17.55,0
1.1709,4.699779E-06,17.5635,0,1.1709,-3.256275E-05,17.5635,0
1.1718,7.217517E-05,17.577,0,1.1718,-5.807584E-05,17.577,0
1.1727,2.047761E-05,17.5905,0,1.1727,-1.678492E-06,17.5905,0
1.1736,-8.392462E-06,17.604,0,1.1736,6.143282E-05,17.604,0
1.1745,-1.275654E-05,17.6175,0,1.1745,0.000102388,17.6175,0
1.1754,-6.009003E-05,17.631,0,1.1754,1.174945E-05,17.631,0
1.1763,-2.920577E-05,17.6445,0,1.1763,-3.390555E-05,17.6445,0
1.1772,5.337606E-05,17.658,0,1.1772,-1.846342E-05,17.658,0
1.1781,-2.685588E-06,17.6715,0,1.1781,-2.450599E-05,17.6715,0
1.179,-2.719158E-05,17.685,0,1.179,-2.987716E-05,17.685,0
1.1799,1.174945E-05,17.6985,0,1.1799,-4.196231E-05,17.6985,0
1.1808,2.920577E-05,17.712,0,1.1808,-4.36408E-06,17.712,0
1.1817,1.947051E-05,17.7255,0,1.1817,-5.035477E-06,17.7255,0
1.1826,2.685588E-06,17.739,0,1.1826,-4.800488E-05,17.739,0
1.1835,-1.712062E-05,17.7525,0,1.1835,-1.107805E-05,17.7525,0
1.1844,-4.028382E-06,17.766,0,1.1844,6.713969E-07,17.766,0
1.1853,1.712062E-05,17.7795,0,1.1853,-3.793393E-05,17.7795,0
1.1862,2.685588E-05,17.793,0,1.1862,-3.927672E-05,17.793,0
1.1871,-9.735256E-06,17.8065,0,1.1871,1.007095E-06,17.8065,0
1.188,7.049668E-06,17.82,0,1.188,-3.088426E-05,17.82,0
1.1889,1.947051E-05,17.8335,0,1.1889,-2.853437E-05,17.8335,0
1.1898,-1.309224E-05,17.847,0,1.1898,-3.759823E-05,17.847,0
1.1907,-9.063859E-06,17.8605,0,1.1907,-2.920577E-05,17.8605,0
1.1916,-2.652018E-05,17.874,0,1.1916,-6.713969E-07,17.874,0
1.1925,-4.699779E-06,17.8875,0,1.1925,-2.484169E-05,17.8875,0
1.1934,3.356985E-07,17.901,0,1.1934,-3.927672E-05,17.901,0
1.1943,-2.517739E-05,17.9145,0,1.1943,-2.047761E-05,17.9145,0
1.1952,9.735256E-06,17.928,0,1.1952,-1.812772E-05,17.928,0
1.1961,-1.644922E-05,17.9415,0,1.1961,-4.934768E-05,17.9415,0
1.197,-6.881819E-05,17.955,0,1.197,-1.644922E-05,17.955,0
1.1979,-3.323415E-05,17.9685,0,1.1979,-7.721065E-06,17.9685,0
1.1988,-3.692683E-05,17.982,0,1.1988,-1.510643E-05,17.982,0
1.1997,-4.49836E-05,17.9955,0,1.1997,-9.063859E-06,17.9955,0
1.2006,-4.766919E-05,18.009,0,1.2006,-8.392462E-06,18.009,0
1.2015,-6.713969E-07,18.0225,0,1.2015,-1.107805E-05,18.0225,0
1.2024,3.692683E-06,18.036,0,1.2024,-1.309224E-05,18.036,0
1.2033,4.263371E-05,18.0495,0,1.2033,-2.618448E-05,18.0495,0
1.2042,2.920577E-05,18.063,0,1.2042,-1.812772E-05,18.063,0
1.2051,-2.349889E-06,18.0765,0,1.2051,9.063859E-06,18.0765,0
1.206,6.713969E-07,18.09,0,1.206,-1.275654E-05,18.09,0
1.2069,1.745632E-05,18.1035,0,1.2069,-2.819867E-05,18.1035,0
1.2078,-9.063859E-06,18.117,0,1.2078,1.846342E-05,18.117,0
1.2087,3.021286E-06,18.1305,0,1.2087,3.692683E-06,18.1305,0
1.2096,4.061952E-05,18.144,0,1.2096,-2.786297E-05,18.144,0
1.2105,-2.316319E-05,18.1575,0,1.2105,-2.584878E-05,18.1575,0
1.2114,1.947051E-05,18.171,0,1.2114,-1.577783E-05,18.171,0
1.2123,5.069047E-05,18.1845,0,1.2123,-5.337606E-05,18.1845,0
1.2132,-3.424125E-05,18.198,0,1.2132,-5.706874E-05,18.198,0
1.2141,-3.591974E-05,18.2115,0,1.2141,-1.510643E-05,18.2115,0
1.215,-2.081331E-05,18.225,0,1.215,-2.081331E-05,18.225,0
1.2159,-1.174945E-05,18.2385,0,1.2159,-1.644922E-05,18.2385,0
1.2168,-4.33051E-05,18.252,0,1.2168,-4.33051E-05,18.252,0
1.2177,-8.056763E-06,18.2655,0,1.2177,-2.719158E-05,18.2655,0
1.2186,1.779202E-05,18.279,0,1.2186,-3.021286E-06,18.279,0
1.2195,-6.042573E-06,18.2925,0,1.2195,-1.779202E-05,18.2925,0
1.2204,-3.155566E-05,18.306,0,1.2204,-4.263371E-05,18.306,0
1.2213,-1.544213E-05,18.3195,0,1.2213,1.779202E-05,18.3195,0
1.2222,-1.141375E-05,18.333,0,1.2222,-1.107805E-05,18.333,0
1.2231,-3.021286E-05,18.3465,0,1.2231,-5.908293E-05,18.3465,0
1.224,-3.121996E-05,18.36,0,1.224,-1.678492E-05,18.36,0
1.2249,-6.378271E-06,18.3735,0,1.2249,9.735256E-06,18.3735,0
1.2258,1.040665E-05,18.387,0,1.2258,-1.846342E-05,18.387,0
1.2267,6.076142E-05,18.4005,0,1.2267,-2.081331E-05,18.4005,0
1.2276,5.706874E-05,18.414,0,1.2276,3.054856E-05,18.414,0
1.2285,2.853437E-05,18.4275,0,1.2285,1.577783E-05,18.4275,0
1.2294,1.846342E-05,18.441,0,1.2294,2.652018E-05,18.441,0
1.2303,-2.349889E-06,18.4545,0,1.2303,-8.056763E-06,18.4545,0
1.2312,-2.752728E-05,18.468,0,1.2312,5.035477E-06,18.468,0
1.2321,-3.793393E-05,18.4815,0,1.2321,3.021286E-06,18.4815,0
1.233,7.721065E-06,18.495,0,1.233,-4.263371E-05,18.495,0
1.2339,-2.18204E-05,18.5085,0,1.2339,-6.076142E-05,18.5085,0
1.2348,-5.035477E-05,18.522,0,1.2348,3.356985E-06,18.522,0
1.2357,4.699779E-06,18.5355,0,1.2357,-1.242084E-05,18.5355,0
1.2366,1.141375E-05,18.549,0,1.2366,-9.970245E-05,18.549,0
1.2375,-1.242084E-05,18.5625,0,1.2375,-6.948959E-05,18.5625,0
1.2384,1.678492E-06,18.576,0,1.2384,-6.71397E-05,18.576,0
1.2393,2.853437E-05,18.5895,0,1.2393,-4.733349E-05,18.5895,0
1.2402,3.356985E-07,18.603,0,1.2402,-5.706874E-06,18.603,0
1.2411,-5.035477E-05,18.6165,0,1.2411,-3.692683E-06,18.6165,0
1.242,-3.323415E-05,18.63,0,1.242,-1.544213E-05,18.63,0
1.2429,-1.309224E-05,18.6435,0,1.2429,-9.735256E-06,18.6435,0
1.2438,-1.107805E-05,18.657,0,1.2438,-1.510643E-05,18.657,0
1.2447,-2.551309E-05,18.6705,0,1.2447,3.356985E-07,18.6705,0
1.2456,-2.752728E-05,18.684,0,1.2456,3.726253E-05,18.684,0
1.2465,-1.678492E-05,18.6975,0,1.2465,8.392462E-06,18.6975,0
1.2474,-1.712062E-05,18.711,0,1.2474,-4.129091E-05,18.711,0
1.2483,-3.390555E-05,18.7245,0,1.2483,-4.196231E-05,18.7245,0
1.2492,-1.644922E-05,18.738,0,1.2492,-4.43122E-05,18.738,0
1.2501,-5.035477E-06,18.7515,0,1.2501,-5.874724E-05,18.7515,0
1.251,1.443504E-05,18.765,0,1.251,-3.692683E-06,18.765,0
1.2519,-2.517739E-05,18.7785,0,1.2519,4.39765E-05,18.7785,0
1.2528,-1.611353E-05,18.792,0,1.2528,-2.987716E-05,18.792,0
1.2537,3.894102E-05,18.8055,0,1.2537,-6.009003E-05,18.8055,0
1.2546,9.735256E-06,18.819,0,1.2546,4.699779E-06,18.819,0
1.2555,-1.913481E-05,18.8325,0,1.2555,-6.042573E-06,18.8325,0
1.2564,-2.484169E-05,18.846,0,1.2564,-2.618448E-05,18.846,0
1.2573,-1.242084E-05,18.8595,0,1.2573,-3.659113E-05,18.8595,0
1.2582,-1.510643E-05,18.873,0,1.2582,0,18.873,0
1.2591,-4.733349E-05,18.8865,0,1.2591,-3.021286E-06,18.8865,0
1.26,-3.524834E-05,18.9,0,1.26,-2.047761E-05,18.9,0
1.2609,-5.035477E-06,18.9135,0,1.2609,-1.376364E-05,18.9135,0
1.2618,0,18.927,0,1.2618,9.735256E-06,18.927,0
1.2627,-5.035477E-06,18.9405,0,1.2627,-9.063859E-06,18.9405,0
1.2636,1.007095E-05,18.954,0,1.2636,-3.591974E-05,18.954,0
1.2645,-1.745632E-05,18.9675,0,1.2645,-3.021286E-06,18.9675,0
1.2654,-3.390555E-05,18.981,0,1.2654,1.242084E-05,18.981,0
1.2663,-1.846342E-05,18.9945,0,1.2663,-1.913481E-05,18.9945,0
1.2672,1.174945E-05,19.008,0,1.2672,-2.316319E-05,19.008,0
1.2681,3.692683E-06,19.0215,0,1.2681,-2.450599E-05,19.0215,0
1.269,-1.242084E-05,19.035,0,1.269,-4.800488E-05,19.035,0
1.2699,-2.349889E-06,19.0485,0,1.2699,-6.009003E-05,19.0485,0
1.2708,-1.913481E-05,19.062,0,1.2708,-6.109713E-05,19.062,0
1.2717,-1.275654E-05,19.0755,0,1.2717,-2.28275E-05,19.0755,0
1.2726,3.692683E-06,19.089,0,1.2726,2.484169E-05,19.089,0
1.2735,5.807584E-05,19.1025,0,1.2735,-5.371176E-06,19.1025,0
1.2744,6.344701E-05,19.116,0,1.2744,-4.766919E-05,19.116,0
1.2753,5.874724E-05,19.1295,0,1.2753,2.349889E-06,19.1295,0
1.2762,6.009003E-05,19.143,0,1.2762,-1.678492E-06,19.143,0
1.2771,2.484169E-05,19.1565,0,1.2771,-3.894102E-05,19.1565,0
1.278,-1.779202E-05,19.17,0,1.278,7.721065E-06,19.17,0
1.2789,-6.378271E-06,19.1835,0,1.2789,3.189136E-05,19.1835,0
1.2798,-1.510643E-05,19.197,0,1.2798,-1.242084E-05,19.197,0
1.2807,-6.176852E-05,19.2105,0,1.2807,-4.53193E-05,19.2105,0
1.2816,-3.356985E-05,19.224,0,1.2816,-1.510643E-05,19.224,0
1.2825,-4.196231E-05,19.2375,0,1.2825,-7.049668E-06,19.2375,0
1.2834,-3.894102E-05,19.251,0,1.2834,-1.577783E-05,19.251,0
1.2843,-3.558404E-05,19.2645,0,1.2843,-3.726253E-05,19.2645,0
1.2852,-2.383459E-05,19.278,0,1.2852,-2.954147E-05,19.278,0
1.2861,-4.699779E-06,19.2915,0,1.2861,-3.088426E-05,19.2915,0
1.287,-1.544213E-05,19.305,0,1.287,-5.807584E-05,19.305,0
1.2879,-1.242084E-05,19.3185,0,1.2879,-4.901198E-05,19.3185,0
1.2888,-3.793393E-05,19.332,0,1.2888,3.356985E-06,19.332,0
1.2897,-2.1149E-05,19.3455,0,1.2897,1.174945E-05,19.3455,0
1.2906,1.376364E-05,19.359,0,1.2906,-3.793393E-05,19.359,0
1.2915,-9.063859E-06,19.3725,0,1.2915,-1.309224E-05,19.3725,0
1.2924,2.987716E-05,19.386,0,1.2924,1.007095E-06,19.386,0
1.2933,3.961242E-05,19.3995,0,1.2933,-3.927672E-05,19.3995,0
1.2942,-2.920577E-05,19.413,0,1.2942,-3.659113E-05,19.413,0
1.2951,-3.256275E-05,19.4265,0,1.2951,-2.450599E-05,19.4265,0
1.296,2.316319E-05,19.44,0,1.296,-2.18204E-05,19.44,0
1.2969,2.081331E-05,19.4535,0,1.2969,-1.477073E-05,19.4535,0
1.2978,-7.721065E-06,19.467,0,1.2978,-2.014191E-05,19.467,0
1.2987,2.417029E-05,19.4805,0,1.2987,-1.141375E-05,19.4805,0
1.2996,-1.544213E-05,19.494,0,1.2996,-1.107805E-05,19.494,0
1.3005,-3.793393E-05,19.5075,0,1.3005,-3.054856E-05,19.5075,0
1.3014,-3.692683E-06,19.521,0,1.3014,-4.43122E-05,19.521,0
1.3023,-1.779202E-05,19.5345,0,1.3023,-3.692683E-06,19.5345,0
1.3032,-2.014191E-05,19.548,0,1.3032,7.049668E-06,19.548,0
1.3041,3.558404E-05,19.5615,0,1.3041,-1.577783E-05,19.5615,0
1.305,-4.867628E-05,19.575,0,1.305,-2.14847E-05,19.575,0
1.3059,-2.316319E-05,19.5885,0,1.3059,-3.692683E-06,19.5885,0
1.3068,2.719158E-05,19.602,0,1.3068,-2.349889E-06,19.602,0
1.3077,-2.652018E-05,19.6155,0,1.3077,-2.18204E-05,19.6155,0
1.3086,-2.853437E-05,19.629,0,1.3086,-7.721065E-06,19.629,0
1.3095,-8.056763E-06,19.6425,0,1.3095,1.007095E-06,19.6425,0
1.3104,-3.021286E-05,19.656,0,1.3104,7.385367E-06,19.656,0
1.3113,-1.107805E-05,19.6695,0,1.3113,-1.644922E-05,19.6695,0
1.3122,2.24918E-05,19.683,0,1.3122,-5.001907E-05,19.683,0
1.3131,2.349889E-06,19.6965,0,1.3131,-5.203327E-05,19.6965,0
1.314,-3.927672E-05,19.71,0,1.314,-5.136187E-05,19.71,0
1.3149,1.342794E-06,19.7235,0,1.3149,-5.102617E-05,19.7235,0
1.3158,2.081331E-05,19.737,0,1.3158,2.014191E-06,19.737,0
1.3167,1.779202E-05,19.7505,0,1.3167,-5.706874E-06,19.7505,0
1.3176,1.510643E-05,19.764,0,1.3176,-4.229801E-05,19.764,0
1.3185,-6.713969E-07,19.7775,0,1.3185,-1.007095E-06,19.7775,0
1.3194,1.577783E-05,19.791,0,1.3194,-1.107805E-05,19.791,0
1.3203,1.577783E-05,19.8045,0,1.3203,-4.968337E-05,19.8045,0
1.3212,-8.056763E-06,19.818,0,1.3212,-4.632639E-05,19.818,0
1.3221,-2.484169E-05,19.8315,0,1.3221,-1.913481E-05,19.8315,0
1.323,-1.376364E-05,19.845,0,1.323,-3.088426E-05,19.845,0
1.3239,-9.063859E-06,19.8585,0,1.3239,-1.644922E-05,19.8585,0
1.3248,-5.706874E-06,19.872,0,1.3248,-3.860533E-05,19.872,0
1.3257,-4.36408E-06,19.8855,0,1.3257,-2.1149E-05,19.8855,0
1.3266,-3.524834E-05,19.899,0,1.3266,2.047761E-05,19.899,0
1.3275,-2.618448E-05,19.9125,0,1.3275,1.678492E-06,19.9125,0
1.3284,-1.409934E-05,19.926,0,1.3284,-1.174945E-05,19.926,0
1.3293,-4.061952E-05,19.9395,0,1.3293,3.524834E-05,19.9395,0
1.3302,-2.618448E-05,19.953,0,1.3302,2.014191E-05,19.953,0
1.3311,1.007095E-06,19.9665,0,1.3311,-3.390555E-05,19.9665,0
1.332,1.510643E-05,19.98,0,1.332,-1.007095E-06,19.98,0
1.3329,4.129091E-05,19.9935,0,1.3329,-2.484169E-05,19.9935,0
1.3338,4.39765E-05,20.007,0,1.3338,-5.371176E-05,20.007,0
1.3347,7.150377E-05,20.0205,0,1.3347,-2.517739E-05,20.0205,0
1.3356,4.632639E-05,20.034,0,1.3356,5.706874E-06,20.034,0
1.3365,2.1149E-05,20.0475,0,1.3365,-2.1149E-05,20.0475,0
1.3374,1.040665E-05,20.061,0,1.3374,-2.920577E-05,20.061,0
1.3383,2.047761E-05,20.0745,0,1.3383,-2.21561E-05,20.0745,0
1.3392,-2.1149E-05,20.088,0,1.3392,9.735256E-06,20.088,0
1.3401,-7.486076E-05,20.1015,0,1.3401,-9.063859E-06,20.1015,0
1.341,-6.210422E-05,20.115,0,1.341,-2.987716E-05,20.115,0
1.3419,-4.666209E-05,20.1285,0,1.3419,-3.524834E-05,20.1285,0
1.3428,-3.793393E-05,20.142,0,1.3428,5.035477E-06,20.142,0
1.3437,-3.961242E-05,20.1555,0,1.3437,-1.712062E-05,20.1555,0
1.3446,-7.049668E-06,20.169,0,1.3446,-5.975433E-05,20.169,0
1.3455,-2.349889E-06,20.1825,0,1.3455,-1.544213E-05,20.1825,0
1.3464,3.323415E-05,20.196,0,1.3464,8.392462E-06,20.196,0
1.3473,-3.356985E-07,20.2095,0,1.3473,-1.812772E-05,20.2095,0
1.3482,-1.745632E-05,20.223,0,1.3482,-1.745632E-05,20.223,0
1.3491,-2.450599E-05,20.2365,0,1.3491,1.007095E-05,20.2365,0
1.35,4.699779E-06,20.25,0,1.35,-1.007095E-05,20.25,0
1.3509,2.349889E-06,20.2635,0,1.3509,-2.887007E-05,20.2635,0
1.3518,1.242084E-05,20.277,0,1.3518,-4.196231E-05,20.277,0
1.3527,-1.812772E-05,20.2905,0,1.3527,-2.349889E-05,20.2905,0
1.3536,-1.242084E-05,20.304,0,1.3536,-3.356985E-06,20.304,0
1.3545,-3.692683E-06,20.3175,0,1.3545,-1.812772E-05,20.3175,0
1.3554,-5.706874E-06,20.331,0,1.3554,-5.001907E-05,20.331,0
1.3563,-1.577783E-05,20.3445,0,1.3563,-1.040665E-05,20.3445,0
1.3572,-9.063859E-06,20.358,0,1.3572,-1.745632E-05,20.358,0
1.3581,1.040665E-05,20.3715,0,1.3581,-5.404745E-05,20.3715,0
1.359,-3.356985E-05,20.385,0,1.359,-6.378271E-06,20.385,0
1.3599,-5.740444E-05,20.3985,0,1.3599,-3.356985E-06,20.3985,0
1.3608,-4.800488E-05,20.412,0,1.3608,-4.33051E-05,20.412,0
1.3617,-3.659113E-05,20.4255,0,1.3617,-3.860533E-05,20.4255,0
1.3626,-1.913481E-05,20.439,0,1.3626,-2.517739E-05,20.439,0
1.3635,3.692683E-06,20.4525,0,1.3635,-3.289845E-05,20.4525,0
1.3644,1.309224E-05,20.466,0,1.3644,-5.471885E-05,20.466,0
1.3653,-8.728161E-06,20.4795,0,1.3653,-5.001907E-05,20.4795,0
1.3662,-1.342794E-06,20.493,0,1.3662,2.786297E-05,20.493,0
1.3671,1.107805E-05,20.5065,0,1.3671,1.980621E-05,20.5065,0
1.368,2.349889E-06,20.52,0,1.368,-6.042573E-06,20.52,0
1.3689,1.409934E-05,20.5335,0,1.3689,-3.625543E-05,20.5335,0
1.3698,-4.36408E-06,20.547,0,1.3698,-1.913481E-05,20.547,0
1.3707,-2.920577E-05,20.5605,0,1.3707,-3.591974E-05,20.5605,0
1.3716,1.141375E-05,20.574,0,1.3716,-6.51255E-05,20.574,0
1.3725,1.040665E-05,20.5875,0,1.3725,-2.047761E-05,20.5875,0
1.3734,6.378271E-06,20.601,0,1.3734,7.721065E-06,20.601,0
1.3743,1.913481E-05,20.6145,0,1.3743,9.399558E-06,20.6145,0
1.3752,-3.356985E-07,20.628,0,1.3752,3.054856E-05,20.628,0
1.3761,-4.699779E-06,20.6415,0,1.3761,4.733349E-05,20.6415,0
1.377,-6.713969E-06,20.655,0,1.377,-1.342794E-06,20.655,0
1.3779,-3.726253E-05,20.6685,0,1.3779,-3.894102E-05,20.6685,0
1.3788,-4.095522E-05,20.682,0,1.3788,-5.169757E-05,20.682,0
1.3797,-8.392462E-06,20.6955,0,1.3797,-4.36408E-05,20.6955,0
1.3806,-1.577783E-05,20.709,0,1.3806,-6.713969E-07,20.709,0
1.3815,3.021286E-06,20.7225,0,1.3815,3.021286E-06,20.7225,0
1.3824,1.040665E-05,20.736,0,1.3824,-2.081331E-05,20.736,0
1.3833,-4.699779E-06,20.7495,0,1.3833,3.390555E-05,20.7495,0
1.3842,-2.014191E-05,20.763,0,1.3842,2.551309E-05,20.763,0
1.3851,1.577783E-05,20.7765,0,1.3851,-4.632639E-05,20.7765,0
1.386,-7.721065E-06,20.79,0,1.386,-2.652018E-05,20.79,0
1.3869,1.846342E-05,20.8035,0,1.3869,-2.584878E-05,20.8035,0
1.3878,-2.28275E-05,20.817,0,1.3878,-6.411841E-05,20.817,0
1.3887,-4.699779E-05,20.8305,0,1.3887,-4.229801E-05,20.8305,0
1.3896,8.392462E-06,20.844,0,1.3896,-6.713969E-06,20.844,0
1.3905,1.007095E-06,20.8575,0,1.3905,-2.786297E-05,20.8575,0
1.3914,-6.378271E-06,20.871,0,1.3914,-4.565499E-05,20.871,0
1.3923,1.678492E-05,20.8845,0,1.3923,-5.774014E-05,20.8845,0
1.3932,2.349889E-06,20.898,0,1.3932,-1.812772E-05,20.898,0
1.3941,-2.719158E-05,20.9115,0,1.3941,5.035477E-06,20.9115,0
1.395,2.014191E-06,20.925,0,1.395,-2.014191E-05,20.925,0
1.3959,2.987716E-05,20.9385,0,1.3959,-3.424125E-05,20.9385,0
1.3968,-9.063859E-06,20.952,0,1.3968,-3.356985E-07,20.952,0
1.3977,-1.745632E-05,20.9655,0,1.3977,-1.376364E-05,20.9655,0
1.3986,6.713969E-06,20.979,0,1.3986,-5.001907E-05,20.979,0
1.3995,-3.356985E-07,20.9925,0,1.3995,1.174945E-05,20.9925,0
1.4004,5.035477E-06,21.006,0,1.4004,2.920577E-05,21.006,0
1.4013,-9.735256E-06,21.0195,0,1.4013,-2.014191E-06,21.0195,0
1.4022,-3.994812E-05,21.033,0,1.4022,-5.706874E-06,21.033,0
1.4031,-6.848249E-05,21.0465,0,1.4031,-3.021286E-06,21.0465,0
1.404,-2.887007E-05,21.06,0,1.404,1.309224E-05,21.06,0
1.4049,-1.107805E-05,21.0735,0,1.4049,1.174945E-05,21.0735,0
1.4058,1.846342E-05,21.087,0,1.4058,-1.846342E-05,21.087,0
1.4067,3.390555E-05,21.1005,0,1.4067,-4.632639E-05,21.1005,0
1.4076,-4.36408E-06,21.114,0,1.4076,-1.510643E-05,21.114,0
1.4085,-1.309224E-05,21.1275,0,1.4085,-5.874724E-05,21.1275,0
1.4094,2.652018E-05,21.141,0,1.4094,-0.0001050736,21.141,0
1.4103,-1.107805E-05,21.1545,0,1.4103,-5.404745E-05,21.1545,0
1.4112,-1.913481E-05,21.168,0,1.4112,-3.894102E-05,21.168,0
1.4121,7.385367E-06,21.1815,0,1.4121,-7.016098E-05,21.1815,0
1.413,1.443504E-05,21.195,0,1.413,-2.551309E-05,21.195,0
1.4139,3.054856E-05,21.2085,0,1.4139,1.376364E-05,21.2085,0
1.4148,2.853437E-05,21.222,0,1.4148,-2.1149E-05,21.222,0
1.4157,1.342794E-06,21.2355,0,1.4157,-1.577783E-05,21.2355,0
1.4166,-3.356985E-07,21.249,0,1.4166,2.1149E-05,21.249,0
1.4175,3.021286E-06,21.2625,0,1.4175,-7.721065E-06,21.2625,0
1.4184,6.042573E-06,21.276,0,1.4184,-3.121996E-05,21.276,0
1.4193,-2.047761E-05,21.2895,0,1.4193,-3.961242E-05,21.2895,0
1.4202,-2.316319E-05,21.303,0,1.4202,-1.309224E-05,21.303,0
1.4211,-4.39765E-05,21.3165,0,1.4211,6.042573E-06,21.3165,0
1.422,-6.243992E-05,21.33,0,1.422,2.685588E-06,21.33,0
1.4229,-3.054856E-05,21.3435,0,1.4229,-1.712062E-05,21.3435,0
1.4238,-3.457694E-05,21.357,0,1.4238,-5.706874E-06,21.357,0
1.4247,-3.390555E-05,21.3705,0,1.4247,-7.385367E-06,21.3705,0
1.4256,-1.980621E-05,21.384,0,1.4256,-2.383459E-05,21.384,0
1.4265,-8.728161E-06,21.3975,0,1.4265,3.356985E-06,21.3975,0
1.4274,-2.18204E-05,21.411,0,1.4274,-8.392462E-06,21.411,0
1.4283,-1.443504E-05,21.4245,0,1.4283,-3.189136E-05,21.4245,0
1.4292,-6.378271E-06,21.438,0,1.4292,-3.390555E-05,21.438,0
1.4301,-3.021286E-05,21.4515,0,1.4301,-1.242084E-05,21.4515,0
1.431,-1.577783E-05,21.465,0,1.431,-1.007095E-06,21.465,0
1.4319,-1.409934E-05,21.4785,0,1.4319,-8.392462E-06,21.4785,0
1.4328,-5.706874E-06,21.492,0,1.4328,-2.887007E-05,21.492,0
1.4337,-1.678492E-06,21.5055,0,1.4337,-1.141375E-05,21.5055,0
1.4346,-3.625543E-05,21.519,0,1.4346,-1.242084E-05,21.519,0
1.4355,-1.174945E-05,21.5325,0,1.4355,-2.24918E-05,21.5325,0
1.4364,1.409934E-05,21.546,0,1.4364,-4.229801E-05,21.546,0
1.4373,1.174945E-05,21.5595,0,1.4373,3.356985E-07,21.5595,0
1.4382,9.735256E-06,21.573,0,1.4382,-4.36408E-06,21.573,0
1.4391,1.376364E-05,21.5865,0,1.4391,-5.169757E-05,21.5865,0
1.44,-2.1149E-05,21.6,0,1.44,-1.141375E-05,21.6,0
1.4409,-4.36408E-06,21.6135,0,1.4409,3.356985E-07,21.6135,0
1.4418,3.189136E-05,21.627,0,1.4418,-4.061952E-05,21.627,0
1.4427,-6.713969E-06,21.6405,0,1.4427,-2.786297E-05,21.6405,0
1.4436,-1.879912E-05,21.654,0,1.4436,4.028382E-06,21.654,0
1.4445,1.678492E-06,21.6675,0,1.4445,-5.706874E-06,21.6675,0
1.4454,2.987716E-05,21.681,0,1.4454,2.21561E-05,21.681,0
1.4463,4.599069E-05,21.6945,0,1.4463,9.063859E-06,21.6945,0
1.4472,3.927672E-05,21.708,0,1.4472,9.063859E-06,21.708,0
1.4481,-1.107805E-05,21.7215,0,1.4481,-1.678492E-06,21.7215,0
1.449,-1.879912E-05,21.735,0,1.449,-3.256275E-05,21.735,0
1.4499,-1.644922E-05,21.7485,0,1.4499,-6.344701E-05,21.7485,0
1.4508,-3.491264E-05,21.762,0,1.4508,-3.054856E-05,21.762,0
1.4517,-3.591974E-05,21.7755,0,1.4517,-2.450599E-05,21.7755,0
1.4526,-1.712062E-05,21.789,0,1.4526,-6.210422E-05,21.789,0
1.4535,-1.443504E-05,21.8025,0,1.4535,-9.735256E-06,21.8025,0
1.4544,-4.196231E-05,21.816,0,1.4544,-2.517739E-05,21.816,0
1.4553,-1.107805E-05,21.8295,0,1.4553,-2.920577E-05,21.8295,0
1.4562,3.054856E-05,21.843,0,1.4562,-4.43122E-05,21.843,0
1.4571,-9.735256E-06,21.8565,0,1.4571,-3.289845E-05,21.8565,0
1.458,1.644922E-05,21.87,0,1.458,-1.745632E-05,21.87,0
1.4589,1.141375E-05,21.8835,0,1.4589,-1.107805E-05,21.8835,0
1.4598,-4.061952E-05,21.897,0,1.4598,-4.33051E-05,21.897,0
1.4607,-2.21561E-05,21.9105,0,1.4607,-2.584878E-05,21.9105,0
1.4616,-3.558404E-05,21.924,0,1.4616,8.728161E-06,21.924,0
1.4625,-3.793393E-05,21.9375,0,1.4625,-3.021286E-06,21.9375,0
1.4634,-5.371176E-06,21.951,0,1.4634,-2.584878E-05,21.951,0
1.4643,-1.007095E-06,21.9645,0,1.4643,7.385367E-06,21.9645,0
1.4652,3.323415E-05,21.978,0,1.4652,-1.007095E-06,21.978,0
1.4661,4.095522E-05,21.9915,0,1.4661,-5.505455E-05,21.9915,0
1.467,1.040665E-05,22.005,0,1.467,-2.987716E-05,22.005,0
1.4679,2.28275E-05,22.0185,0,1.4679,-2.584878E-05,22.0185,0
1.4688,1.577783E-05,22.032,0,1.4688,-6.143282E-05,22.032,0
1.4697,-1.846342E-05,22.0455,0,1.4697,-5.941863E-05,22.0455,0
1.4706,-1.510643E-05,22.059,0,1.4706,0,22.059,0
1.4715,-6.713969E-06,22.0725,0,1.4715,1.510643E-05,22.0725,0
1.4724,-1.242084E-05,22.086,0,1.4724,-3.659113E-05,22.086,0
1.4733,1.644922E-05,22.0995,0,1.4733,-7.049668E-05,22.0995,0
1.4742,1.644922E-05,22.113,0,1.4742,-1.544213E-05,22.113,0
1.4751,-4.968337E-05,22.1265,0,1.4751,9.063859E-06,22.1265,0
1.476,-1.174945E-05,22.14,0,1.476,2.618448E-05,22.14,0
1.4769,-1.678492E-06,22.1535,0,1.4769,1.342794E-06,22.1535,0
1.4778,-6.6804E-05,22.167,0,1.4778,-3.491264E-05,22.167,0
1.4787,-6.61326E-05,22.1805,0,1.4787,-5.001907E-05,22.1805,0
1.4796,-2.28275E-05,22.194,0,1.4796,-6.478981E-05,22.194,0
1.4805,-3.793393E-05,22.2075,0,1.4805,-2.618448E-05,22.2075,0
1.4814,1.779202E-05,22.221,0,1.4814,3.155566E-05,22.221,0
1.4823,5.740444E-05,22.2345,0,1.4823,2.517739E-05,22.2345,0
1.4832,-5.035477E-06,22.248,0,1.4832,2.316319E-05,22.248,0
1.4841,1.443504E-05,22.2615,0,1.4841,3.256275E-05,22.2615,0
1.485,8.728161E-06,22.275,0,1.485,-2.349889E-06,22.275,0
1.4859,-1.510643E-05,22.2885,0,1.4859,-6.042573E-06,22.2885,0
1.4868,-1.644922E-05,22.302,0,1.4868,-2.853437E-05,22.302,0
1.4877,0,22.3155,0,1.4877,-3.927672E-05,22.3155,0
1.4886,3.524834E-05,22.329,0,1.4886,2.349889E-06,22.329,0
1.4895,-2.618448E-05,22.3425,0,1.4895,-2.1149E-05,22.3425,0
1.4904,-2.24918E-05,22.356,0,1.4904,-5.069047E-05,22.356,0
1.4913,-2.349889E-06,22.3695,0,1.4913,-6.713969E-07,22.3695,0
1.4922,-3.692683E-05,22.383,0,1.4922,-1.779202E-05,22.383,0
1.4931,-2.349889E-06,22.3965,0,1.4931,-5.673304E-05,22.3965,0
1.494,-7.049668E-06,22.41,0,1.494,-2.517739E-05,22.41,0
1.4949,-1.779202E-05,22.4235,0,1.4949,-9.063859E-06,22.4235,0
1.4958,2.887007E-05,22.437,0,1.4958,-1.980621E-05,22.437,0
1.4967,6.277562E-05,22.4505,0,1.4967,-1.074235E-05,22.4505,0
1.4976,3.189136E-05,22.464,0,1.4976,2.047761E-05,22.464,0
1.4985,1.980621E-05,22.4775,0,1.4985,6.713969E-06,22.4775,0
1.4994,1.242084E-05,22.491,0,1.4994,-4.36408E-05,22.491,0
1.5003,-1.678492E-06,22.5045,0,1.5003,-6.64683E-05,22.5045,0
1.5012,-6.948959E-05,22.518,0,1.5012,-6.51255E-05,22.518,0
1.5021,-9.265278E-05,22.5315,0,1.5021,-5.203327E-05,22.5315,0
1.503,-4.263371E-05,22.545,0,1.503,-5.169757E-05,22.545,0
1.5039,-2.28275E-05,22.5585,0,1.5039,-5.270466E-05,22.5585,0
1.5048,-6.076142E-05,22.572,0,1.5048,-6.713969E-06,22.572,0
1.5057,-3.356985E-05,22.5855,0,1.5057,-2.484169E-05,22.5855,0
1.5066,-3.356985E-07,22.599,0,1.5066,-6.210422E-05,22.599,0
1.5075,-1.510643E-05,22.6125,0,1.5075,-1.779202E-05,22.6125,0
1.5084,7.049668E-06,22.626,0,1.5084,3.692683E-06,22.626,0
1.5093,1.913481E-05,22.6395,0,1.5093,-6.042573E-06,22.6395,0
1.5102,-2.349889E-06,22.653,0,1.5102,-3.692683E-06,22.653,0
1.5111,-1.376364E-05,22.6665,0,1.5111,-2.014191E-05,22.6665,0
1.512,-1.141375E-05,22.68,0,1.512,-1.409934E-05,22.68,0
1.5129,-9.735256E-06,22.6935,0,1.5129,-7.721065E-06,22.6935,0
1.5138,1.712062E-05,22.707,0,1.5138,-2.584878E-05,22.707,0
1.5147,4.061952E-05,22.7205,0,1.5147,2.349889E-06,22.7205,0
1.5156,6.378271E-06,22.734,0,1.5156,3.625543E-05,22.734,0
1.5165,4.36408E-06,22.7475,0,1.5165,-1.242084E-05,22.7475,0
1.5174,3.289845E-05,22.761,0,1.5174,-5.673304E-05,22.761,0
1.5183,6.378271E-06,22.7745,0,1.5183,-4.699779E-06,22.7745,0
1.5192,-7.385367E-06,22.788,0,1.5192,1.678492E-06,22.788,0
1.5201,1.947051E-05,22.8015,0,1.5201,-3.088426E-05,22.8015,0
1.521,-2.349889E-06,22.815,0,1.521,3.659113E-05,22.815,0
1.5219,-3.692683E-06,22.8285,0,1.5219,2.887007E-05,22.8285,0
1.5228,-3.356985E-07,22.842,0,1.5228,-2.987716E-05,22.842,0
1.5237,-3.155566E-05,22.8555,0,1.5237,-1.409934E-05,22.8555,0
1.5246,-7.351797E-05,22.869,0,1.5246,3.021286E-06,22.869,0
1.5255,-4.666209E-05,22.8825,0,1.5255,-2.014191E-06,22.8825,0
1.5264,-2.920577E-05,22.896,0,1.5264,-5.035477E-06,22.896,0
1.5273,-3.121996E-05,22.9095,0,1.5273,-1.913481E-05,22.9095,0
1.5282,-9.735256E-06,22.923,0,1.5282,-1.644922E-05,22.923,0
1.5291,2.450599E-05,22.9365,0,1.5291,-8.392462E-06,22.9365,0
1.53,1.007095E-06,22.95,0,1.53,-3.793393E-05,22.95,0
1.5309,1.779202E-05,22.9635,0,1.5309,-4.129091E-05,22.9635,0
1.5318,1.678492E-05,22.977,0,1.5318,-7.721065E-06,22.977,0
1.5327,-1.309224E-05,22.9905,0,1.5327,-2.18204E-05,22.9905,0
1.5336,4.36408E-06,23.004,0,1.5336,-4.666209E-05,23.004,0
1.5345,-3.021286E-06,23.0175,0,1.5345,-1.242084E-05,23.0175,0
1.5354,-1.678492E-06,23.031,0,1.5354,3.692683E-06,23.031,0
1.5363,-2.987716E-05,23.0445,0,1.5363,-4.766919E-05,23.0445,0
1.5372,-4.666209E-05,23.058,0,1.5372,-6.478981E-05,23.058,0
1.5381,-2.21561E-05,23.0715,0,1.5381,-2.18204E-05,23.0715,0
1.539,-9.735256E-06,23.085,0,1.539,4.699779E-06,23.085,0
1.5399,1.678492E-06,23.0985,0,1.5399,1.007095E-06,23.0985,0
1.5408,-3.692683E-06,23.112,0,1.5408,-4.263371E-05,23.112,0
1.5417,-4.49836E-05,23.1255,0,1.5417,-1.644922E-05,23.1255,0
1.5426,3.021286E-06,23.139,0,1.5426,1.107805E-05,23.139,0
1.5435,5.270466E-05,23.1525,0,1.5435,-2.584878E-05,23.1525,0
1.5444,1.577783E-05,23.166,0,1.5444,-6.076142E-05,23.166,0
1.5453,6.378271E-06,23.1795,0,1.5453,-8.728161E-06,23.1795,0
1.5462,3.692683E-06,23.193,0,1.5462,-6.378271E-06,23.193,0
1.5471,1.309224E-05,23.2065,0,1.5471,-3.927672E-05,23.2065,0
1.548,-1.174945E-05,23.22,0,1.548,-1.040665E-05,23.22,0
1.5489,-7.049668E-06,23.2335,0,1.5489,-1.577783E-05,23.2335,0
1.5498,2.349889E-06,23.247,0,1.5498,-3.256275E-05,23.247,0
1.5507,-1.141375E-05,23.2605,0,1.5507,7.049668E-06,23.2605,0
1.5516,-2.618448E-05,23.274,0,1.5516,1.812772E-05,23.274,0
1.5525,-1.342794E-05,23.2875,0,1.5525,-2.14847E-05,23.2875,0
1.5534,1.040665E-05,23.301,0,1.5534,-3.054856E-05,23.301,0
1.5543,1.107805E-05,23.3145,0,1.5543,-5.069047E-05,23.3145,0
1.5552,1.342794E-05,23.328,0,1.5552,-4.33051E-05,23.328,0
1.5561,2.450599E-05,23.3415,0,1.5561,-3.860533E-05,23.3415,0
1.557,1.947051E-05,23.355,0,1.557,-1.577783E-05,23.355,0
1.5579,4.36408E-06,23.3685,0,1.5579,-2.719158E-05,23.3685,0
1.5588,-1.779202E-05,23.382,0,1.5588,6.713969E-07,23.382,0
1.5597,-1.644922E-05,23.3955,0,1.5597,2.014191E-05,23.3955,0
1.5606,-1.544213E-05,23.409,0,1.5606,-3.994812E-05,23.409,0
1.5615,-2.685588E-06,23.4225,0,1.5615,-2.014191E-05,23.4225,0
1.5624,7.049668E-06,23.436,0,1.5624,-9.735256E-06,23.436,0
1.5633,1.577783E-05,23.4495,0,1.5633,-2.920577E-05,23.4495,0
1.5642,-3.591974E-05,23.463,0,1.5642,-1.879912E-05,23.463,0
1.5651,-6.478981E-05,23.4765,0,1.5651,-2.484169E-05,23.4765,0
1.566,-3.088426E-05,23.49,0,1.566,-4.33051E-05,23.49,0
1.5669,3.356985E-07,23.5035,0,1.5669,-4.229801E-05,23.5035,0
1.5678,-6.713969E-07,23.517,0,1.5678,-5.673304E-05,23.517,0
1.5687,-7.385367E-06,23.5305,0,1.5687,-4.36408E-06,23.5305,0
1.5696,2.920577E-05,23.544,0,1.5696,5.740444E-05,23.544,0
1.5705,-5.706874E-06,23.5575,0,1.5705,8.056763E-06,23.5575,0
1.5714,-4.196231E-05,23.571,0,1.5714,-3.591974E-05,23.571,0
1.5723,-5.471885E-05,23.5845,0,1.5723,-3.021286E-06,23.5845,0
1.5732,-1.107805E-05,23.598,0,1.5732,-2.047761E-05,23.598,0
1.5741,2.014191E-06,23.6115,0,1.5741,-5.438316E-05,23.6115,0
1.575,-5.706874E-06,23.625,0,1.575,2.349889E-06,23.625,0
1.5759,-1.846342E-05,23.6385,0,1.5759,1.376364E-05,23.6385,0
1.5768,-1.342794E-06,23.652,0,1.5768,-5.203327E-05,23.652,0
1.5777,2.349889E-06,23.6655,0,1.5777,-2.1149E-05,23.6655,0
1.5786,-1.376364E-05,23.679,0,1.5786,1.107805E-05,23.679,0
1.5795,-2.047761E-05,23.6925,0,1.5795,-3.356985E-06,23.6925,0
1.5804,-2.24918E-05,23.706,0,1.5804,-9.399558E-06,23.706,0
1.5813,3.088426E-05,23.7195,0,1.5813,-1.846342E-05,23.7195,0
1.5822,1.309224E-05,23.733,0,1.5822,2.349889E-06,23.733,0
1.5831,1.040665E-05,23.7465,0,1.5831,-2.685588E-06,23.7465,0
1.584,1.141375E-05,23.76,0,1.584,-2.987716E-05,23.76,0
1.5849,1.712062E-05,23.7735,0,1.5849,-4.33051E-05,23.7735,0
1.5858,-1.980621E-05,23.787,0,1.5858,-1.242084E-05,23.787,0
1.5867,-1.007095E-05,23.8005,0,1.5867,-3.491264E-05,23.8005,0
1.5876,-3.021286E-06,23.814,0,1.5876,-0.0001070878,23.814,0
1.5885,-3.591974E-05,23.8275,0,1.5885,-1.745632E-05,23.8275,0
1.5894,-3.054856E-05,23.841,0,1.5894,1.712062E-05,23.841,0
1.5903,-9.735256E-06,23.8545,0,1.5903,-6.143282E-05,23.8545,0
1.5912,-1.846342E-05,23.868,0,1.5912,-3.021286E-05,23.868,0
1.5921,-3.222705E-05,23.8815,0,1.5921,8.392462E-06,23.8815,0
1.593,-1.141375E-05,23.895,0,1.593,-2.24918E-05,23.895,0
1.5939,6.042573E-06,23.9085,0,1.5939,-3.356985E-07,23.9085,0
1.5948,3.356985E-07,23.922,0,1.5948,-4.36408E-05,23.922,0
1.5957,2.853437E-05,23.9355,0,1.5957,-1.544213E-05,23.9355,0
1.5966,3.323415E-05,23.949,0,1.5966,1.980621E-05,23.949,0
1.5975,1.007095E-06,23.9625,0,1.5975,-1.242084E-05,23.9625,0
1.5984,-4.800488E-05,23.976,0,1.5984,-4.699779E-05,23.976,0
1.5993,-3.524834E-05,23.9895,0,1.5993,9.735256E-06,23.9895,0
1.6002,-5.035477E-06,24.003,0,1.6002,7.721065E-06,24.003,0
1.6011,7.385367E-06,24.0165,0,1.6011,-3.793393E-05,24.0165,0
1.602,-4.36408E-06,24.03,0,1.602,-6.378271E-06,24.03,0
1.6029,-4.599069E-05,24.0435,0,1.6029,-1.040665E-05,24.0435,0
1.6038,-3.927672E-05,24.057,0,1.6038,-4.599069E-05,24.057,0
1.6047,-2.383459E-05,24.0705,0,1.6047,-3.424125E-05,24.0705,0
1.6056,-5.606165E-05,24.084,0,1.6056,-9.735256E-06,24.084,0
1.6065,-1.242084E-05,24.0975,0,1.6065,-2.349889E-05,24.0975,0
1.6074,4.36408E-06,24.111,0,1.6074,-3.088426E-05,24.111,0
1.6083,2.21561E-05,24.1245,0,1.6083,-4.43122E-05,24.1245,0
1.6092,2.752728E-05,24.138,0,1.6092,1.007095E-06,24.138,0
1.6101,-2.349889E-06,24.1515,0,1.6101,1.174945E-05,24.1515,0
1.611,-1.007095E-06,24.165,0,1.611,-3.289845E-05,24.165,0
1.6119,-1.510643E-05,24.1785,0,1.6119,-4.800488E-05,24.1785,0
1.6128,-2.887007E-05,24.192,0,1.6128,1.007095E-06,24.192,0
1.6137,-2.752728E-05,24.2055,0,1.6137,-1.174945E-05,24.2055,0
1.6146,-3.021286E-06,24.219,0,1.6146,-5.001907E-05,24.219,0
1.6155,1.577783E-05,24.2325,0,1.6155,7.721065E-06,24.2325,0
1.6164,1.141375E-05,24.246,0,1.6164,3.356985E-07,24.246,0
1.6173,-2.584878E-05,24.2595,0,1.6173,-4.867628E-05,24.2595,0
1.6182,2.450599E-05,24.273,0,1.6182,-1.846342E-05,24.273,0
1.6191,8.728161E-06,24.2865,0,1.6191,1.678492E-06,24.2865,0
1.62,-9.399558E-06,24.3,0,1.62,-1.275654E-05,24.3,0
1.6209,-8.392462E-06,24.3135,0,1.6209,-1.208515E-05,24.3135,0
1.6218,7.721065E-06,24.327,0,1.6218,-3.524834E-05,24.327,0
1.6227,-3.692683E-06,24.3405,0,1.6227,-5.706874E-06,24.3405,0
1.6236,-3.692683E-05,24.354,0,1.6236,2.349889E-06,24.354,0
1.6245,-1.644922E-05,24.3675,0,1.6245,-2.484169E-05,24.3675,0
1.6254,-7.049668E-06,24.381,0,1.6254,-4.666209E-05,24.381,0
1.6263,-1.510643E-05,24.3945,0,1.6263,1.342794E-06,24.3945,0
1.6272,2.920577E-05,24.408,0,1.6272,-2.685588E-06,24.408,0
1.6281,5.035477E-06,24.4215,0,1.6281,-5.270466E-05,24.4215,0
1.629,-3.390555E-05,24.435,0,1.629,-4.028382E-06,24.435,0
1.6299,-9.063859E-06,24.4485,0,1.6299,0,24.4485,0
1.6308,3.054856E-05,24.462,0,1.6308,-3.390555E-05,24.462,0
1.6317,3.323415E-05,24.4755,0,1.6317,-1.275654E-05,24.4755,0
1.6326,-4.699779E-06,24.489,0,1.6326,6.713969E-07,24.489,0
1.6335,8.392462E-06,24.5025,0,1.6335,-1.577783E-05,24.5025,0
1.6344,-2.014191E-06,24.516,0,1.6344,-1.980621E-05,24.516,0
1.6353,2.349889E-06,24.5295,0,1.6353,-3.155566E-05,24.5295,0
1.6362,7.721065E-06,24.543,0,1.6362,-1.644922E-05,24.543,0
1.6371,-7.284657E-05,24.5565,0,1.6371,-9.735256E-06,24.5565,0
1.638,-6.478981E-05,24.57,0,1.638,-3.659113E-05,24.57,0
1.6389,9.735256E-06,24.5835,0,1.6389,-4.46479E-05,24.5835,0
1.6398,-7.721065E-06,24.597,0,1.6398,-8.728161E-06,24.597,0
1.6407,-2.987716E-05,24.6105,0,1.6407,-1.443504E-05,24.6105,0
1.6416,-2.047761E-05,24.624,0,1.6416,-5.404745E-05,24.624,0
1.6425,-1.342794E-05,24.6375,0,1.6425,-1.376364E-05,24.6375,0
1.6434,2.081331E-05,24.651,0,1.6434,1.007095E-06,24.651,0
1.6443,2.047761E-05,24.6645,0,1.6443,-2.987716E-05,24.6645,0
1.6452,2.652018E-05,24.678,0,1.6452,-1.577783E-05,24.678,0
1.6461,-3.692683E-06,24.6915,0,1.6461,-1.074235E-05,24.6915,0
1.647,1.443504E-05,24.705,0,1.647,-4.36408E-06,24.705,0
1.6479,4.565499E-05,24.7185,0,1.6479,-1.779202E-05,24.7185,0
1.6488,-3.457694E-05,24.732,0,1.6488,-4.33051E-05,24.732,0
1.6497,-3.994812E-05,24.7455,0,1.6497,3.356985E-06,24.7455,0
1.6506,1.913481E-05,24.759,0,1.6506,3.021286E-05,24.759,0
1.6515,-3.692683E-06,24.7725,0,1.6515,-1.678492E-05,24.7725,0
1.6524,-2.719158E-05,24.786,0,1.6524,-3.860533E-05,24.786,0
1.6533,-1.812772E-05,24.7995,0,1.6533,-5.035477E-06,24.7995,0
1.6542,7.385367E-06,24.813,0,1.6542,-7.217517E-05,24.813,0
1.6551,5.035477E-06,24.8265,0,1.6551,-0.0001141375,24.8265,0
1.656,-2.719158E-05,24.84,0,1.656,2.383459E-05,24.84,0
1.6569,-3.021286E-06,24.8535,0,1.6569,6.64683E-05,24.8535,0
1.6578,-1.644922E-05,24.867,0,1.6578,-1.141375E-05,24.867,0
1.6587,-5.102617E-05,24.8805,0,1.6587,-1.913481E-05,24.8805,0
1.6596,-5.774014E-05,24.894,0,1.6596,-2.349889E-06,24.894,0
1.6605,-5.606165E-05,24.9075,0,1.6605,-2.316319E-05,24.9075,0
1.6614,-1.712062E-05,24.921,0,1.6614,-2.450599E-05,24.921,0
1.6623,2.450599E-05,24.9345,0,1.6623,-3.793393E-05,24.9345,0
1.6632,1.846342E-05,24.948,0,1.6632,-6.042573E-06,24.948,0
1.6641,2.887007E-05,24.9615,0,1.6641,-1.443504E-05,24.9615,0
1.665,4.061952E-05,24.975,0,1.665,-4.800488E-05,24.975,0
1.6659,4.263371E-05,24.9885,0,1.6659,-4.666209E-05,24.9885,0
1.6668,-6.042573E-06,25.002,0,1.6668,-2.21561E-05,25.002,0
1.6677,-7.049668E-06,25.0155,0,1.6677,-5.337606E-05,25.0155,0
1.6686,-7.049668E-06,25.029,0,1.6686,-8.392462E-05,25.029,0
1.6695,-1.947051E-05,25.0425,0,1.6695,-2.652018E-05,25.0425,0
1.6704,-3.054856E-05,25.056,0,1.6704,1.376364E-05,25.056,0
1.6713,-1.510643E-05,25.0695,0,1.6713,9.063859E-06,25.0695,0
1.6722,1.846342E-05,25.083,0,1.6722,7.888914E-05,25.083,0
1.6731,-1.678492E-06,25.0965,0,1.6731,8.82887E-05,25.0965,0
1.674,-1.208515E-05,25.11,0,1.674,3.021286E-05,25.11,0
1.6749,-2.349889E-05,25.1235,0,1.6749,-2.685588E-06,25.1235,0
1.6758,-1.007095E-06,25.137,0,1.6758,-7.418937E-05,25.137,0
1.6767,-3.356985E-06,25.1505,0,1.6767,-3.524834E-05,25.1505,0
1.6776,9.063859E-06,25.164,0,1.6776,-1.913481E-05,25.164,0
1.6785,-1.712062E-05,25.1775,0,1.6785,-6.948959E-05,25.1775,0
1.6794,-1.678492E-05,25.191,0,1.6794,-8.224613E-05,25.191,0
1.6803,-3.356985E-07,25.2045,0,1.6803,-2.21561E-05,25.2045,0
1.6812,-1.577783E-05,25.218,0,1.6812,-2.047761E-05,25.218,0
1.6821,-2.014191E-06,25.2315,0,1.6821,-5.102617E-05,25.2315,0
1.683,-3.021286E-06,25.245,0,1.683,-4.36408E-06,25.245,0
1.6839,-2.1149E-05,25.2585,0,1.6839,1.342794E-06,25.2585,0
1.6848,-1.678492E-05,25.272,0,1.6848,-3.256275E-05,25.272,0
1.6857,-3.323415E-05,25.2855,0,1.6857,-2.316319E-05,25.2855,0
1.6866,-4.33051E-05,25.299,0,1.6866,4.36408E-06,25.299,0
1.6875,-4.867628E-05,25.3125,0,1.6875,-1.477073E-05,25.3125,0
1.6884,-1.242084E-05,25.326,0,1.6884,-2.752728E-05,25.326,0
1.6893,1.309224E-05,25.3395,0,1.6893,-3.121996E-05,25.3395,0
1.6902,-1.644922E-05,25.353,0,1.6902,1.007095E-06,25.353,0
1.6911,-4.129091E-05,25.3665,0,1.6911,1.409934E-05,25.3665,0
1.692,-3.054856E-05,25.38,0,1.692,-1.812772E-05,25.38,0
1.6929,-1.342794E-06,25.3935,0,1.6929,-3.256275E-05,25.3935,0
1.6938,9.063859E-06,25.407,0,1.6938,1.309224E-05,25.407,0
1.6947,1.846342E-05,25.4205,0,1.6947,1.544213E-05,25.4205,0
1.6956,6.378271E-06,25.434,0,1.6956,-3.961242E-05,25.434,0
1.6965,-1.342794E-05,25.4475,0,1.6965,-1.376364E-05,25.4475,0
1.6974,3.457694E-05,25.461,0,1.6974,2.349889E-06,25.461,0
1.6983,1.107805E-05,25.4745,0,1.6983,-3.256275E-05,25.4745,0
1.6992,1.174945E-05,25.488,0,1.6992,-4.36408E-06,25.488,0
1.7001,1.174945E-05,25.5015,0,1.7001,-6.713969E-07,25.5015,0
1.701,-1.007095E-06,25.515,0,1.701,-3.189136E-05,25.515,0
1.7019,3.356985E-07,25.5285,0,1.7019,-3.356985E-05,25.5285,0
1.7028,1.510643E-05,25.542,0,1.7028,-5.169757E-05,25.542,0
1.7037,8.392462E-06,25.5555,0,1.7037,-1.980621E-05,25.5555,0
1.7046,-3.591974E-05,25.569,0,1.7046,-1.510643E-05,25.569,0
1.7055,-3.323415E-05,25.5825,0,1.7055,-4.39765E-05,25.5825,0
1.7064,-1.913481E-05,25.596,0,1.7064,-5.136187E-05,25.596,0
1.7073,-4.599069E-05,25.6095,0,1.7073,-9.063859E-06,25.6095,0
1.7082,-3.860533E-05,25.623,0,1.7082,-3.054856E-05,25.623,0
1.7091,2.685588E-06,25.6365,0,1.7091,-7.083238E-05,25.6365,0
1.71,-2.517739E-05,25.65,0,1.71,-1.712062E-05,25.65,0
1.7109,2.349889E-06,25.6635,0,1.7109,1.275654E-05,25.6635,0
1.7118,-1.007095E-06,25.677,0,1.7118,-2.786297E-05,25.677,0
1.7127,-2.014191E-06,25.6905,0,1.7127,-3.289845E-05,25.6905,0
1.7136,-1.510643E-05,25.704,0,1.7136,1.443504E-05,25.704,0
1.7145,2.920577E-05,25.7175,0,1.7145,7.721065E-06,25.7175,0
1.7154,5.069047E-05,25.731,0,1.7154,-1.342794E-05,25.731,0
1.7163,2.584878E-05,25.7445,0,1.7163,-2.987716E-05,25.7445,0
1.7172,2.517739E-05,25.758,0,1.7172,0,25.758,0
1.7181,1.577783E-05,25.7715,0,1.7181,1.376364E-05,25.7715,0
1.719,-4.699779E-06,25.785,0,1.719,-5.035477E-06,25.785,0
1.7199,-1.712062E-05,25.7985,0,1.7199,-2.014191E-05,25.7985,0
1.7208,-4.699779E-06,25.812,0,1.7208,9.735256E-06,25.812,0
1.7217,5.035477E-06,25.8255,0,1.7217,-1.577783E-05,25.8255,0
1.7226,2.21561E-05,25.839,0,1.7226,-6.344701E-05,25.839,0
1.7235,1.107805E-05,25.8525,0,1.7235,-3.558404E-05,25.8525,0
1.7244,-1.007095E-05,25.866,0,1.7244,-2.719158E-05,25.866,0
1.7253,1.040665E-05,25.8795,0,1.7253,-3.591974E-05,25.8795,0
1.7262,-9.063859E-06,25.893,0,1.7262,-6.713969E-07,25.893,0
1.7271,-5.941863E-05,25.9065,0,1.7271,0,25.9065,0
1.728,-3.860533E-05,25.92,0,1.728,3.021286E-06,25.92,0
1.7289,3.356985E-07,25.9335,0,1.7289,-5.371176E-06,25.9335,0
1.7298,2.349889E-06,25.947,0,1.7298,-3.726253E-05,25.947,0
1.7307,-4.36408E-05,25.9605,0,1.7307,-2.752728E-05,25.9605,0
1.7316,-4.263371E-05,25.974,0,1.7316,-2.853437E-05,25.974,0
1.7325,-1.980621E-05,25.9875,0,1.7325,-5.337606E-05,25.9875,0
1.7334,-1.678492E-06,26.001,0,1.7334,-5.539025E-05,26.001,0
1.7343,-2.752728E-05,26.0145,0,1.7343,-1.007095E-05,26.0145,0
1.7352,-1.107805E-05,26.028,0,1.7352,1.980621E-05,26.028,0
1.7361,2.517739E-05,26.0415,0,1.7361,-2.1149E-05,26.0415,0
1.737,1.107805E-05,26.055,0,1.737,-2.316319E-05,26.055,0
1.7379,-2.383459E-05,26.0685,0,1.7379,9.399558E-06,26.0685,0
1.7388,-2.786297E-05,26.082,0,1.7388,-2.18204E-05,26.082,0
1.7397,7.721065E-06,26.0955,0,1.7397,-3.659113E-05,26.0955,0
1.7406,-7.049668E-06,26.109,0,1.7406,-1.409934E-05,26.109,0
1.7415,-1.107805E-05,26.1225,0,1.7415,-1.611353E-05,26.1225,0
1.7424,-2.920577E-05,26.136,0,1.7424,-2.450599E-05,26.136,0
1.7433,-4.129091E-05,26.1495,0,1.7433,-4.129091E-05,26.1495,0
1.7442,-4.49836E-05,26.163,0,1.7442,-5.337606E-05,26.163,0
1.7451,-5.841154E-05,26.1765,0,1.7451,-5.572595E-05,26.1765,0
1.746,-3.659113E-05,26.19,0,1.746,-6.948959E-05,26.19,0
1.7469,-2.920577E-05,26.2035,0,1.7469,-5.807584E-05,26.2035,0
1.7478,-2.349889E-05,26.217,0,1.7478,2.014191E-06,26.217,0
1.7487,3.591974E-05,26.2305,0,1.7487,4.53193E-05,26.2305,0
1.7496,3.088426E-05,26.244,0,1.7496,-3.256275E-05,26.244,0
1.7505,2.887007E-05,26.2575,0,1.7505,-3.356985E-07,26.2575,0
1.7514,5.035477E-05,26.271,0,1.7514,1.779202E-05,26.271,0
1.7523,5.673304E-05,26.2845,0,1.7523,-2.383459E-05,26.2845,0
1.7532,6.378271E-05,26.298,0,1.7532,-2.517739E-05,26.298,0
1.7541,-2.349889E-05,26.3115,0,1.7541,2.014191E-06,26.3115,0
1.755,-1.879912E-05,26.325,0,1.755,3.356985E-07,26.325,0
1.7559,-1.376364E-05,26.3385,0,1.7559,-3.390555E-05,26.3385,0
1.7568,-2.584878E-05,26.352,0,1.7568,-4.33051E-05,26.352,0
1.7577,-2.316319E-05,26.3655,0,1.7577,-5.706874E-06,26.3655,0
1.7586,-2.316319E-05,26.379,0,1.7586,3.088426E-05,26.379,0
1.7595,-1.040665E-05,26.3925,0,1.7595,-5.706874E-06,26.3925,0
1.7604,-5.706874E-06,26.406,0,1.7604,-3.021286E-05,26.406,0
1.7613,-2.014191E-05,26.4195,0,1.7613,8.728161E-06,26.4195,0
1.7622,-3.390555E-05,26.433,0,1.7622,1.678492E-06,26.433,0
1.7631,-1.443504E-05,26.4465,0,1.7631,-4.733349E-05,26.4465,0
1.764,-1.510643E-05,26.46,0,1.764,-8.728161E-06,26.46,0
1.7649,-2.316319E-05,26.4735,0,1.7649,-1.174945E-05,26.4735,0
1.7658,-3.323415E-05,26.487,0,1.7658,-4.53193E-05,26.487,0
1.7667,1.879912E-05,26.5005,0,1.7667,-8.728161E-06,26.5005,0
1.7676,1.779202E-05,26.514,0,1.7676,7.049668E-06,26.514,0
1.7685,1.947051E-05,26.5275,0,1.7685,1.040665E-05,26.5275,0
1.7694,1.309224E-05,26.541,0,1.7694,-1.678492E-06,26.541,0
1.7703,9.063859E-06,26.5545,0,1.7703,-2.853437E-05,26.5545,0
1.7712,3.256275E-05,26.568,0,1.7712,-2.517739E-05,26.568,0
1.7721,2.517739E-05,26.5815,0,1.7721,-4.800488E-05,26.5815,0
1.773,-9.735256E-06,26.595,0,1.773,-0.0001144732,26.595,0
1.7739,-2.887007E-05,26.6085,0,1.7739,-0.0001272297,26.6085,0
1.7748,-3.323415E-05,26.622,0,1.7748,-2.316319E-05,26.622,0
1.7757,-2.21561E-05,26.6355,0,1.7757,2.1149E-05,26.6355,0
1.7766,-1.242084E-05,26.649,0,1.7766,3.692683E-06,26.649,0
1.7775,-3.726253E-05,26.6625,0,1.7775,-1.678492E-06,26.6625,0
1.7784,-3.088426E-05,26.676,0,1.7784,1.678492E-06,26.676,0
1.7793,-4.196231E-05,26.6895,0,1.7793,-2.819867E-05,26.6895,0
1.7802,-1.107805E-05,26.703,0,1.7802,3.692683E-06,26.703,0
1.7811,-2.819867E-05,26.7165,0,1.7811,1.040665E-05,26.7165,0
1.782,-1.879912E-05,26.73,0,1.782,1.342794E-05,26.73,0
1.7829,-1.779202E-05,26.7435,0,1.7829,1.678492E-06,26.7435,0
1.7838,7.385367E-06,26.757,0,1.7838,-4.33051E-05,26.757,0
1.7847,5.001907E-05,26.7705,0,1.7847,-1.275654E-05,26.7705,0
1.7856,1.376364E-05,26.784,0,1.7856,1.947051E-05,26.784,0
1.7865,-2.685588E-06,26.7975,0,1.7865,-1.779202E-05,26.7975,0
1.7874,4.129091E-05,26.811,0,1.7874,-2.887007E-05,26.811,0
1.7883,1.712062E-05,26.8245,0,1.7883,1.577783E-05,26.8245,0
1.7892,-5.706874E-06,26.838,0,1.7892,3.021286E-06,26.838,0
1.7901,1.913481E-05,26.8515,0,1.7901,-4.43122E-05,26.8515,0
1.791,-1.913481E-05,26.865,0,1.791,-1.007095E-06,26.865,0
1.7919,-9.735256E-06,26.8785,0,1.7919,-8.392462E-06,26.8785,0
1.7928,2.786297E-05,26.892,0,1.7928,-1.779202E-05,26.892,0
1.7937,-1.141375E-05,26.9055,0,1.7937,-1.409934E-05,26.9055,0
1.7946,-2.551309E-05,26.919,0,1.7946,5.371176E-06,26.919,0
1.7955,-1.980621E-05,26.9325,0,1.7955,-1.947051E-05,26.9325,0
1.7964,-2.584878E-05,26.946,0,1.7964,-2.618448E-05,26.946,0
1.7973,-5.706874E-06,26.9595,0,1.7973,-3.524834E-05,26.9595,0
1.7982,9.063859E-06,26.973,0,1.7982,-3.961242E-05,26.973,0
1.7991,-9.735256E-06,26.9865,0,1.7991,-4.263371E-05,26.9865,0
1.8,-2.618448E-05,27,0,1.8,-5.337606E-05,27,0
1.8009,-1.007095E-05,27.0135,0,1.8009,-5.438316E-05,27.0135,0
1.8018,3.021286E-06,27.027,0,1.8018,-9.735256E-06,27.027,0
1.8027,-2.24918E-05,27.0405,0,1.8027,-8.728161E-06,27.0405,0
1.8036,-7.049668E-06,27.054,0,1.8036,-5.539025E-05,27.054,0
1.8045,-1.007095E-05,27.0675,0,1.8045,-1.510643E-05,27.0675,0
1.8054,6.713969E-07,27.081,0,1.8054,2.349889E-06,27.081,0
1.8063,3.356985E-07,27.0945,0,1.8063,-2.987716E-05,27.0945,0
1.8072,3.793393E-05,27.108,0,1.8072,-1.913481E-05,27.108,0
1.8081,8.392462E-06,27.1215,0,1.8081,2.383459E-05,27.1215,0
1.809,-4.699779E-06,27.135,0,1.809,-2.21561E-05,27.135,0
1.8099,-6.713969E-06,27.1485,0,1.8099,-1.477073E-05,27.1485,0
1.8108,-2.349889E-06,27.162,0,1.8108,-4.061952E-05,27.162,0
1.8117,-1.107805E-05,27.1755,0,1.8117,-2.517739E-05,27.1755,0
1.8126,-1.544213E-05,27.189,0,1.8126,7.721065E-06,27.189,0
1.8135,4.699779E-06,27.2025,0,1.8135,-1.443504E-05,27.2025,0
1.8144,-8.728161E-06,27.216,0,1.8144,-2.18204E-05,27.216,0
1.8153,-1.779202E-05,27.2295,0,1.8153,6.713969E-06,27.2295,0
1.8162,1.376364E-05,27.243,0,1.8162,-4.36408E-06,27.243,0
1.8171,7.721065E-06,27.2565,0,1.8171,-4.800488E-05,27.2565,0
