X[s],"Trigno IM sensor 3: EMG 3 (IM)",X[s],"Trigno IM sensor 3: Mag 3.Z (IM)",X[s],"Trigno IM sensor 4: EMG 4 (IM)",X[s],"Trigno IM sensor 4: Mag 4.Z (IM)"
0.000000,2.887007E-05,0.000000,121,0.000000,-2.517739E-05,0.000000,-1
0.0009,3.021286E-05,0.0135,124,0.0009,-2.21561E-05,0.0135,0
0.0018,6.277562E-05,0.027,122,0.0018,-1.846342E-05,0.027,0
0.0027,8.82887E-05,0.0405,122,0.0027,-4.53193E-05,0.0405,0
0.0036,2.853437E-05,0.054,121,0.0036,-6.378271E-05,0.054,1
0.0045,3.659113E-05,0.0675,121,0.0045,-0.0001064164,0.0675,-2
0.0054,7.721065E-06,0.081,122,0.0054,-0.0001443503,0.081,-2
0.0063,-5.774014E-05,0.0945,121,0.0063,-0.0001171588,0.0945,0
0.0072,-4.095522E-05,0.108,121,0.0072,-6.277562E-05,0.108,-2
0.0081,8.392462E-06,0.1215,122,0.0081,-6.378271E-05,0.1215,0
0.009000001,1.577783E-05,0.135,122,0.009000001,-1.309224E-05,0.135,-1
0.0099,5.270466E-05,0.1485,121,0.0099,8.69459E-05,0.1485,2
0.0108,2.652018E-05,0.162,122,0.0108,0.0001104448,0.162,0
0.0117,4.263371E-05,0.1755,121,0.0117,0.0001117876,0.1755,0
0.0126,-4.028382E-06,0.189,120,0.0126,4.162661E-05,0.189,-2
0.0135,4.36408E-06,0.2025,120,0.0135,1.846342E-05,0.2025,-5
0.0144,1.577783E-05,0.216,120,0.0144,-5.706874E-06,0.216,-2
0.0153,-8.392462E-06,0.2295,120,0.0153,0,0.2295,0
0.0162,5.035477E-06,0.243,120,0.0162,-2.786297E-05,0.243,-3
0.0171,5.874724E-05,0.2565,122,0.0171,-6.344701E-05,0.2565,0
0.018,5.841154E-05,0.27,122,0.018,-6.54612E-05,0.27,-3
0.0189,3.289845E-05,0.2835,122,0.0189,-5.001907E-05,0.2835,-2
0.0198,8.728161E-06,0.297,121,0.0198,-4.263371E-05,0.297,-1
0.0207,-1.141375E-05,0.3105,121,0.0207,-2.349889E-05,0.3105,0
0.0216,-1.342794E-06,0.324,122,0.0216,2.484169E-05,0.324,-1
0.0225,5.706874E-06,0.3375,122,0.0225,-1.007095E-06,0.3375,-4
0.0234,2.652018E-05,0.351,122,0.0234,-1.174945E-05,0.351,-3
0.0243,2.014191E-06,0.3645,122,0.0243,-5.539025E-05,0.3645,-3
0.0252,-4.028382E-06,0.378,121,0.0252,-7.083238E-05,0.378,0
0.0261,-2.047761E-05,0.3915,122,0.0261,-4.196231E-05,0.3915,0
0.027,-9.903105E-05,0.405,123,0.027,-1.812772E-05,0.405,0
0.0279,-7.083238E-05,0.4185,122,0.0279,-5.438316E-05,0.4185,-2
0.0288,4.263371E-05,0.432,122,0.0288,-0.0001305867,0.432,-2
0.0297,2.014191E-05,0.4455,123,0.0297,-0.0001238727,0.4455,-2
0.0306,8.291753E-05,0.459,122,0.0306,-8.86244E-05,0.459,-1
0.0315,8.358892E-05,0.4725,121,0.0315,-7.754635E-05,0.4725,0
0.0324,-6.176852E-05,0.486,121,0.0324,-6.848249E-05,0.486,0
0.0333,-6.51255E-05,0.4995,122,0.0333,1.174945E-05,0.4995,-1
0.0342,3.860533E-05,0.513,122,0.0342,7.016098E-05,0.513,-1
0.0351,-2.450599E-05,0.5265,122,0.0351,6.948959E-05,0.5265,-1
0.036,-0.0001013809,0.54,123,0.036,7.486076E-05,0.54,0
0.0369,-0.0001352865,0.5535,123,0.0369,3.994812E-05,0.5535,-1
0.0378,-0.0001473716,0.567,120,0.0378,-2.484169E-05,0.567,0
0.0387,-6.143282E-05,0.5805,122,0.0387,-2.484169E-05,0.5805,0
0.0396,7.217517E-05,0.594,123,0.0396,5.035477E-06,0.594,0
0.0405,-1.040665E-05,0.6075,123,0.0405,-3.121996E-05,0.6075,-2
0.0414,-0.0001064164,0.621,123,0.0414,-3.222705E-05,0.621,-2
0.0423,-0.0001332723,0.6345,123,0.0423,-2.1149E-05,0.6345,-2
0.0432,-0.0001863127,0.648,121,0.0432,-2.28275E-05,0.648,-1
0.0441,-0.0001453574,0.6615,123,0.0441,-3.256275E-05,0.6615,0
0.045,9.063859E-06,0.675,122,0.045,-3.524834E-05,0.675,-2
0.0459,8.157473E-05,0.6885,122,0.0459,-3.054856E-05,0.6885,-1
0.0468,7.351797E-05,0.702,124,0.0468,2.517739E-05,0.702,-2
0.0477,0.0001255512,0.7155,121,0.0477,2.349889E-06,0.7155,-2
0.0486,8.560311E-05,0.729,120,0.0486,-3.558404E-05,0.729,-2
0.0495,-0.0001101091,0.7425,122,0.0495,2.24918E-05,0.7425,-5
0.0504,-7.653925E-05,0.756,122,0.0504,-6.378271E-06,0.756,0
0.0513,-0.0001104448,0.7695,121,0.0513,-7.418937E-05,0.7695,-3
0.0522,-0.0001618067,0.783,122,0.0522,-8.493171E-05,0.783,0
0.0531,-0.0001265583,0.7965,122,0.0531,-7.183947E-05,0.7965,-1
0.054,1.577783E-05,0.81,121,0.054,-4.766919E-05,0.81,0
0.0549,1.376364E-05,0.8235,122,0.0549,-2.853437E-05,0.8235,0
0.0558,5.035477E-06,0.837,124,0.0558,-2.383459E-05,0.837,0
0.0567,0.000133608,0.8505,123,0.0567,1.040665E-05,0.8505,-1
0.0576,9.164568E-05,0.864,123,0.0576,6.344701E-05,0.864,0
0.0585,5.404745E-05,0.8775,122,0.0585,2.316319E-05,0.8775,-1
0.0594,9.097429E-05,0.891,121,0.0594,-3.591974E-05,0.891,0
0.0603,0.0001285725,0.9045,121,0.0603,1.846342E-05,0.9045,-4
0.0612,0.0001812772,0.918,122,0.0612,6.176852E-05,0.918,0
0.0621,0.0001245441,0.9315,122,0.0621,5.606165E-05,0.9315,-3
0.063,4.263371E-05,0.945,122,0.063,6.411841E-05,0.945,-2
0.0639,6.243992E-05,0.9585,122,0.0639,0,0.9585,-1
0.0648,0.0001084306,0.972,123,0.0648,-0.0001305867,0.972,0
0.0657,8.291753E-05,0.9855,123,0.0657,-0.0002067903,0.9855,-1
0.0666,0.0001218585,0.999,121,0.0666,-0.0001634852,0.999,0
0.0675,9.097429E-05,1.0125,122,0.0675,-0.0001017166,1.0125,-2
0.0684,-4.800488E-05,1.026,121,0.0684,1.980621E-05,1.026,-1
0.0693,-0.0003115282,1.0395,121,0.0693,6.478981E-05,1.0395,-1
0.0702,-0.0002205539,1.053,122,0.0702,0.0001346151,1.053,0
0.0711,-0.0002417029,1.0665,120,0.0711,9.198138E-05,1.0665,-2
0.072,-0.0002500954,1.08,121,0.072,-7.721065E-06,1.08,-2
0.0729,-0.0001520714,1.0935,120,0.0729,-4.162661E-05,1.0935,-3
0.07380001,-9.332418E-05,1.107,120,0.07380001,1.712062E-05,1.107,-5
0.07470001,5.270466E-05,1.1205,117,0.07470001,3.021286E-06,1.1205,-2
0.0756,0.0001232013,1.134,118,0.0756,-6.344701E-05,1.134,-3
0.0765,0.0001305867,1.1475,119,0.0765,-2.987716E-05,1.1475,-4
0.0774,0.000239353,1.161,120,0.0774,-1.242084E-05,1.161,-2
0.0783,0.0003246204,1.1745,117,0.0783,-4.162661E-05,1.1745,-1
0.0792,0.0001245441,1.188,119,0.0792,-6.64683E-05,1.188,-2
0.0801,-9.433127E-05,1.2015,119,0.0801,-6.61326E-05,1.2015,-1
0.081,-0.000249424,1.215,120,0.081,-3.088426E-05,1.215,-5
0.0819,-0.0003773251,1.2285,118,0.0819,1.544213E-05,1.2285,-2
0.0828,-0.0003044785,1.242,118,0.0828,-7.049668E-06,1.242,-5
0.0837,-2.047761E-05,1.2555,119,0.0837,2.349889E-06,1.2555,-6
0.0846,7.855344E-05,1.269,118,0.0846,9.399558E-06,1.269,0
0.0855,7.620356E-05,1.2825,117,0.0855,-2.24918E-05,1.2825,-2
0.0864,9.701686E-05,1.296,118,0.0864,-7.620356E-05,1.296,-4
0.0873,3.189136E-05,1.3095,118,0.0873,-5.371176E-05,1.3095,-2
0.0882,-8.761731E-05,1.323,118,0.0882,-9.030289E-05,1.323,-2
0.0891,-4.699779E-06,1.3365,118,0.0891,-0.000144686,1.3365,-1
0.09,1.846342E-05,1.35,119,0.09,-8.090334E-05,1.35,-3
0.0909,-1.208515E-05,1.3635,118,0.0909,-2.752728E-05,1.3635,-2
0.0918,-7.385367E-06,1.377,118,0.0918,-5.740444E-05,1.377,-4
0.0927,3.356985E-07,1.3905,119,0.0927,-9.500267E-05,1.3905,-3
0.0936,1.712062E-05,1.404,117,0.0936,-0.0001560998,1.404,0
0.09450001,2.920577E-05,1.4175,118,0.09450001,-0.0001426719,1.4175,-1
0.09540001,1.678492E-05,1.431,118,0.09540001,-6.78111E-05,1.431,-4
0.09630001,3.356985E-06,1.4445,118,0.09630001,-1.275654E-05,1.4445,-3
0.0972,7.351797E-05,1.458,118,0.0972,0.0001802701,1.458,0
0.0981,0.0001094377,1.4715,119,0.0981,0.0003098497,1.4715,-2
0.099,-2.920577E-05,1.485,120,0.099,0.0002799725,1.485,0
0.0999,3.726253E-05,1.4985,120,0.0999,0.0001218585,1.4985,-2
0.1008,4.867628E-05,1.512,118,0.1008,0.0001117876,1.512,-2
0.1017,-7.687495E-05,1.5255,119,0.1017,5.169757E-05,1.5255,-2
0.1026,-9.164568E-05,1.539,118,0.1026,-7.821774E-05,1.539,0
0.1035,5.371176E-06,1.5525,118,0.1035,-8.86244E-05,1.5525,0
0.1044,-2.349889E-06,1.566,117,0.1044,-6.042573E-05,1.566,-2
0.1053,5.807584E-05,1.5795,117,0.1053,-7.821774E-05,1.5795,-1
0.1062,0.000164828,1.593,118,0.1062,-3.323415E-05,1.593,-3
0.1071,0.0001383078,1.6065,117,0.1071,2.484169E-05,1.6065,-2
0.108,4.934768E-05,1.62,118,0.108,4.36408E-06,1.62,-4
0.1089,-5.471885E-05,1.6335,119,0.1089,-2.383459E-05,1.6335,-2
0.1098,-5.136187E-05,1.647,119,0.1098,-3.692683E-06,1.647,-2
0.1107,-9.097429E-05,1.6605,118,0.1107,3.793393E-05,1.6605,0
0.1116,-8.426032E-05,1.674,117,0.1116,5.740444E-05,1.674,-3
0.1125,1.745632E-05,1.6875,119,0.1125,4.33051E-05,1.6875,0
0.1134,1.678492E-05,1.701,117,0.1134,-6.378271E-06,1.701,-2
0.1143,-3.625543E-05,1.7145,118,0.1143,-7.721065E-06,1.7145,-1
0.1152,-7.418937E-05,1.728,118,0.1152,-4.968337E-05,1.728,-2
0.1161,1.712062E-05,1.7415,119,0.1161,-8.056764E-05,1.7415,-2
0.117,6.109713E-05,1.755,118,0.117,-4.39765E-05,1.755,0
0.1179,9.399558E-06,1.7685,118,0.1179,-5.572595E-05,1.7685,1
0.1188,1.007095E-06,1.782,117,0.1188,-9.466698E-05,1.782,-1
0.1197,8.86244E-05,1.7955,118,0.1197,-7.284657E-05,1.7955,-1
0.1206,7.385367E-05,1.809,117,0.1206,-4.39765E-05,1.809,0
0.1215,-5.001907E-05,1.8225,117,0.1215,-4.599069E-05,1.8225,-2
0.1224,4.39765E-05,1.836,118,0.1224,-4.33051E-05,1.836,0
0.1233,1.678492E-05,1.8495,117,0.1233,-0.0001188373,1.8495,-1
0.1242,-0.0001923552,1.863,118,0.1242,-9.869535E-05,1.863,-2
0.1251,-0.0002447242,1.8765,118,0.1251,-4.33051E-05,1.8765,1
0.126,-0.0001534142,1.89,117,0.126,-2.584878E-05,1.89,0
0.1269,-0.0001373007,1.9035,117,0.1269,-4.33051E-05,1.9035,-1
0.1278,-8.661021E-05,1.917,116,0.1278,2.987716E-05,1.917,-2
0.1287,-6.713969E-07,1.9305,118,0.1287,2.28275E-05,1.9305,-4
0.1296,5.304036E-05,1.944,117,0.1296,-5.740444E-05,1.944,-1
0.1305,-1.007095E-06,1.9575,117,0.1305,-2.18204E-05,1.9575,-5
0.1314,-6.713969E-06,1.971,117,0.1314,-1.510643E-05,1.971,0
0.1323,-4.39765E-05,1.9845,117,0.1323,-0.0001624781,1.9845,-1
0.1332,5.706874E-06,1.998,115,0.1332,-0.0002088045,1.998,-2
0.1341,2.887007E-05,2.0115,118,0.1341,-0.0001138018,2.0115,-4
0.135,5.874724E-05,2.025,119,0.135,-7.318227E-05,2.025,0
0.1359,0.0001117876,2.0385,117,0.1359,-4.196231E-05,2.0385,-2
0.1368,8.291753E-05,2.052,118,0.1368,7.620356E-05,2.052,0
0.1377,-0.0001094377,2.0655,117,0.1377,0.0002292821,2.0655,-4
0.1386,-0.0001279011,2.079,117,0.1386,0.0002366674,2.079,-1
0.1395,7.553216E-05,2.0925,118,0.1395,9.466698E-05,2.0925,-3
0.1404,0.0001695277,2.106,117,0.1404,2.786297E-05,2.106,-4
0.1413,5.606165E-05,2.1195,118,0.1413,-3.356985E-07,2.1195,-2
0.1422,-0.0001097734,2.133,117,0.1422,-0.0001215228,2.133,0
0.1431,-0.0002450599,2.1465,116,0.1431,-0.0001607996,2.1465,0
0.144,-0.000295079,2.16,118,0.144,-9.063859E-05,2.16,-2
0.1449,-8.224613E-05,2.1735,116,0.1449,-6.210422E-05,2.1735,1
0.1458,-1.007095E-06,2.187,116,0.1458,-4.733349E-05,2.187,1
0.1467,4.46479E-05,2.2005,116,0.1467,5.236896E-05,2.2005,-2
0.1476,4.733349E-05,2.214,116,0.1476,0.0001299153,2.214,-1
0.1485,2.685588E-05,2.2275,117,0.1485,4.43122E-05,2.2275,-1
0.1494,4.53193E-05,2.241,116,0.1494,3.491264E-05,2.241,-1
0.1503,4.766919E-05,2.2545,117,0.1503,-1.409934E-05,2.2545,-3
0.1512,2.1149E-05,2.268,115,0.1512,-1.376364E-05,2.268,-2
0.1521,1.007095E-06,2.2815,115,0.1521,-2.014191E-06,2.2815,-1
0.153,5.539025E-05,2.295,117,0.153,-7.351797E-05,2.295,0
0.1539,3.826963E-05,2.3085,117,0.1539,-0.0001668421,2.3085,-3
0.1548,2.014191E-06,2.322,117,0.1548,-0.0001245441,2.322,-3
0.1557,6.176852E-05,2.3355,118,0.1557,-0.0001349508,2.3355,-1
0.1566,0.0001460288,2.349,117,0.1566,-0.0001540856,2.349,-2
0.1575,0.0002400244,2.3625,118,0.1575,-3.826963E-05,2.3625,-3
0.1584,0.0002890364,2.376,117,0.1584,6.109713E-05,2.376,-4
0.1593,0.0002279393,2.3895,116,0.1593,5.270466E-05,2.3895,-3
0.1602,5.606165E-05,2.403,116,0.1602,1.745632E-05,2.403,-3
0.1611,-0.0001097734,2.4165,117,0.1611,0.0001225299,2.4165,-2
0.162,-0.0002349889,2.43,117,0.162,0.000164828,2.43,0
0.1629,-0.0003356985,2.4435,115,0.1629,0.0001430075,2.4435,-2
0.1638,-0.0002151827,2.457,117,0.1638,7.486076E-05,2.457,-1
0.1647,-0.0001084306,2.4705,117,0.1647,5.874724E-05,2.4705,-2
0.1656,-0.0001688563,2.484,118,0.1656,2.517739E-05,2.484,-2
0.1665,-6.243992E-05,2.4975,116,0.1665,-4.599069E-05,2.4975,-2
0.1674,2.987716E-05,2.511,117,0.1674,-3.189136E-05,2.511,-2
0.1683,1.712062E-05,2.5245,118,0.1683,-4.028382E-06,2.5245,0
0.1692,4.699779E-06,2.538,117,0.1692,-3.994812E-05,2.538,1
0.1701,4.733349E-05,2.5515,118,0.1701,-9.164568E-05,2.5515,-1
0.171,3.961242E-05,2.565,116,0.171,-6.814679E-05,2.565,0
0.1719,2.853437E-05,2.5785,116,0.1719,-8.392462E-05,2.5785,-2
0.1728,5.941863E-05,2.592,117,0.1728,-0.0001587854,2.592,0
0.1737,3.356985E-05,2.6055,118,0.1737,-0.0001524071,2.6055,-1
0.1746,6.6804E-05,2.619,119,0.1746,-4.43122E-05,2.619,-3
0.1755,6.411841E-05,2.6325,117,0.1755,-3.994812E-05,2.6325,-2
0.1764,-9.701686E-05,2.646,117,0.1764,-3.021286E-05,2.646,-2
0.1773,-4.867628E-05,2.6595,118,0.1773,-3.356985E-07,2.6595,-1
0.1782,4.46479E-05,2.673,119,0.1782,2.21561E-05,2.673,-1
0.1791,-6.54612E-05,2.6865,116,0.1791,1.174945E-05,2.6865,-2
0.18,-0.0001201801,2.7,117,0.18,-2.18204E-05,2.7,-1
0.1809,-0.0001037308,2.7135,117,0.1809,-2.987716E-05,2.7135,-1
0.1818,-8.795301E-05,2.727,117,0.1818,-8.392462E-06,2.727,-3
0.1827,-1.443504E-05,2.7405,117,0.1827,-1.913481E-05,2.7405,-3
0.1836,1.007095E-06,2.754,118,0.1836,-5.606165E-05,2.754,-1
0.1845,-1.577783E-05,2.7675,117,0.1845,-4.834058E-05,2.7675,0
0.1854,0.0001366293,2.781,117,0.1854,-0.000102388,2.781,0
0.1863,0.0001876554,2.7945,116,0.1863,-0.0001930266,2.7945,-4
0.1872,0.000186984,2.808,118,0.1872,-0.0002836652,2.808,0
0.1881,0.0002648661,2.8215,118,0.1881,-0.0002635233,2.8215,-2
0.189,0.0001060807,2.835,117,0.189,-0.0002272679,2.835,0
0.1899,-4.699779E-05,2.8485,118,0.1899,-0.0001309224,2.8485,-1
0.1908,-0.000161471,2.862,117,0.1908,-1.577783E-05,2.862,-2
0.1917,-0.0001161517,2.8755,117,0.1917,0.0001795987,2.8755,0
0.1926,-0.0001560998,2.889,116,0.1926,0.0003259632,2.889,-1
0.1935,-0.0001490501,2.9025,117,0.1935,0.0002534524,2.9025,0
0.1944,-0.0001054093,2.916,117,0.1944,0.0002370031,2.916,-4
0.1953,-0.0002400244,2.9295,118,0.1953,0.0002547952,2.9295,0
0.1962,-0.0001856413,2.943,116,0.1962,0.0002229038,2.943,0
0.1971,-1.007095E-05,2.9565,117,0.1971,0.0001178302,2.9565,1
0.198,5.035477E-06,2.97,118,0.198,8.157473E-05,2.97,-1
0.1989,2.618448E-05,2.9835,117,0.1989,4.53193E-05,2.9835,0
0.1998,9.030289E-05,2.997,117,0.1998,-1.577783E-05,2.997,-2
0.2007,0.0001198444,3.0105,117,0.2007,3.256275E-05,3.0105,0
0.2016,0.0002339818,3.024,117,0.2016,3.390555E-05,3.024,-2
0.2025,0.0003487907,3.0375,117,0.2025,-1.275654E-05,3.0375,0
0.2034,0.0003205921,3.051,118,0.2034,-9.332418E-05,3.051,-2
0.2043,3.457694E-05,3.0645,116,0.2043,-0.0002218967,3.0645,-3
0.2052,-8.761731E-05,3.078,0,0.2052,-0.0002195468,3.078,0
0.2061,-0.0001084306,3.0915,0,0.2061,-0.0001221943,3.0915,0
0.207,-0.000355169,3.105,0,0.207,-5.606165E-05,3.105,0
0.2079,-0.000531075,3.1185,0,0.2079,-5.774014E-05,3.1185,0
0.2088,-0.0002840009,3.132,0,0.2088,-4.36408E-06,3.132,0
0.2097,-7.217517E-05,3.1455,0,0.2097,-2.316319E-05,3.1455,0
0.2106,-3.021286E-06,3.159,0,0.2106,-9.332418E-05,3.159,0
0.2115,5.706874E-06,3.1725,0,0.2115,-5.136187E-05,3.1725,0
0.2124,1.913481E-05,3.186,0,0.2124,-1.376364E-05,3.186,0
0.2133,6.713969E-07,3.1995,0,0.2133,-4.632639E-05,3.1995,0
0.2142,1.980621E-05,3.213,0,0.2142,-5.001907E-05,3.213,0
0.2151,3.994812E-05,3.2265,0,0.2151,-3.994812E-05,3.2265,0
0.216,8.291753E-05,3.24,0,0.216,-7.888914E-05,3.24,0
0.2169,0.0001440146,3.2535,0,0.2169,-8.526741E-05,3.2535,0
0.2178,0.0001675135,3.267,0,0.2178,-7.351797E-05,3.267,0
0.2187,0.0001574426,3.2805,0,0.2187,-2.584878E-05,3.2805,0
0.2196,0.0001500572,3.294,0,0.2196,-5.539025E-05,3.294,0
0.2205,0.0002017548,3.3075,0,0.2205,-6.948959E-05,3.3075,0
0.2214,8.661021E-05,3.321,0,0.2214,-5.236896E-05,3.321,0
0.2223,-8.358892E-05,3.3345,0,0.2223,-3.424125E-05,3.3345,0
0.2232,-1.242084E-05,3.348,0,0.2232,-6.713969E-06,3.348,0
0.2241,-3.088426E-05,3.3615,0,0.2241,2.887007E-05,3.3615,0
0.225,-0.0002813153,3.375,0,0.225,7.855344E-05,3.375,0
0.2259,-0.0002175326,3.3885,0,0.2259,7.116808E-05,3.3885,0
0.2268,-2.081331E-05,3.402,0,0.2268,3.659113E-05,3.402,0
0.2277,-4.263371E-05,3.4155,0,0.2277,2.1149E-05,3.4155,0
0.2286,-4.599069E-05,3.429,0,0.2286,6.042573E-06,3.429,0
0.2295,-4.36408E-06,3.4425,0,0.2295,-2.719158E-05,3.4425,0
0.2304,-1.141375E-05,3.456,0,0.2304,-3.457694E-05,3.456,0
0.2313,4.129091E-05,3.4695,0,0.2313,-3.390555E-05,3.4695,0
0.2322,3.927672E-05,3.483,0,0.2322,-1.040665E-05,3.483,0
0.2331,4.699779E-06,3.4965,0,0.2331,-9.399558E-06,3.4965,0
0.234,4.46479E-05,3.51,0,0.234,-4.53193E-05,3.51,0
0.2349,5.740444E-05,3.5235,0,0.2349,-8.761731E-05,3.5235,0
0.2358,0.0001171588,3.537,0,0.2358,-6.411841E-05,3.537,0
0.2367,0.0001856413,3.5505,0,0.2367,-6.814679E-05,3.5505,0
0.2376,0.0001607996,3.564,0,0.2376,-0.0001181659,3.564,0
0.2385,9.903105E-05,3.5775,0,0.2385,-3.860533E-05,3.5775,0
0.2394,9.063859E-06,3.591,0,0.2394,2.819867E-05,3.591,0
0.2403,-9.835965E-05,3.6045,0,0.2403,1.107805E-05,3.6045,0
0.2412,-0.0001950408,3.618,0,0.2412,7.351797E-05,3.618,0
0.2421,-0.000224918,3.6315,0,0.2421,0.000109102,3.6315,0
0.243,-0.0002047761,3.645,0,0.243,6.478981E-05,3.645,0
0.2439,-0.0001265583,3.6585,0,0.2439,3.524834E-05,3.6585,0
0.2448,-8.090334E-05,3.672,0,0.2448,-1.040665E-05,3.672,0
0.2457,-3.692683E-06,3.6855,0,0.2457,2.1149E-05,3.6855,0
0.2466,-2.517739E-05,3.699,0,0.2466,2.752728E-05,3.699,0
0.2475,-3.524834E-05,3.7125,0,0.2475,-1.745632E-05,3.7125,0
0.2484,-1.040665E-05,3.726,0,0.2484,-0.0001171588,3.726,0
0.2493,-3.591974E-05,3.7395,0,0.2493,-0.0002195468,3.7395,0
0.2502,-2.786297E-05,3.753,0,0.2502,-0.0002752728,3.753,0
0.2511,-1.779202E-05,3.7665,0,0.2511,-0.0002423743,3.7665,0
0.252,1.174945E-05,3.78,0,0.252,-9.768826E-05,3.78,0
0.2529,5.069047E-05,3.7935,0,0.2529,8.761731E-05,3.7935,0
0.2538,7.486076E-05,3.807,0,0.2538,0.0002131685,3.807,0
0.2547,5.203327E-05,3.8205,0,0.2547,0.0002061189,3.8205,0
0.2556,2.24918E-05,3.834,0,0.2556,0.0001681849,3.834,0
0.2565,-1.376364E-05,3.8475,0,0.2565,6.948959E-05,3.8475,0
0.2574,1.443504E-05,3.861,0,0.2574,5.740444E-05,3.861,0
0.2583,0.0001111162,3.8745,0,0.2583,1.947051E-05,3.8745,0
0.2592,5.606165E-05,3.888,0,0.2592,-1.510643E-05,3.888,0
0.2601,7.385367E-06,3.9015,0,0.2601,-3.088426E-05,3.9015,0
0.261,-2.786297E-05,3.915,0,0.261,-5.035477E-05,3.915,0
0.2619,-4.36408E-05,3.9285,0,0.2619,-6.411841E-05,3.9285,0
0.2628,-3.558404E-05,3.942,0,0.2628,-4.43122E-05,3.942,0
0.2637,-6.009003E-05,3.9555,0,0.2637,-6.78111E-05,3.9555,0
0.2646,-1.980621E-05,3.969,0,0.2646,-0.0001054093,3.969,0
0.2655,-3.793393E-05,3.9825,0,0.2655,-7.318227E-05,3.9825,0
0.2664,-3.121996E-05,3.996,0,0.2664,-7.418937E-05,3.996,0
0.2673,2.383459E-05,4.0095,0,0.2673,-0.0001114519,4.0095,0
0.2682,1.174945E-05,4.023,0,0.2682,-8.795301E-05,4.023,0
0.2691,7.586786E-05,4.0365,0,0.2691,-1.309224E-05,4.0365,0
0.27,0.0001420005,4.05,0,0.27,9.231708E-05,4.05,0
0.2709,0.0001393149,4.0635,0,0.2709,0.0001127947,4.0635,0
0.2718,0.000109102,4.077,0,0.2718,4.901198E-05,4.077,0
0.2727,6.54612E-05,4.0905,0,0.2727,4.36408E-05,4.0905,0
0.2736,-6.210422E-05,4.104,0,0.2736,3.994812E-05,4.104,0
0.2745,-0.0001010452,4.1175,0,0.2745,-7.385367E-06,4.1175,0
0.2754,-8.392462E-06,4.131,0,0.2754,-5.337606E-05,4.131,0
0.2763,-0.0001319295,4.1445,0,0.2763,-5.371176E-05,4.1445,0
0.2772,-0.0001990692,4.158,0,0.2772,-0.0001292439,4.158,0
0.2781,-8.358892E-05,4.1715,0,0.2781,-0.0001806058,4.1715,0
0.279,-0.0001708705,4.185,0,0.279,-7.989624E-05,4.185,0
0.2799,-0.0001748989,4.1985,0,0.2799,-2.853437E-05,4.1985,0
0.2808,-3.256275E-05,4.212,0,0.2808,-4.263371E-05,4.212,0
0.2817,-1.846342E-05,4.2255,0,0.2817,-0.0001003738,4.2255,0
0.2826,-0.0001141375,4.239,0,0.2826,-0.0001070878,4.239,0
0.2835,-2.987716E-05,4.2525,0,0.2835,-7.855344E-05,4.2525,0
0.2844,4.934768E-05,4.266,0,0.2844,-3.457694E-05,4.266,0
0.2853,2.752728E-05,4.2795,0,0.2853,1.409934E-05,4.2795,0
0.2862,3.524834E-05,4.293,0,0.2862,0.0001456931,4.293,0
0.2871,1.275654E-05,4.3065,0,0.2871,0.0002141756,4.3065,0
0.288,4.699779E-06,4.32,0,0.288,0.0001010452,4.32,0
0.2889,1.678492E-06,4.3335,0,0.2889,9.735256E-06,4.3335,0
0.2898,8.728161E-06,4.347,0,0.2898,1.309224E-05,4.347,0
0.2907,6.042573E-05,4.3605,0,0.2907,-1.074235E-05,4.3605,0
0.2916,0.0001010452,4.374,0,0.2916,-4.766919E-05,4.374,0
0.2925,0.0001349508,4.3875,0,0.2925,9.063859E-06,4.3875,0
0.2934,0.0001500572,4.401,0,0.2934,3.591974E-05,4.401,0
0.2943,7.956054E-05,4.4145,0,0.2943,-5.337606E-05,4.4145,0
0.2952,0.000105745,4.428,0,0.2952,-8.560311E-05,4.428,0
0.2961,0.000179263,4.4415,0,0.2961,-0.0001060807,4.4415,0
0.297,0.0003179065,4.455,0,0.297,-0.0001406577,4.455,0
0.2979,0.0002376745,4.4685,0,0.2979,-9.735256E-05,4.4685,0
0.2988,-8.761731E-05,4.482,0,0.2988,-4.733349E-05,4.482,0
0.2997,-0.0002544594,4.4955,0,0.2997,-2.316319E-05,4.4955,0
0.3006,-0.0004236515,4.509,0,0.3006,-3.927672E-05,4.509,0
0.3015,-0.0005404745,4.5225,0,0.3015,-5.673304E-05,4.5225,0
0.3024,-0.0002541238,4.536,0,0.3024,-5.639734E-05,4.536,0
0.3033,-8.392462E-05,4.5495,0,0.3033,1.040665E-05,4.5495,0
0.3042,1.342794E-06,4.563,0,0.3042,-7.049668E-06,4.563,0
0.3051,9.063859E-05,4.5765,0,0.3051,-0.000161471,4.5765,0
0.306,0.0001178302,4.59,0,0.306,-0.0002366674,4.59,0
0.3069,0.0001064164,4.6035,0,0.3069,-0.0002866865,4.6035,0
0.3078,7.217517E-05,4.617,0,0.3078,-0.0001571069,4.617,0
0.3087,-3.994812E-05,4.6305,0,0.3087,0.0001312581,4.6305,0
0.3096,-0.0002380102,4.644,0,0.3096,0.0002880293,4.644,0
0.3105,-0.0001947051,4.6575,0,0.3105,0.0004129091,4.6575,0
0.3114,-1.242084E-05,4.671,0,0.3114,0.0004716564,4.671,0
0.3123,-2.719158E-05,4.6845,0,0.3123,0.0002064546,4.6845,0
0.3132,1.409934E-05,4.698,0,0.3132,9.097429E-05,4.698,0
0.3141,6.57969E-05,4.7115,0,0.3141,8.92958E-05,4.7115,0
0.315,9.097429E-05,4.725,0,0.315,3.457694E-05,4.725,0
0.3159,7.183947E-05,4.7385,0,0.3159,-2.316319E-05,4.7385,0
0.3168,6.74754E-05,4.752,0,0.3168,3.021286E-06,4.752,0
0.3177,0.0001416648,4.7655,0,0.3177,-8.728161E-06,4.7655,0
0.3186,0.0002306248,4.779,0,0.3186,-7.284657E-05,4.779,0
0.3195,3.155566E-05,4.7925,0,0.3195,-8.358892E-05,4.7925,0
0.3204,-2.417029E-05,4.806,0,0.3204,-0.0001218585,4.806,0
0.3213,4.666209E-05,4.8195,0,0.3213,-0.0001487144,4.8195,0
0.3222,3.356985E-06,4.833,0,0.3222,-0.0001097734,4.833,0
0.3231,-0.0002500954,4.8465,0,0.3231,-6.74754E-05,4.8465,0
0.324,-0.0002192111,4.86,0,0.324,-3.491264E-05,4.86,0
0.3249,-1.141375E-05,4.8735,0,0.3249,7.385367E-06,4.8735,0
0.3258,7.721065E-06,4.887,0,0.3258,-3.289845E-05,4.887,0
0.3267,4.028382E-06,4.9005,0,0.3267,-3.323415E-05,4.9005,0
0.3276,1.712062E-05,4.914,0,0.3276,-4.196231E-05,4.914,0
0.3285,2.450599E-05,4.9275,0,0.3285,-0.0001111162,4.9275,0
0.3294,4.061952E-05,4.941,0,0.3294,-0.0002064546,4.941,0
0.3303,0.0001225299,4.9545,0,0.3303,-0.0001366293,4.9545,0
0.3312,0.0001967193,4.968,0,0.3312,-0.0001601282,4.968,0
0.3321,0.0003313344,4.9815,0,0.3321,-0.0002635233,4.9815,0
0.333,0.0004750133,4.995,0,0.333,-0.0002077974,4.995,0
0.3339,0.000457557,5.0085,0,0.3339,-0.0001732204,5.0085,0
0.3348,0.0001550927,5.022,0,0.3348,-0.000154757,5.022,0
0.3357,-0.0002940719,5.0355,0,0.3357,-0.0001346151,5.0355,0
0.3366,-0.0004471504,5.049,0,0.3366,0.0001030594,5.049,0
0.3375,-0.0007230945,5.0625,0,0.3375,0.0003410697,5.0625,0
0.3384,-0.0006431983,5.076,0,0.3384,0.0003343557,5.076,0
0.3393,-0.0002769512,5.0895,0,0.3393,0.0002729229,5.0895,0
0.3402,-4.196231E-05,5.103,0,0.3402,0.0002403601,5.103,0
0.3411,-3.021286E-06,5.1165,0,0.3411,0.000105745,5.1165,0
0.342,-9.063859E-06,5.13,0,0.342,2.047761E-05,5.13,0
0.3429,4.36408E-06,5.1435,0,0.3429,-2.920577E-05,5.1435,0
0.3438,1.443504E-05,5.157,0,0.3438,-1.409934E-05,5.157,0
0.3447,1.577783E-05,5.1705,0,0.3447,-3.054856E-05,5.1705,0
0.3456,5.438316E-05,5.184,0,0.3456,-8.92958E-05,5.184,0
0.3465,0,5.1975,0,0.3465,-5.270466E-05,5.1975,0
0.3474,-3.021286E-05,5.211,0,0.3474,-6.478981E-05,5.211,0
0.3483,3.793393E-05,5.2245,0,0.3483,-9.701686E-05,5.2245,0
0.3492,6.948959E-05,5.238,0,0.3492,-0.0001077592,5.238,0
0.3501,6.411841E-05,5.2515,0,0.3501,-0.0001279011,5.2515,0
0.351,3.021286E-05,5.265,0,0.351,-0.0001292439,5.265,0
0.3519,8.023193E-05,5.2785,0,0.3519,-0.0001319295,5.2785,0
0.3528,0.0001238727,5.292,0,0.3528,-0.0001131304,5.292,0
0.3537,0.000158114,5.3055,0,0.3537,-4.901198E-05,5.3055,0
0.3546,0.0001453574,5.319,0,0.3546,-2.719158E-05,5.319,0
0.3555,4.800488E-05,5.3325,0,0.3555,-7.418937E-05,5.3325,0
0.3564,8.392462E-06,5.346,0,0.3564,-7.888914E-05,5.346,0
0.3573,9.063859E-05,5.3595,0,0.3573,-1.242084E-05,5.3595,0
0.3582,-1.174945E-05,5.373,0,0.3582,5.941863E-05,5.373,0
0.3591,-2.081331E-05,5.3865,0,0.3591,0.0001245441,5.3865,0
0.36,-1.980621E-05,5.4,0,0.36,0.0001460288,5.4,0
0.3609,3.390555E-05,5.4135,0,0.3609,3.021286E-05,5.4135,0
0.3618,1.980621E-05,5.427,0,0.3618,-9.735256E-06,5.427,0
0.3627,-2.887007E-05,5.4405,0,0.3627,-3.591974E-05,5.4405,0
0.3636,3.726253E-05,5.454,0,0.3636,-2.618448E-05,5.454,0
0.3645,-0.0001470359,5.4675,0,0.3645,-7.016098E-05,5.4675,0
0.3654,-0.0001097734,5.481,0,0.3654,-9.567407E-05,5.481,0
0.3663,-1.040665E-05,5.4945,0,0.3663,-8.358892E-05,5.4945,0
0.3672,5.371176E-06,5.508,0,0.3672,-7.284657E-05,5.508,0
0.3681,-1.812772E-05,5.5215,0,0.3681,-7.049668E-06,5.5215,0
0.369,1.980621E-05,5.535,0,0.369,9.063859E-06,5.535,0
0.3699,3.524834E-05,5.5485,0,0.3699,2.517739E-05,5.5485,0
0.3708,-0.0001279011,5.562,0,0.3708,6.378271E-05,5.562,0
0.3717,-0.0001292439,5.5755,0,0.3717,1.477073E-05,5.5755,0
0.3726,-5.136187E-05,5.589,0,0.3726,-1.409934E-05,5.589,0
0.3735,-3.021286E-06,5.6025,0,0.3735,2.887007E-05,5.6025,0
0.3744,4.53193E-05,5.616,0,0.3744,7.150377E-05,5.616,0
0.3753,1.913481E-05,5.6295,0,0.3753,1.174945E-05,5.6295,0
0.3762,5.505455E-05,5.643,0,0.3762,1.913481E-05,5.643,0
0.3771,7.486076E-05,5.6565,0,0.3771,-1.376364E-05,5.6565,0
0.378,5.438316E-05,5.67,0,0.378,-0.0001299153,5.67,0
0.3789,5.706874E-06,5.6835,0,0.3789,-0.0001591211,5.6835,0
0.3798,-4.733349E-05,5.697,0,0.3798,-0.0001628138,5.697,0
0.3807,-2.1149E-05,5.7105,0,0.3807,-6.478981E-05,5.7105,0
0.3816,-0.0001185016,5.724,0,0.3816,1.007095E-06,5.724,0
0.3825,-5.606165E-05,5.7375,0,0.3825,-4.666209E-05,5.7375,0
0.3834,2.987716E-05,5.751,0,0.3834,-0.0001104448,5.751,0
0.3843,-7.721065E-05,5.7645,0,0.3843,-4.867628E-05,5.7645,0
0.3852,-4.229801E-05,5.778,0,0.3852,-7.049668E-05,5.778,0
0.3861,0.0002239109,5.7915,0,0.3861,-4.162661E-05,5.7915,0
0.387,0.0001661708,5.805,0,0.387,1.174945E-05,5.805,0
0.3879,4.263371E-05,5.8185,0,0.3879,0.0001050736,5.8185,0
0.3888,-7.989624E-05,5.832,0,0.3888,3.726253E-05,5.832,0
0.3897,3.021286E-06,5.8455,0,0.3897,1.678492E-06,5.8455,0
0.3906,-6.344701E-05,5.859,0,0.3906,8.392462E-05,5.859,0
0.3915,-0.0001258869,5.8725,0,0.3915,6.411841E-05,5.8725,0
0.3924,-0.0003081712,5.886,0,0.3924,9.097429E-05,5.886,0
0.3933,-0.0002111543,5.8995,0,0.3933,0.0001107805,5.8995,0
0.3942,-9.970245E-05,5.913,0,0.3942,0.0001366293,5.913,0
0.3951,-9.500267E-05,5.9265,0,0.3951,0.0001359579,5.9265,0
0.396,-6.076142E-05,5.94,0,0.396,6.009003E-05,5.94,0
0.3969,1.309224E-05,5.9535,0,0.3969,3.726253E-05,5.9535,0
0.3978,1.812772E-05,5.967,0,0.3978,2.081331E-05,5.967,0
0.3987,6.713969E-06,5.9805,0,0.3987,-1.510643E-05,5.9805,0
0.3996,-4.028382E-06,5.994,0,0.3996,-7.150377E-05,5.994,0
0.4005,-3.189136E-05,6.0075,0,0.4005,-0.0001185016,6.0075,0
0.4014,6.915389E-05,6.021,0,0.4014,-0.0003101854,6.021,0
0.4023,0.0001752346,6.0345,0,0.4023,-0.0004266728,6.0345,0
0.4032,0.0001762417,6.048,0,0.4032,-0.0003021286,6.048,0
0.4041,0.0001943694,6.0615,0,0.4041,-0.000119173,6.0615,0
0.405,6.74754E-05,6.075,0,0.405,-2.316319E-05,6.075,0
0.4059,3.692683E-05,6.0885,0,0.4059,0.0001540856,6.0885,0
0.4068,-5.539025E-05,6.102,0,0.4068,0.0002259251,6.102,0
0.4077,-0.0001806058,6.1155,0,0.4077,0.0001634852,6.1155,0
0.4086,1.644922E-05,6.129,0,0.4086,3.390555E-05,6.129,0
0.4095,0.0001030594,6.1425,0,0.4095,-0.0002047761,6.1425,0
0.4104,0.0001782559,6.156,0,0.4104,-0.0003420768,6.156,0
0.4113,0.0002826581,6.1695,0,0.4113,-0.0003121996,6.1695,0
0.4122,0.0003058213,6.183,0,0.4122,-0.0001980621,6.183,0
0.4131,0.0002588235,6.1965,0,0.4131,-2.786297E-05,6.1965,0
0.414,0.0002091402,6.21,0,0.414,0.0002326391,6.21,0
0.4149,-6.71397E-05,6.2235,0,0.4149,0.0004407721,6.2235,0
0.4158,-0.0005287251,6.237,0,0.4158,0.0004401007,6.237,0
0.4167,-0.0004169375,6.2505,0,0.4167,0.0002829938,6.2505,0
0.4176,-0.0003575189,6.264,0,0.4176,0.0001070878,6.264,0
0.4185,-0.0003434196,6.2775,0,0.4185,1.107805E-05,6.2775,0
0.4194,-0.0002930648,6.291,0,0.4194,-3.659113E-05,6.291,0
0.4203,-5.136187E-05,6.3045,0,0.4203,-9.735256E-05,6.3045,0
0.4212,-2.685588E-06,6.318,0,0.4212,-7.318227E-05,6.318,0
0.4221,-0.0001144732,6.3315,0,0.4221,-3.021286E-06,6.3315,0
0.423,-0.0001007095,6.345,0,0.423,1.980621E-05,6.345,0
0.4239,1.443504E-05,6.3585,0,0.4239,2.920577E-05,6.3585,0
0.4248,1.980621E-05,6.372,0,0.4248,-4.733349E-05,6.372,0
0.4257,1.678492E-05,6.3855,0,0.4257,-9.835965E-05,6.3855,0
0.4266,3.994812E-05,6.399,0,0.4266,-0.0001473716,6.399,0
0.4275,6.176852E-05,6.4125,0,0.4275,-0.000130251,6.4125,0
0.4284,9.533837E-05,6.426,0,0.4284,-0.0001225299,6.426,0
0.4293,9.097429E-05,6.4395,0,0.4293,-0.000218204,6.4395,0
0.4302,6.143282E-05,6.453,0,0.4302,-0.0002104829,6.453,0
0.4311,4.46479E-05,6.4665,0,0.4311,-8.123904E-05,6.4665,0
0.432,-2.853437E-05,6.48,0,0.432,-5.572595E-05,6.48,0
0.4329,7.083238E-05,6.4935,0,0.4329,2.719158E-05,6.4935,0
0.4338,0.0002302892,6.507,0,0.4338,0.0001211871,6.507,0
0.4347,0.0001983978,6.5205,0,0.4347,0.0001493858,6.5205,0
0.4356,7.586786E-05,6.534,0,0.4356,3.961242E-05,6.534,0
0.4365,-5.169757E-05,6.5475,0,0.4365,-7.989624E-05,6.5475,0
0.4374,-9.298848E-05,6.561,0,0.4374,-0.0001399863,6.561,0
0.4383,-6.64683E-05,6.5745,0,0.4383,-9.600977E-05,6.5745,0
0.4392,-4.33051E-05,6.588,0,0.4392,-5.102617E-05,6.588,0
0.4401,-0.0001544213,6.6015,0,0.4401,-2.652018E-05,6.6015,0
0.441,-9.466698E-05,6.615,0,0.441,4.061952E-05,6.615,0
0.4419,4.699779E-06,6.6285,0,0.4419,1.644922E-05,6.6285,0
0.4428,2.316319E-05,6.642,0,0.4428,-5.337606E-05,6.642,0
0.4437,8.258183E-05,6.6555,0,0.4437,-9.399558E-06,6.6555,0
0.4446,0.0001107805,6.669,0,0.4446,-6.042573E-06,6.669,0
0.4455,9.768826E-05,6.6825,0,0.4455,-9.768826E-05,6.6825,0
0.4464,0.0001017166,6.696,0,0.4464,-7.620356E-05,6.696,0
0.4473,4.229801E-05,6.7095,0,0.4473,-0.0001218585,6.7095,0
0.4482,-6.378271E-06,6.723,0,0.4482,-8.661021E-05,6.723,0
0.4491,-1.678492E-06,6.7365,0,0.4491,5.740444E-05,6.7365,0
0.45,3.323415E-05,6.75,0,0.45,9.365987E-05,6.75,0
0.4509,3.591974E-05,6.7635,0,0.4509,5.001907E-05,6.7635,0
0.4518,4.968337E-05,6.777,0,0.4518,0.0001101091,6.777,0
0.4527,8.023193E-05,6.7905,0,0.4527,0.0001037308,6.7905,0
0.4536,4.733349E-05,6.804,0,0.4536,1.812772E-05,6.804,0
0.4545,-4.599069E-05,6.8175,0,0.4545,-2.584878E-05,6.8175,0
0.4554,4.53193E-05,6.831,0,0.4554,-5.941863E-05,6.831,0
0.4563,4.934768E-05,6.8445,0,0.4563,-8.056764E-05,6.8445,0
0.4572,-6.009003E-05,6.858,0,0.4572,-3.692683E-05,6.858,0
0.4581,-0.0001842985,6.8715,0,0.4581,-4.095522E-05,6.8715,0
0.459,-0.000257145,6.885,0,0.459,-4.800488E-05,6.885,0
0.4599,-0.0002218967,6.8985,0,0.4599,-2.853437E-05,6.8985,0
0.4608,-0.0002722515,6.912,0,0.4608,-3.424125E-05,6.912,0
0.4617,-0.0001527428,6.9255,0,0.4617,-0.0001279011,6.9255,0
0.4626,0.0001087663,6.939,0,0.4626,-0.0002729229,6.939,0
0.4635,0.0001174945,6.9525,0,0.4635,-0.0003279774,6.9525,0
0.4644,8.426032E-05,6.966,0,0.4644,-0.0001712062,6.966,0
0.4653,3.524834E-05,6.9795,0,0.4653,2.584878E-05,6.9795,0
0.4662,-0.0001906767,6.993,0,0.4662,0.0001366293,6.993,0
0.4671,-0.0002353246,7.0065,0,0.4671,0.0002370031,7.0065,0
0.468,-9.869535E-05,7.02,0,0.468,0.0002789654,7.02,0
0.4689,-0.0001413291,7.0335,0,0.4689,0.0002756084,7.0335,0
0.4698,-8.392462E-05,7.047,0,0.4698,0.0001822843,7.047,0
0.4707,3.994812E-05,7.0605,0,0.4707,0.0001661708,7.0605,0
0.4716,3.390555E-05,7.074,0,0.4716,0.0001460288,7.074,0
0.4725,5.807584E-05,7.0875,0,0.4725,8.258183E-05,7.0875,0
0.4734,5.270466E-05,7.101,0,0.4734,-1.107805E-05,7.101,0
0.4743,4.53193E-05,7.1145,0,0.4743,-0.0001386435,7.1145,0
0.4752,-6.713969E-06,7.128,0,0.4752,-0.0001433432,7.128,0
0.4761,2.349889E-06,7.1415,0,0.4761,-0.0001567712,7.1415,0
0.477,6.51255E-05,7.155,0,0.477,-0.0001117876,7.155,0
0.4779,0.0001514,7.1685,0,0.4779,-3.659113E-05,7.1685,0
0.4788,0.000309514,7.182,0,0.4788,9.835965E-05,7.182,0
0.4797,0.0003810178,7.1955,0,0.4797,-1.275654E-05,7.1955,0
0.4806,0.0002339818,7.209,0,0.4806,-0.0002131685,7.209,0
0.4815,3.457694E-05,7.2225,0,0.4815,-0.0002994431,7.2225,0
0.4824,-8.291753E-05,7.236,0,0.4824,-0.000411902,7.236,0
0.4833,-0.0001926909,7.2495,0,0.4833,-0.0004256657,7.2495,0
0.4842,-0.0001983978,7.263,0,0.4842,-0.0002970932,7.263,0
0.4851,-4.733349E-05,7.2765,0,0.4851,-2.853437E-05,7.2765,0
0.486,-0.0002715801,7.29,0,0.486,0.0001641566,7.29,0
0.4869,-0.0001420005,7.3035,0,0.4869,0.0003649043,7.3035,0
0.4878,-8.392462E-06,7.317,0,0.4878,0.0004209659,7.317,0
0.4887,-0.0001121233,7.3305,0,0.4887,0.0003595331,7.3305,0
0.4896,-4.061952E-05,7.344,0,0.4896,0.0002423743,7.344,0
0.4905,0.000112459,7.3575,0,0.4905,9.500267E-05,7.3575,0
0.4914,0.0001044022,7.371,0,0.4914,-1.242084E-05,7.371,0
0.4923,1.208515E-05,7.3845,0,0.4923,-9.735256E-06,7.3845,0
0.4932,-0.0001255512,7.398,0,0.4932,-0.0001198444,7.398,0
0.4941,-3.726253E-05,7.4115,0,0.4941,-0.0001923552,7.4115,0
0.495,-1.107805E-05,7.425,0,0.495,-8.191043E-05,7.425,0
0.4959,-9.869535E-05,7.4385,0,0.4959,-7.385367E-05,7.4385,0
0.4968,-7.016098E-05,7.452,0,0.4968,-7.754635E-05,7.452,0
0.4977,-3.390555E-05,7.4655,0,0.4977,-7.989624E-05,7.4655,0
0.4986,-4.867628E-05,7.479,0,0.4986,-2.719158E-05,7.479,0
0.4995,4.263371E-05,7.4925,0,0.4995,-3.726253E-05,7.4925,0
0.5004,0.0001168231,7.506,0,0.5004,-7.519646E-05,7.506,0
0.5013,0.0002141756,7.5195,0,0.5013,-4.263371E-05,7.5195,0
0.5022,0.0002709087,7.533,0,0.5022,4.599069E-05,7.533,0
0.5031,0.0002534524,7.5465,0,0.5031,7.620356E-05,7.5465,0
0.504,0.0001366293,7.56,0,0.504,3.491264E-05,7.56,0
0.5049,1.342794E-05,7.5735,0,0.5049,-6.243992E-05,7.5735,0
0.5058,-0.0001493858,7.587,0,0.5058,-5.807584E-05,7.587,0
0.5067,-0.0002269322,7.6005,0,0.5067,-7.418937E-05,7.6005,0
0.5076,-4.061952E-05,7.614,0,0.5076,-0.0001198444,7.614,0
0.5085,0.0001225299,7.6275,0,0.5085,-4.632639E-05,7.6275,0
0.5094,0.000119173,7.641,0,0.5094,1.913481E-05,7.641,0
0.5103,0.0001013809,7.6545,0,0.5103,-3.726253E-05,7.6545,0
0.5112,1.141375E-05,7.668,0,0.5112,-1.510643E-05,7.668,0
0.5121,-0.0002084688,7.6815,0,0.5121,2.1149E-05,7.6815,0
0.513,-0.0002400244,7.695,0,0.513,2.685588E-06,7.695,0
0.5139,-0.0001349508,7.7085,0,0.5139,-6.176852E-05,7.7085,0
0.5148,-0.0001507286,7.722,0,0.5148,-0.0001497215,7.722,0
0.5157,-0.0001097734,7.7355,0,0.5157,-0.0002057832,7.7355,0
0.5166,-9.298848E-05,7.749,0,0.5166,-0.0001752346,7.749,0
0.5175,-5.539025E-05,7.7625,0,0.5175,-0.0001483787,7.7625,0
0.5184,9.600977E-05,7.776,0,0.5184,-0.000105745,7.776,0
0.5193,0.000200412,7.7895,0,0.5193,5.606165E-05,7.7895,0
0.5202,0.0002668803,7.803,0,0.5202,0.0001467002,7.803,0
0.5211,0.0002239109,7.8165,0,0.5211,0.0001393149,7.8165,0
0.522,-1.779202E-05,7.83,0,0.522,0.0001957122,7.83,0
0.5229,-0.0001983978,7.8435,0,0.5229,5.639734E-05,7.8435,0
0.5238,-0.0002161898,7.857,0,0.5238,-0.0001225299,7.857,0
0.5247,-0.0002047761,7.8705,0,0.5247,-0.0002091402,7.8705,0
0.5256,-0.0001218585,7.884,0,0.5256,-0.0002138399,7.884,0
0.5265,-8.86244E-05,7.8975,0,0.5265,-0.0001087663,7.8975,0
0.5274,-8.224613E-05,7.911,0,0.5274,1.712062E-05,7.911,0
0.5283,6.243992E-05,7.9245,0,0.5283,0.0002175326,7.9245,0
0.5292,1.208515E-05,7.938,0,0.5292,0.0003232776,7.938,0
0.5301,-4.33051E-05,7.9515,0,0.5301,0.0002544594,7.9515,0
0.531,1.208515E-05,7.965,0,0.531,3.692683E-06,7.965,0
0.5319,2.349889E-06,7.9785,0,0.5319,-0.0002333104,7.9785,0
0.5328,8.291753E-05,7.992,0,0.5328,-0.000224918,7.992,0
0.5337,0.0001322652,8.0055,0,0.5337,-0.0002198825,8.0055,0
0.5346,0.0002158541,8.019,0,0.5346,-0.0001842985,8.019,0
0.5355,0.0002077974,8.0325,0,0.5355,3.994812E-05,8.0325,0
0.5364,0.0001775845,8.046,0,0.5364,0.0002047761,8.046,0
0.5373,0.0001285725,8.0595,0,0.5373,0.000278294,8.0595,0
0.5382,7.687495E-05,8.073,0,0.5382,0.0003219348,8.073,0
0.5391,-0.0002128328,8.0865,0,0.5391,0.0002356603,8.0865,0
0.54,-0.0002594949,8.1,0,0.54,2.349889E-06,8.1,0
0.5409,-0.0002272679,8.1135,0,0.5409,-0.0001386435,8.1135,0
0.5418,-0.0002279393,8.127,0,0.5418,-0.0001443503,8.127,0
0.5427,-0.000109102,8.1405,0,0.5427,-7.956054E-05,8.1405,0
0.5436,-0.0001356222,8.154,0,0.5436,-9.600977E-05,8.154,0
0.5445,-8.157473E-05,8.1675,0,0.5445,-0.0001084306,8.1675,0
0.5454,-5.606165E-05,8.181,0,0.5454,-8.426032E-05,8.181,0
0.5463,-6.71397E-05,8.1945,0,0.5463,-2.28275E-05,8.1945,0
0.5472,5.539025E-05,8.208,0,0.5472,0,8.208,0
0.5481,8.89601E-05,8.2215,0,0.5481,-7.385367E-06,8.2215,0
0.549,1.174945E-05,8.235,0,0.549,1.577783E-05,8.235,0
0.5499,-1.477073E-05,8.2485,0,0.5499,0,8.2485,0
0.5508,3.356985E-07,8.262,0,0.5508,-2.618448E-05,8.262,0
0.5517,-2.349889E-06,8.2755,0,0.5517,-5.136187E-05,8.2755,0
0.5526,1.745632E-05,8.289,0,0.5526,-5.169757E-05,8.289,0
0.5535,4.666209E-05,8.3025,0,0.5535,-7.418937E-05,8.3025,0
0.5544,6.210422E-05,8.316,0,0.5544,-8.090334E-05,8.316,0
0.5553,2.450599E-05,8.3295,0,0.5553,-0.000109102,8.3295,0
0.5562,0.0002051118,8.343,0,0.5562,-7.217517E-05,8.343,0
0.5571,0.0002611734,8.3565,0,0.5571,-9.332418E-05,8.3565,0
0.558,7.956054E-05,8.37,0,0.558,-0.0001977264,8.37,0
0.5589,0.0001050736,8.3835,0,0.5589,-0.0003803464,8.3835,0
0.5598,0.0001386435,8.397,0,0.5598,-0.0003910887,8.397,0
0.5607,0.0001782559,8.4105,0,0.5607,-0.0002759442,8.4105,0
0.5616,0.0002467384,8.424,0,0.5616,-8.258183E-05,8.424,0
0.5625,9.433127E-05,8.4375,0,0.5625,0.0002507668,8.4375,0
0.5634,7.049668E-06,8.451,0,0.5634,0.0004770276,8.451,0
0.5643,-0.0002544594,8.4645,0,0.5643,0.0004343938,8.4645,0
0.5652,-0.0006787824,8.478,0,0.5652,0.000252781,8.478,0
0.5661,-0.0004300298,8.4915,0,0.5661,0.0001138018,8.4915,0
0.567,-0.0002225681,8.505,0,0.567,-1.309224E-05,8.505,0
0.5679,-0.0001413291,8.5185,0,0.5679,7.721065E-06,8.5185,0
0.5688,-2.517739E-05,8.532,0,0.5688,9.533837E-05,8.532,0
0.5697,-3.121996E-05,8.5455,0,0.5697,0.0001339437,8.5455,0
0.5706,-4.599069E-05,8.559,0,0.5706,8.526741E-05,8.559,0
0.5715,-4.46479E-05,8.5725,0,0.5715,6.713969E-06,8.5725,0
0.5724,0.000197055,8.586,0,0.5724,-2.887007E-05,8.586,0
0.5733,0.0003649043,8.5995,0,0.5733,-3.121996E-05,8.5995,0
0.5742,0.0004790417,8.613,0,0.5742,-0.0001030594,8.613,0
0.5751,0.0005226826,8.6265,0,0.5751,-0.0001930266,8.6265,0
0.576,0.0001836271,8.64,0,0.576,-0.0001601282,8.64,0
0.5769,-0.0002554666,8.6535,0,0.5769,-8.493171E-05,8.6535,0
0.5778,-0.0005038834,8.667,0,0.5778,-3.424125E-05,8.667,0
0.5787,-0.0006341345,8.6805,0,0.5787,-1.846342E-05,8.6805,0
0.5796,-0.0006572976,8.694,0,0.5796,-0.0001067521,8.694,0
0.5805,-0.0002796368,8.7075,0,0.5805,-4.632639E-05,8.7075,0
0.5814,-7.721065E-06,8.721,0,0.5814,3.256275E-05,8.721,0
0.5823,4.162661E-05,8.7345,0,0.5823,2.081331E-05,8.7345,0
0.5832,3.591974E-05,8.748,0,0.5832,1.846342E-05,8.748,0
0.5841,8.89601E-05,8.7615,0,0.5841,-1.980621E-05,8.7615,0
0.585,8.69459E-05,8.775,0,0.585,-9.835965E-05,8.775,0
0.5859,6.881819E-05,8.7885,0,0.5859,-0.0001107805,8.7885,0
0.5868,9.500267E-05,8.802,0,0.5868,-5.740444E-05,8.802,0
0.5877,0.000190341,8.8155,0,0.5877,-9.600977E-05,8.8155,0
0.5886,0.0001111162,8.829,0,0.5886,-0.0002212253,8.829,0
0.5895,9.600977E-05,8.8425,0,0.5895,-0.0001812772,8.8425,0
0.5904,0.0001681849,8.856,0,0.5904,-6.478981E-05,8.856,0
0.5913,0.0002547952,8.8695,0,0.5913,-6.210422E-05,8.8695,0
0.5922,0.0005105974,8.883,0,0.5922,-3.625543E-05,8.883,0
0.5931,0.0003957885,8.8965,0,0.5931,8.89601E-05,8.8965,0
0.594,-3.088426E-05,8.91,0,0.594,0.0001728847,8.91,0
0.5949,-0.0002977645,8.9235,0,0.5949,3.994812E-05,8.9235,0
0.5958,-0.0003766537,8.937,0,0.5958,-1.242084E-05,8.937,0
0.5967,-0.0002306248,8.9505,0,0.5967,5.404745E-05,8.9505,0
0.5976,-0.0001399863,8.964,0,0.5976,4.061952E-05,8.964,0
0.5985,-0.0002890364,8.9775,0,0.5985,2.316319E-05,8.9775,0
0.5994,-0.0001849699,8.991,0,0.5994,3.793393E-05,8.991,0
0.6003,-4.599069E-05,9.0045,0,0.6003,0.0001037308,9.0045,0
0.6012,-1.409934E-05,9.018,0,0.6012,5.035477E-05,9.018,0
0.6021,1.477073E-05,9.0315,0,0.6021,-3.121996E-05,9.0315,0
0.603,7.049668E-06,9.045,0,0.603,-2.517739E-05,9.045,0
0.6039,1.812772E-05,9.0585,0,0.6039,-7.418937E-05,9.0585,0
0.6048,6.78111E-05,9.072001,0,0.6048,-0.0001315938,9.072001,0
0.6057,3.994812E-05,9.0855,0,0.6057,-0.0001322652,9.0855,0
0.6066,1.174945E-05,9.099,0,0.6066,-0.0001379721,9.099,0
0.6075,8.291753E-05,9.1125,0,0.6075,-7.687495E-05,9.1125,0
0.6084,9.466698E-05,9.126,0,0.6084,-5.136187E-05,9.126,0
0.6093,9.365987E-05,9.1395,0,0.6093,-2.752728E-05,9.1395,0
0.6102,0.0001218585,9.153,0,0.6102,7.586786E-05,9.153,0
0.6111,7.016098E-05,9.1665,0,0.6111,8.224613E-05,9.1665,0
0.612,-4.49836E-05,9.18,0,0.612,8.761731E-05,9.18,0
0.6129,-2.920577E-05,9.1935,0,0.6129,6.713969E-06,9.1935,0
0.6138,9.634547E-05,9.207,0,0.6138,-8.023193E-05,9.207,0
0.6147,1.577783E-05,9.2205,0,0.6147,-0.0002356603,9.2205,0
0.6156,2.1149E-05,9.234,0,0.6156,-0.0003172351,9.234,0
0.6165,7.217517E-05,9.2475,0,0.6165,-0.0001554284,9.2475,0
0.6174,3.323415E-05,9.261,0,0.6174,6.411841E-05,9.261,0
0.6183,-7.553216E-05,9.2745,0,0.6183,0.0003098497,9.2745,0
0.6192,-9.164568E-05,9.288,0,0.6192,0.0003403983,9.288,0
0.6201,-0.0001134661,9.3015,0,0.6201,0.0001997406,9.3015,0
0.621,-0.0001732204,9.315,0,0.621,1.846342E-05,9.315,0
0.6219,-0.0001957122,9.3285,0,0.6219,-9.030289E-05,9.3285,0
0.6228,-1.544213E-05,9.342,0,0.6228,-5.740444E-05,9.342,0
0.6237,0.000115816,9.3555,0,0.6237,-3.054856E-05,9.3555,0
0.6246,0.000136965,9.369,0,0.6246,-0.0001205158,9.369,0
0.6255,7.687495E-05,9.3825,0,0.6255,-0.0002232395,9.3825,0
0.6264,0.0001245441,9.396,0,0.6264,-0.0001500572,9.396,0
0.6273,0.0001688563,9.4095,0,0.6273,-6.176852E-05,9.4095,0
0.6282,2.349889E-06,9.423,0,0.6282,7.754635E-05,9.423,0
0.6291,6.74754E-05,9.4365,0,0.6291,0.0002252537,9.4365,0
0.63,4.733349E-05,9.45,0,0.63,0.0003387198,9.45,0
0.6309,-0.0001295796,9.4635,0,0.6309,0.000189334,9.4635,0
0.6318,-0.00024271,9.477,0,0.6318,5.572595E-05,9.477,0
0.6327,-0.0002272679,9.4905,0,0.6327,4.800488E-05,9.4905,0
0.6336,-0.0001779202,9.504,0,0.6336,2.047761E-05,9.504,0
0.6345,-7.452507E-05,9.5175,0,0.6345,1.174945E-05,9.5175,0
0.6354,9.265278E-05,9.531,0,0.6354,-2.450599E-05,9.531,0
0.6363,5.774014E-05,9.5445,0,0.6363,-9.567407E-05,9.5445,0
0.6372,0.0001923552,9.558,0,0.6372,-0.0001077592,9.558,0
0.6381,0.0004092164,9.5715,0,0.6381,-0.0002124971,9.5715,0
0.639,0.0002014191,9.585,0,0.639,-0.0003088426,9.585,0
0.6399,-0.0002124971,9.5985,0,0.6399,-0.0002853437,9.5985,0
0.6408,-0.0003622186,9.612,0,0.6408,-0.0001601282,9.612,0
0.6417,-0.0002074617,9.6255,0,0.6417,-4.934768E-05,9.6255,0
0.6426,-0.0002715801,9.639,0,0.6426,-6.076142E-05,9.639,0
0.6435,-0.000252781,9.6525,0,0.6435,2.484169E-05,9.6525,0
0.6444,-7.150377E-05,9.666,0,0.6444,9.365987E-05,9.666,0
0.6453,-1.107805E-05,9.6795,0,0.6453,4.129091E-05,9.6795,0
0.6462,-2.18204E-05,9.693,0,0.6462,5.404745E-05,9.693,0
0.6471,3.021286E-06,9.7065,0,0.6471,6.042573E-05,9.7065,0
0.648,-3.726253E-05,9.72,0,0.648,2.349889E-06,9.72,0
0.6489,-0.0001225299,9.7335,0,0.6489,-8.493171E-05,9.7335,0
0.6498,-5.539025E-05,9.747,0,0.6498,-0.0001060807,9.747,0
0.6507,0.0001621424,9.7605,0,0.6507,-1.510643E-05,9.7605,0
0.6516,0.000200412,9.774,0,0.6516,-1.510643E-05,9.774,0
0.6525,0.0001044022,9.7875,0,0.6525,-2.047761E-05,9.7875,0
0.6534,1.107805E-05,9.801,0,0.6534,1.007095E-05,9.801,0
0.6543,6.948959E-05,9.8145,0,0.6543,2.920577E-05,9.8145,0
0.6552,-3.927672E-05,9.828,0,0.6552,-6.109713E-05,9.828,0
0.6561,-6.344701E-05,9.8415,0,0.6561,-0.0001923552,9.8415,0
0.657,5.606165E-05,9.855,0,0.657,-0.0002242466,9.855,0
0.6579,0.0002010834,9.8685,0,0.6579,-0.0002464027,9.8685,0
0.6588,0.000102388,9.882,0,0.6588,-0.0002984359,9.882,0
0.6597,0.0001420005,9.8955,0,0.6597,-9.533837E-05,9.8955,0
0.6606,0.0001654994,9.909,0,0.6606,0.0002091402,9.909,0
0.6615,4.095522E-05,9.9225,0,0.6615,0.0002843366,9.9225,0
0.6624,-5.673304E-05,9.936,0,0.6624,0.000457557,9.936,0
0.6633,-0.0002242466,9.9495,0,0.6633,0.0004014954,9.9495,0
0.6642,-0.0002232395,9.963,0,0.6642,0.0001416648,9.963,0
0.6651,-8.459602E-05,9.976501,0,0.6651,2.349889E-06,9.976501,0
0.666,-0.0001507286,9.99,0,0.666,-9.164568E-05,9.99,0
0.6669,-0.0001913481,10.0035,0,0.6669,-0.0001735561,10.0035,0
0.6678,-3.659113E-05,10.017,0,0.6678,-0.0001349508,10.017,0
0.6687,1.980621E-05,10.0305,0,0.6687,-0.0001413291,10.0305,0
0.6696,-5.136187E-05,10.044,0,0.6696,-8.392462E-05,10.044,0
0.6705,6.210422E-05,10.0575,0,0.6705,0.0001195087,10.0575,0
0.6714,0.0002349889,10.071,0,0.6714,0.0001195087,10.071,0
0.6723,0.0003548333,10.0845,0,0.6723,3.356985E-05,10.0845,0
0.6732,0.0007032883,10.098,0,0.6732,-4.263371E-05,10.098,0
0.6741,0.0008009766,10.1115,0,0.6741,-0.0001050736,10.1115,0
0.675,0.0004246586,10.125,0,0.675,-0.0002185397,10.125,0
0.6759,-0.0002309606,10.1385,0,0.6759,-0.0002608377,10.1385,0
0.6768,-0.0002588235,10.152,0,0.6768,-0.0002517739,10.152,0
0.6777,-0.0004783703,10.1655,0,0.6777,-0.0002346532,10.1655,0
0.6786,-0.0008946364,10.179,0,0.6786,-0.000175906,10.179,0
0.6795,-0.0004874342,10.1925,0,0.6795,4.263371E-05,10.1925,0
0.6804,-0.0002128328,10.206,0,0.6804,0.0002430457,10.206,0
0.6813,-0.0001755703,10.2195,0,0.6813,0.0002346532,10.2195,0
0.6822,-0.0002024262,10.233,0,0.6822,0.0001973907,10.233,0
0.6831,-0.000231632,10.2465,0,0.6831,0.0001467002,10.2465,0
0.684,-9.802396E-05,10.26,0,0.684,0.0001185016,10.26,0
0.6849,-8.86244E-05,10.2735,0,0.6849,5.874724E-05,10.2735,0
0.6858,-8.224613E-05,10.287,0,0.6858,-3.692683E-06,10.287,0
0.6867,4.39765E-05,10.3005,0,0.6867,-1.309224E-05,10.3005,0
0.6876,0.000115816,10.314,0,0.6876,-7.083238E-05,10.314,0
0.6885,0.0002598306,10.3275,0,0.6885,-0.0001940337,10.3275,0
0.6894,0.0006321202,10.341,0,0.6894,-0.0003011215,10.341,0
0.6903,0.0008644236,10.3545,0,0.6903,-0.0004145876,10.3545,0
0.6912,0.000689189,10.368,0,0.6912,-0.0003172351,10.368,0
0.6921,0.0002024262,10.3815,0,0.6921,-0.0001926909,10.3815,0
0.693,-0.0003172351,10.395,0,0.693,-2.349889E-05,10.395,0
0.6939,-0.0008415961,10.4085,0,0.6939,0.0001980621,10.4085,0
0.6948,-0.001068528,10.422,0,0.6948,0.0003333486,10.422,0
0.6957,-0.0005505455,10.4355,0,0.6957,0.000256138,10.4355,0
0.6966,-0.0001205158,10.449,0,0.6966,0.0002128328,10.449,0
0.6975,-3.021286E-06,10.4625,0,0.6975,0.0002621805,10.4625,0
0.6984,4.36408E-05,10.476,0,0.6984,0.0001769131,10.476,0
0.6993,0.0001292439,10.4895,0,0.6993,5.337606E-05,10.4895,0
0.7002,0.0006025788,10.503,0,0.7002,4.934768E-05,10.503,0
0.7011,0.0009449912,10.5165,0,0.7011,-4.632639E-05,10.5165,0
0.702,0.0006703899,10.53,0,0.702,-0.0002225681,10.53,0
0.7029,0.0002940719,10.5435,0,0.7029,-0.0002635233,10.5435,0
0.7038,-0.0001594568,10.557,0,0.7038,-0.0003054856,10.557,0
0.7047,-0.0006804608,10.5705,0,0.7047,-0.0001524071,10.5705,0
0.7056,-0.0009238422,10.584,0,0.7056,5.606165E-05,10.584,0
0.7065,-0.000457557,10.5975,0,0.7065,0.0001349508,10.5975,0
0.7074,-0.0002366674,10.611,0,0.7074,0.0001685206,10.611,0
0.7083,-0.0002017548,10.6245,0,0.7083,0.0001101091,10.6245,0
0.7092,-4.699779E-06,10.638,0,0.7092,-1.544213E-05,10.638,0
0.7101,4.36408E-06,10.6515,0,0.7101,-5.471885E-05,10.6515,0
0.711,3.356985E-07,10.665,0,0.711,1.107805E-05,10.665,0
0.7119,7.586786E-05,10.6785,0,0.7119,2.047761E-05,10.6785,0
0.7128,0.0001030594,10.692,0,0.7128,-7.687495E-05,10.692,0
0.7137,0.0001151446,10.7055,0,0.7137,-0.0002594949,10.7055,0
0.7146,0.0001064164,10.719,0,0.7146,-0.0003790036,10.719,0
0.7155,0.0001346151,10.7325,0,0.7155,-0.0003826963,10.7325,0
0.7164,0.0001829557,10.746,0,0.7164,-0.0002511025,10.746,0
0.7173,9.735256E-05,10.7595,0,0.7173,-6.076142E-05,10.7595,0
0.7182,0.000115816,10.773,0,0.7182,0.0001701991,10.773,0
0.7191,6.210422E-05,10.7865,0,0.7191,0.0002547952,10.7865,0
0.72,-6.378271E-06,10.8,0,0.72,0.0002239109,10.8,0
0.7209,-4.263371E-05,10.8135,0,0.7209,9.903105E-05,10.8135,0
0.7218,-2.014191E-05,10.827,0,0.7218,0.0001282368,10.827,0
0.7227,9.634547E-05,10.8405,0,0.7227,0.0001285725,10.8405,0
0.7236,9.231708E-05,10.854,0,0.7236,3.826963E-05,10.854,0
0.7245,1.141375E-05,10.8675,0,0.7245,1.040665E-05,10.8675,0
0.7254,1.007095E-05,10.881,0,0.7254,-2.014191E-06,10.881,0
0.7263,0.0001161517,10.8945,0,0.7263,-9.164568E-05,10.8945,0
0.7272,0.0001701991,10.908,0,0.7272,-8.123904E-05,10.908,0
0.7281,0.000112459,10.9215,0,0.7281,-1.678492E-05,10.9215,0
0.729,0.0001010452,10.935,0,0.729,1.846342E-05,10.935,0
0.7299,4.666209E-05,10.9485,0,0.7299,6.378271E-05,10.9485,0
0.7308,7.620356E-05,10.962,0,0.7308,3.793393E-05,10.962,0
0.7317,8.291753E-05,10.9755,0,0.7317,3.860533E-05,10.9755,0
0.7326,9.231708E-05,10.989,0,0.7326,-4.36408E-06,10.989,0
0.7335,0.0003622186,11.0025,0,0.7335,-0.0002534524,11.0025,0
0.7344,0.000291722,11.016,0,0.7344,-0.0008060121,11.016,0
0.7353,0.0001806058,11.0295,0,0.7353,-0.0009792325,11.0295,0
0.7362,-4.733349E-05,11.043,0,0.7362,-0.000865095,11.043,0
0.7371,-0.0002568093,11.0565,0,0.7371,-0.0006854963,11.0565,0
0.738,-0.0007398794,11.07,0,0.738,0.0001117876,11.07,0
0.7389,-0.001036973,11.0835,0,0.7389,0.0009987029,11.0835,0
0.7398,-0.0004622568,11.097,0,0.7398,0.001048386,11.097,0
0.7407,-9.903105E-05,11.1105,0,0.7407,0.0008318608,11.1105,0
0.7416,-0.0001359579,11.124,0,0.7416,0.0005982147,11.124,0
0.7425,-3.726253E-05,11.1375,0,0.7425,0.0003555047,11.1375,0
0.7434,0.0001299153,11.151,0,0.7434,0.0001795987,11.151,0
0.7443,0.0002480812,11.1645,0,0.7443,9.835965E-05,11.1645,0
0.7452,0.0002440528,11.178,0,0.7452,7.855344E-05,11.178,0
0.7461,5.639734E-05,11.1915,0,0.7461,3.356985E-05,11.1915,0
0.747,-0.0001185016,11.205,0,0.747,-8.661021E-05,11.205,0
0.7479,-3.256275E-05,11.2185,0,0.7479,-0.0001406577,11.2185,0
0.7488,-3.323415E-05,11.232,0,0.7488,-8.459602E-05,11.232,0
0.7497,7.989624E-05,11.2455,0,0.7497,-8.69459E-05,11.2455,0
0.7506,7.284657E-05,11.259,0,0.7506,-0.0001255512,11.259,0
0.7515,-8.493171E-05,11.2725,0,0.7515,-9.433127E-05,11.2725,0
0.7524,-5.706874E-05,11.286,0,0.7524,-0.0001047379,11.286,0
0.7533,-6.277562E-05,11.2995,0,0.7533,-0.0001587854,11.2995,0
0.7542,-0.0001735561,11.313,0,0.7542,-0.0001379721,11.313,0
0.7551,-0.0002541238,11.3265,0,0.7551,-0.000105745,11.3265,0
0.756,-0.0001144732,11.34,0,0.756,-0.0001121233,11.34,0
0.7569,2.349889E-06,11.3535,0,0.7569,-0.0002480812,11.3535,0
0.7578,2.417029E-05,11.367,0,0.7578,-0.0003175708,11.367,0
0.7587,8.224613E-05,11.3805,0,0.7587,-0.0002380102,11.3805,0
0.7596,0.0002507668,11.394,0,0.7596,-0.0001540856,11.394,0
0.7605,0.0003071641,11.4075,0,0.7605,-5.740444E-05,11.4075,0
0.7614,0.0004689708,11.421,0,0.7614,5.975433E-05,11.421,0
0.7623,0.0004917983,11.4345,0,0.7623,0.0001695277,11.4345,0
0.7632,0.0002306248,11.448,0,0.7632,0.0001272297,11.448,0
0.7641,0.0001148089,11.4615,0,0.7641,1.174945E-05,11.4615,0
0.765,0.0001393149,11.475,0,0.765,1.644922E-05,11.475,0
0.7659,2.987716E-05,11.4885,0,0.7659,-1.443504E-05,11.4885,0
0.7668,-0.0003736324,11.502,0,0.7668,-3.424125E-05,11.502,0
0.7677,-0.000186984,11.5155,0,0.7677,-2.316319E-05,11.5155,0
0.7686,-0.0001262226,11.529,0,0.7686,-0.0001164874,11.529,0
0.7695,2.517739E-05,11.5425,0,0.7695,-0.0002061189,11.5425,0
0.7704,0.0001379721,11.556,0,0.7704,-0.0002497597,11.556,0
0.7713,0.0002440528,11.5695,0,0.7713,-0.0003031357,11.5695,0
0.7722,5.203327E-05,11.583,0,0.7722,-0.0003044785,11.583,0
0.7731,-0.0005884795,11.5965,0,0.7731,-0.0001708705,11.5965,0
0.774,-0.0008758373,11.61,0,0.774,-1.107805E-05,11.61,0
0.7749,-0.000558938,11.6235,0,0.7749,9.903105E-05,11.6235,0
0.7758,-0.0003256275,11.637,0,0.7758,0.000190341,11.637,0
0.7767,-0.0003622186,11.6505,0,0.7767,0.000291722,11.6505,0
0.7776,-0.000161471,11.664,0,0.7776,0.0002051118,11.664,0
0.7785,-3.558404E-05,11.6775,0,0.7785,0.0002709087,11.6775,0
0.7794,1.007095E-06,11.691,0,0.7794,0.000249424,11.691,0
0.7803,7.183947E-05,11.7045,0,0.7803,0.0002145113,11.7045,0
0.7812,3.961242E-05,11.718,0,0.7812,0.0001339437,11.718,0
0.7821,5.639734E-05,11.7315,0,0.7821,7.452507E-05,11.7315,0
0.783,0.000140322,11.745,0,0.783,1.242084E-05,11.745,0
0.7839,0.000327306,11.7585,0,0.7839,-5.136187E-05,11.7585,0
0.7848,0.000418616,11.772,0,0.7848,-0.000105745,11.772,0
0.7857,0.0003219348,11.7855,0,0.7857,-0.0001084306,11.7855,0
0.7866,0.0002648661,11.799,0,0.7866,-0.0002084688,11.799,0
0.7875,8.89601E-05,11.8125,0,0.7875,-0.000278294,11.8125,0
0.7884,-0.0001326009,11.826,0,0.7884,-0.0002339818,11.826,0
0.7893,-0.0001265583,11.8395,0,0.7893,-9.063859E-05,11.8395,0
0.7902,-7.016098E-05,11.853,0,0.7902,-0.0001440146,11.853,0
0.7911,-4.733349E-05,11.8665,0,0.7911,-7.049668E-05,11.8665,0
0.792,-9.936675E-05,11.88,0,0.792,0.0002376745,11.88,0
0.7929,6.378271E-05,11.8935,0,0.7929,0.0002652018,11.8935,0
0.7938,6.009003E-05,11.907,0,0.7938,0.0001544213,11.907,0
0.7947,2.349889E-06,11.9205,0,0.7947,-3.356985E-07,11.9205,0
0.7956,2.786297E-05,11.934,0,0.7956,-4.263371E-05,11.934,0
0.7965,4.49836E-05,11.9475,0,0.7965,-5.270466E-05,11.9475,0
0.7974,3.692683E-05,11.961,0,0.7974,-8.89601E-05,11.961,0
0.7983,2.819867E-05,11.9745,0,0.7983,-0.0001252155,11.9745,0
0.7992,0.0001000381,11.988,0,0.7992,-4.46479E-05,11.988,0
0.8001,8.89601E-05,12.0015,0,0.8001,5.740444E-05,12.0015,0
0.801,2.517739E-05,12.015,0,0.801,3.424125E-05,12.015,0
0.8019,7.620356E-05,12.0285,0,0.8019,1.510643E-05,12.0285,0
0.8028,5.001907E-05,12.042,0,0.8028,5.270466E-05,12.042,0
0.8037,5.035477E-06,12.0555,0,0.8037,-3.927672E-05,12.0555,0
0.8046,5.304036E-05,12.069,0,0.8046,-0.0001010452,12.069,0
0.8055,9.735256E-06,12.0825,0,0.8055,-4.33051E-05,12.0825,0
0.8064,-3.424125E-05,12.096,0,0.8064,-1.913481E-05,12.096,0
0.8073,-7.385367E-06,12.1095,0,0.8073,-5.169757E-05,12.1095,0
0.8082,3.994812E-05,12.123,0,0.8082,-3.659113E-05,12.123,0
0.8091,-1.242084E-05,12.1365,0,0.8091,-2.887007E-05,12.1365,0
0.81,2.1149E-05,12.15,0,0.81,-0.0001389792,12.15,0
0.8109,5.539025E-05,12.1635,0,0.8109,-0.0002366674,12.1635,0
0.8118,7.116808E-05,12.177,0,0.8118,-0.0002171969,12.177,0
0.8127,7.049668E-05,12.1905,0,0.8127,-5.203327E-05,12.1905,0
0.8136,5.404745E-05,12.204,0,0.8136,3.860533E-05,12.204,0
0.8145,-3.289845E-05,12.2175,0,0.8145,0.0001376364,12.2175,0
0.8154,-0.0002645304,12.231,0,0.8154,0.0001748989,12.231,0
0.8163,-0.000252781,12.2445,0,0.8163,6.411841E-05,12.2445,0
0.8172,-6.814679E-05,12.258,0,0.8172,-1.242084E-05,12.258,0
0.8181,-2.719158E-05,12.2715,0,0.8181,-5.169757E-05,12.2715,0
0.819,-4.733349E-05,12.285,0,0.819,-3.189136E-05,12.285,0
0.8199,-3.189136E-05,12.2985,0,0.8199,4.129091E-05,12.2985,0
0.8208,-1.678492E-06,12.312,0,0.8208,5.539025E-05,12.312,0
0.8217,1.107805E-05,12.3255,0,0.8217,0.0001013809,12.3255,0
0.8226,1.577783E-05,12.339,0,0.8226,0.0001094377,12.339,0
0.8235,-2.18204E-05,12.3525,0,0.8235,2.349889E-06,12.3525,0
0.8244,-3.961242E-05,12.366,0,0.8244,-5.069047E-05,12.366,0
0.8253,-2.719158E-05,12.3795,0,0.8253,-0.0001141375,12.3795,0
0.8262,-1.678492E-05,12.393,0,0.8262,-9.030289E-05,12.393,0
0.8271,-9.063859E-06,12.4065,0,0.8271,-7.888914E-05,12.4065,0
0.828,9.063859E-06,12.42,0,0.828,-8.560311E-05,12.42,0
0.8289,6.042573E-06,12.4335,0,0.8289,-6.54612E-05,12.4335,0
0.8298,-3.356985E-07,12.447,0,0.8298,1.544213E-05,12.447,0
0.8307,1.980621E-05,12.4605,0,0.8307,-1.510643E-05,12.4605,0
0.8316,5.001907E-05,12.474,0,0.8316,-1.779202E-05,12.474,0
0.8325,2.987716E-05,12.4875,0,0.8325,5.337606E-05,12.4875,0
0.8334,0.0001675135,12.501,0,0.8334,1.779202E-05,12.501,0
0.8343,0.0003555047,12.5145,0,0.8343,-0.0001349508,12.5145,0
0.8352,0.0003054856,12.528,0,0.8352,-0.0002581521,12.528,0
0.8361,0.000218204,12.5415,0,0.8361,-0.00021149,12.5415,0
0.837,7.418937E-05,12.555,0,0.837,-0.000161471,12.555,0
0.8379,-0.0002944076,12.5685,0,0.8379,-2.349889E-05,12.5685,0
0.8388,-0.0007408865,12.582,0,0.8388,9.231708E-05,12.582,0
0.8397,-0.0005011978,12.5955,0,0.8397,0.0002386816,12.5955,0
0.8406,-9.399558E-06,12.609,0,0.8406,0.0002406958,12.609,0
0.8415,0.0003326772,12.6225,0,0.8415,6.948959E-05,12.6225,0
0.8424,0.0003528191,12.636,0,0.8424,7.049668E-06,12.636,0
0.8433,0.0003058213,12.6495,0,0.8433,2.819867E-05,12.6495,0
0.8442,0.0002870222,12.663,0,0.8442,1.107805E-05,12.663,0
0.8451,-0.0001883268,12.6765,0,0.8451,-2.719158E-05,12.6765,0
0.846,-0.0007324941,12.69,0,0.846,-2.920577E-05,12.69,0
0.8469,-0.0005089189,12.7035,0,0.8469,-3.189136E-05,12.7035,0
0.8478,-0.0004048524,12.717,0,0.8478,-4.263371E-05,12.717,0
0.8487,-0.000418616,12.7305,0,0.8487,-3.927672E-05,12.7305,0
0.8496,-0.0001705348,12.744,0,0.8496,-1.644922E-05,12.744,0
0.8505,0.0001054093,12.7575,0,0.8505,-3.054856E-05,12.7575,0
0.8514,0.0001044022,12.771,0,0.8514,-5.069047E-05,12.771,0
0.8523,0.0001060807,12.7845,0,0.8523,-5.505455E-05,12.7845,0
0.8532,0.0001705348,12.798,0,0.8532,-3.356985E-07,12.798,0
0.8541,3.021286E-06,12.8115,0,0.8541,-6.713969E-07,12.8115,0
0.855,-0.0002212253,12.825,0,0.855,-6.143282E-05,12.825,0
0.8559,0.0001295796,12.8385,0,0.8559,-6.78111E-05,12.8385,0
0.8568,0.0003360342,12.852,0,0.8568,-0.0001305867,12.852,0
0.8577,6.478981E-05,12.8655,0,0.8577,-0.0001809415,12.8655,0
0.8586,-0.0001111162,12.879,0,0.8586,-0.0001587854,12.879,0
0.8595001,-0.0001238727,12.8925,0,0.8595001,-0.0001064164,12.8925,0
0.8604,-0.0003363699,12.906,0,0.8604,-3.457694E-05,12.906,0
0.8613,-0.0001688563,12.9195,0,0.8613,0.0001017166,12.9195,0
0.8622,6.64683E-05,12.933,0,0.8622,0.0001030594,12.933,0
0.8631,5.337606E-05,12.9465,0,0.8631,2.853437E-05,12.9465,0
0.864,5.337606E-05,12.96,0,0.864,8.023193E-05,12.96,0
0.8649,0.0001111162,12.9735,0,0.8649,0.0001050736,12.9735,0
0.8658,0.000105745,12.987,0,0.8658,-3.390555E-05,12.987,0
0.8667,0.0001027237,13.0005,0,0.8667,-8.82887E-05,13.0005,0
0.8676,9.835965E-05,13.014,0,0.8676,-9.164568E-05,13.014,0
0.8685,7.486076E-05,13.0275,0,0.8685,-0.0001433432,13.0275,0
0.8694,8.224613E-05,13.041,0,0.8694,-6.982528E-05,13.041,0
0.8703,8.69459E-05,13.0545,0,0.8703,9.097429E-05,13.0545,0
0.8712,0.0001077592,13.068,0,0.8712,0.0002027619,13.068,0
0.8721,0.0001668421,13.0815,0,0.8721,0.0001228656,13.0815,0
0.873,0.0001715419,13.095,0,0.873,5.539025E-05,13.095,0
0.8739,0.0002853437,13.1085,0,0.8739,3.424125E-05,13.1085,0
0.8748,0.0003360342,13.122,0,0.8748,-0.0001279011,13.122,0
0.8757,0.0002390173,13.1355,0,0.8757,-0.000154757,13.1355,0
0.8766,2.316319E-05,13.149,0,0.8766,-5.102617E-05,13.149,0
0.8775,-0.0001292439,13.1625,0,0.8775,7.049668E-06,13.1625,0
0.8784,-0.0002907149,13.176,0,0.8784,9.903105E-05,13.176,0
0.8793,-0.0004635996,13.1895,0,0.8793,4.095522E-05,13.1895,0
0.8802,-0.0001560998,13.203,0,0.8802,6.6804E-05,13.203,0
0.8811,-7.956054E-05,13.2165,0,0.8811,8.023193E-05,13.2165,0
0.882,-0.0001520714,13.23,0,0.882,1.107805E-05,13.23,0
0.8829,-4.733349E-05,13.2435,0,0.8829,-2.24918E-05,13.2435,0
0.8838,-9.063859E-06,13.257,0,0.8838,1.443504E-05,13.257,0
0.8847,-3.793393E-05,13.2705,0,0.8847,-1.678492E-05,13.2705,0
0.8856,-1.678492E-05,13.284,0,0.8856,-6.61326E-05,13.284,0
0.8865,4.028382E-06,13.2975,0,0.8865,-4.33051E-05,13.2975,0
0.8874,-3.054856E-05,13.311,0,0.8874,-5.438316E-05,13.311,0
0.8883,-4.095522E-05,13.3245,0,0.8883,-9.130999E-05,13.3245,0
0.8892,-1.779202E-05,13.338,0,0.8892,-3.356985E-05,13.338,0
0.8901,-2.450599E-05,13.3515,0,0.8901,2.752728E-05,13.3515,0
0.891,-1.678492E-06,13.365,0,0.891,6.713969E-07,13.365,0
0.8919,1.040665E-05,13.3785,0,0.8919,-2.24918E-05,13.3785,0
0.8928,4.36408E-05,13.392,0,0.8928,-2.316319E-05,13.392,0
0.8937,4.800488E-05,13.4055,0,0.8937,-3.860533E-05,13.4055,0
0.8946,9.399558E-06,13.419,0,0.8946,-7.620356E-05,13.419,0
0.8955,-1.678492E-06,13.4325,0,0.8955,-7.217517E-05,13.4325,0
0.8964,-4.028382E-06,13.446,0,0.8964,-8.795301E-05,13.446,0
0.8973,-3.356985E-07,13.4595,0,0.8973,-5.438316E-05,13.4595,0
0.8982,2.652018E-05,13.473,0,0.8982,-6.478981E-05,13.473,0
0.8991,2.484169E-05,13.4865,0,0.8991,-6.277562E-05,13.4865,0
0.9,-1.577783E-05,13.5,0,0.9,1.007095E-05,13.5,0
0.9009,-2.618448E-05,13.5135,0,0.9009,-6.915389E-05,13.5135,0
0.9018,-3.054856E-05,13.527,0,0.9018,-0.0001211871,13.527,0
0.9027,-1.477073E-05,13.5405,0,0.9027,-9.198138E-05,13.5405,0
0.9036,0,13.554,0,0.9036,-3.860533E-05,13.554,0
0.9045,2.383459E-05,13.5675,0,0.9045,1.309224E-05,13.5675,0
0.9054,3.054856E-05,13.581,0,0.9054,3.390555E-05,13.581,0
0.9063,5.807584E-05,13.5945,0,0.9063,-1.913481E-05,13.5945,0
0.9072,6.74754E-05,13.608,0,0.9072,2.450599E-05,13.608,0
0.9081,6.277562E-05,13.6215,0,0.9081,2.047761E-05,13.6215,0
0.909,4.162661E-05,13.635,0,0.909,-4.095522E-05,13.635,0
0.9099,1.443504E-05,13.6485,0,0.9099,-3.826963E-05,13.6485,0
0.9108,-1.275654E-05,13.662,0,0.9108,-1.644922E-05,13.662,0
0.9117,-4.599069E-05,13.6755,0,0.9117,-2.047761E-05,13.6755,0
0.9126,-3.491264E-05,13.689,0,0.9126,-4.766919E-05,13.689,0
0.9135,-1.980621E-05,13.7025,0,0.9135,1.242084E-05,13.7025,0
0.9144,-4.666209E-05,13.716,0,0.9144,1.980621E-05,13.716,0
0.9153,-6.210422E-05,13.7295,0,0.9153,-2.18204E-05,13.7295,0
0.9162,-4.666209E-05,13.743,0,0.9162,-1.980621E-05,13.743,0
0.9171,-5.337606E-05,13.7565,0,0.9171,5.706874E-06,13.7565,0
0.918,-5.471885E-05,13.77,0,0.918,-1.510643E-05,13.77,0
0.9189,-7.016098E-05,13.7835,0,0.9189,-2.450599E-05,13.7835,0
0.9198,-1.443504E-05,13.797,0,0.9198,-3.826963E-05,13.797,0
0.9207,2.047761E-05,13.8105,0,0.9207,-2.819867E-05,13.8105,0
0.9216,-7.721065E-06,13.824,0,0.9216,2.349889E-06,13.824,0
0.9225,2.18204E-05,13.8375,0,0.9225,-4.028382E-06,13.8375,0
0.9234,8.023193E-05,13.851,0,0.9234,-1.712062E-05,13.851,0
0.9243,3.591974E-05,13.8645,0,0.9243,-1.947051E-05,13.8645,0
0.9252,-1.644922E-05,13.878,0,0.9252,-8.69459E-05,13.878,0
0.9261,5.035477E-06,13.8915,0,0.9261,-9.399557E-05,13.8915,0
0.927,1.678492E-06,13.905,0,0.927,-2.786297E-05,13.905,0
0.9279,-1.107805E-05,13.9185,0,0.9279,8.392462E-06,13.9185,0
0.9288,-1.141375E-05,13.932,0,0.9288,-4.36408E-06,13.932,0
0.9297,-5.706874E-06,13.9455,0,0.9297,2.584878E-05,13.9455,0
0.9306,-4.46479E-05,13.959,0,0.9306,7.888914E-05,13.959,0
0.9315,-3.793393E-05,13.9725,0,0.9315,3.994812E-05,13.9725,0
0.9324,-1.107805E-05,13.986,0,0.9324,2.652018E-05,13.986,0
0.9333,4.699779E-06,13.9995,0,0.9333,3.692683E-06,13.9995,0
0.9342,-3.793393E-05,14.013,0,0.9342,2.1149E-05,14.013,0
0.9351,-5.874724E-05,14.0265,0,0.9351,1.812772E-05,14.0265,0
0.936,-3.256275E-05,14.04,0,0.936,-7.721065E-06,14.04,0
0.9369,-2.853437E-05,14.0535,0,0.9369,-8.392462E-06,14.0535,0
0.9378,-4.934768E-05,14.067,0,0.9378,1.947051E-05,14.067,0
0.9387,3.457694E-05,14.0805,0,0.9387,3.021286E-06,14.0805,0
0.9396001,0.0002131685,14.094,0,0.9396001,-2.450599E-05,14.094,0
0.9405,0.0002762798,14.1075,0,0.9405,-3.591974E-05,14.1075,0
0.9414001,0.0005206683,14.121,0,0.9414001,-0.0001292439,14.121,0
0.9423,0.0006764324,14.1345,0,0.9423,-0.000249424,14.1345,0
0.9432001,0.000348455,14.148,0,0.9432001,-0.0003175708,14.148,0
0.9441,-0.0001238727,14.1615,0,0.9441,-0.0002803082,14.1615,0
0.9450001,-0.0003900816,14.175,0,0.9450001,-0.0001762417,14.175,0
0.9459,-0.0006922103,14.1885,0,0.9459,-1.913481E-05,14.1885,0
0.9468,-0.001244434,14.202,0,0.9468,7.653925E-05,14.202,0
0.9477,-0.000531075,14.2155,0,0.9477,0.0002118257,14.2155,0
0.9486,-4.129091E-05,14.229,0,0.9486,0.0003447623,14.229,0
0.9495,-5.471885E-05,14.2425,0,0.9495,0.0003041428,14.2425,0
0.9504,1.007095E-06,14.256,0,0.9504,0.0002051118,14.256,0
0.9513,5.706874E-06,14.2695,0,0.9513,0.0001628138,14.2695,0
0.9522,2.21561E-05,14.283,0,0.9522,8.493171E-05,14.283,0
0.9531,3.726253E-05,14.2965,0,0.9531,-1.208515E-05,14.2965,0
0.954,-3.021286E-06,14.31,0,0.954,-1.342794E-05,14.31,0
0.9549,-3.692683E-06,14.3235,0,0.9549,-2.517739E-05,14.3235,0
0.9558,4.901198E-05,14.337,0,0.9558,-6.445411E-05,14.337,0
0.9567,7.620356E-05,14.3505,0,0.9567,-4.800488E-05,14.3505,0
0.9576,3.659113E-05,14.364,0,0.9576,-3.659113E-05,14.364,0
0.9585,6.277562E-05,14.3775,0,0.9585,-4.632639E-05,14.3775,0
0.9594,7.956054E-05,14.391,0,0.9594,-3.591974E-05,14.391,0
0.9603,7.016098E-05,14.4045,0,0.9603,-6.344701E-05,14.4045,0
0.9612,6.243992E-05,14.418,0,0.9612,-7.284657E-05,14.418,0
0.9621,6.948959E-05,14.4315,0,0.9621,-0.0001232013,14.4315,0
0.963,5.874724E-05,14.445,0,0.963,-0.0002420386,14.445,0
0.9639,6.042573E-05,14.4585,0,0.9639,-0.0003199207,14.4585,0
0.9648,9.634547E-05,14.472,0,0.9648,-0.0003675898,14.472,0
0.9657,0.0001661708,14.4855,0,0.9657,-0.0004115663,14.4855,0
0.9666,0.0002487526,14.499,0,0.9666,-0.0003555047,14.499,0
0.9675,0.0001856413,14.5125,0,0.9675,-0.0001010452,14.5125,0
0.9684,1.577783E-05,14.526,0,0.9684,0.0001601282,14.526,0
0.9693,-0.0001661708,14.5395,0,0.9693,0.000372961,14.5395,0
0.9702,-0.0003185779,14.553,0,0.9702,0.0004239872,14.553,0
0.9711,-0.0001356222,14.5665,0,0.9711,0.0003219348,14.5665,0
0.972,-6.143282E-05,14.58,0,0.972,0.0001926909,14.58,0
0.9729,-4.46479E-05,14.5935,0,0.9729,0.000148043,14.5935,0
0.9738,1.443504E-05,14.607,0,0.9738,6.814679E-05,14.607,0
0.9747,6.042573E-06,14.6205,0,0.9747,3.189136E-05,14.6205,0
0.9756,2.719158E-05,14.634,0,0.9756,3.390555E-05,14.634,0
0.9765,3.457694E-05,14.6475,0,0.9765,-9.399558E-06,14.6475,0
0.9774,2.047761E-05,14.661,0,0.9774,-4.666209E-05,14.661,0
0.9783,1.040665E-05,14.6745,0,0.9783,-1.980621E-05,14.6745,0
0.9792,5.035477E-06,14.688,0,0.9792,-3.323415E-05,14.688,0
0.9801,-9.063859E-06,14.7015,0,0.9801,-7.754635E-05,14.7015,0
0.981,-5.304036E-05,14.715,0,0.981,-4.36408E-05,14.715,0
0.9819,-4.632639E-05,14.7285,0,0.9819,-2.18204E-05,14.7285,0
0.9828,-8.728161E-06,14.742,0,0.9828,-6.210422E-05,14.742,0
0.9837,-4.33051E-05,14.7555,0,0.9837,-8.123904E-05,14.7555,0
0.9846,-1.712062E-05,14.769,0,0.9846,-3.054856E-05,14.769,0
0.9855,1.779202E-05,14.7825,0,0.9855,-3.793393E-05,14.7825,0
0.9864,-1.947051E-05,14.796,0,0.9864,-0.000102388,14.796,0
0.9873,1.980621E-05,14.8095,0,0.9873,-0.0001054093,14.8095,0
0.9882,3.793393E-05,14.823,0,0.9882,-7.116808E-05,14.823,0
0.9891,6.243992E-05,14.8365,0,0.9891,-3.457694E-05,14.8365,0
0.99,1.443504E-05,14.85,0,0.99,-6.78111E-05,14.85,0
0.9909,-5.706874E-06,14.8635,0,0.9909,-8.123904E-05,14.8635,0
0.9918,-1.007095E-06,14.877,0,0.9918,-1.644922E-05,14.877,0
0.9927,-3.692683E-06,14.8905,0,0.9927,-2.920577E-05,14.8905,0
0.9936,-8.392462E-06,14.904,0,0.9936,-6.478981E-05,14.904,0
0.9945,0,14.9175,0,0.9945,-3.256275E-05,14.9175,0
0.9954,-4.061952E-05,14.931,0,0.9954,-3.054856E-05,14.931,0
0.9963,-2.484169E-05,14.9445,0,0.9963,-6.109713E-05,14.9445,0
0.9972,4.36408E-06,14.958,0,0.9972,-2.786297E-05,14.958,0
0.9981,4.39765E-05,14.9715,0,0.9981,5.706874E-06,14.9715,0
0.999,2.853437E-05,14.985,0,0.999,-1.007095E-05,14.985,0
0.9999,1.913481E-05,14.9985,0,0.9999,-1.577783E-05,14.9985,0
1.0008,2.349889E-05,15.012,0,1.0008,-2.081331E-05,15.012,0
1.0017,3.356985E-06,15.0255,0,1.0017,-2.18204E-05,15.0255,0
1.0026,-9.735256E-06,15.039,0,1.0026,-7.721065E-06,15.039,0
1.0035,-5.706874E-06,15.0525,0,1.0035,-3.726253E-05,15.0525,0
1.0044,9.063859E-06,15.066,0,1.0044,-6.042573E-05,15.066,0
1.0053,1.913481E-05,15.0795,0,1.0053,1.208515E-05,15.0795,0
1.0062,-2.047761E-05,15.093,0,1.0062,2.584878E-05,15.093,0
1.0071,-3.390555E-05,15.1065,0,1.0071,-9.063859E-06,15.1065,0
1.008,-1.712062E-05,15.12,0,1.008,2.1149E-05,15.12,0
1.0089,1.007095E-06,15.1335,0,1.0089,-3.356985E-05,15.1335,0
1.0098,-1.174945E-05,15.147,0,1.0098,-0.000102388,15.147,0
1.0107,-1.275654E-05,15.1605,0,1.0107,-7.251087E-05,15.1605,0
1.0116,-3.659113E-05,15.174,0,1.0116,-5.102617E-05,15.174,0
1.0125,-6.009003E-05,15.1875,0,1.0125,-6.478981E-05,15.1875,0
1.0134,2.1149E-05,15.201,0,1.0134,-3.256275E-05,15.201,0
1.0143,1.577783E-05,15.2145,0,1.0143,9.735256E-06,15.2145,0
1.0152,-2.316319E-05,15.228,0,1.0152,7.150377E-05,15.228,0
1.0161,-1.007095E-06,15.2415,0,1.0161,8.560311E-05,15.2415,0
1.017,-1.342794E-05,15.255,0,1.017,1.040665E-05,15.255,0
1.0179,1.846342E-05,15.2685,0,1.0179,-2.349889E-06,15.2685,0
1.0188,-2.18204E-05,15.282,0,1.0188,1.947051E-05,15.282,0
1.0197,-4.867628E-05,15.2955,0,1.0197,-2.24918E-05,15.2955,0
1.0206,-2.014191E-05,15.309,0,1.0206,-4.968337E-05,15.309,0
1.0215,-5.136187E-05,15.3225,0,1.0215,3.726253E-05,15.3225,0
1.0224,-5.471885E-05,15.336,0,1.0224,9.600977E-05,15.336,0
1.0233,-1.712062E-05,15.3495,0,1.0233,1.712062E-05,15.3495,0
1.0242,-3.121996E-05,15.363,0,1.0242,-4.599069E-05,15.363,0
1.0251,-4.263371E-05,15.3765,0,1.0251,-5.404745E-05,15.3765,0
1.026,-1.107805E-05,15.39,0,1.026,-6.109713E-05,15.39,0
1.0269,4.53193E-05,15.4035,0,1.0269,-1.678492E-06,15.4035,0
1.0278,4.666209E-05,15.417,0,1.0278,-4.36408E-06,15.417,0
1.0287,-1.812772E-05,15.4305,0,1.0287,-7.821774E-05,15.4305,0
1.0296,-9.063859E-06,15.444,0,1.0296,-4.162661E-05,15.444,0
1.0305,-2.450599E-05,15.4575,0,1.0305,-3.323415E-05,15.4575,0
1.0314,-2.652018E-05,15.471,0,1.0314,-5.874724E-05,15.471,0
1.0323,-3.390555E-05,15.4845,0,1.0323,-1.846342E-05,15.4845,0
1.0332,-6.948959E-05,15.498,0,1.0332,-2.18204E-05,15.498,0
1.0341,-3.121996E-05,15.5115,0,1.0341,-4.129091E-05,15.5115,0
1.035,7.385367E-06,15.525,0,1.035,2.014191E-05,15.525,0
1.0359,-1.174945E-05,15.5385,0,1.0359,9.063859E-06,15.5385,0
1.0368,-1.309224E-05,15.552,0,1.0368,-5.337606E-05,15.552,0
1.0377,-1.342794E-05,15.5655,0,1.0377,-5.069047E-05,15.5655,0
1.0386,-2.349889E-05,15.579,0,1.0386,-1.678492E-06,15.579,0
1.0395,-3.524834E-05,15.5925,0,1.0395,2.920577E-05,15.5925,0
1.0404,-2.316319E-05,15.606,0,1.0404,2.349889E-06,15.606,0
1.0413,-5.304036E-05,15.6195,0,1.0413,-9.567407E-05,15.6195,0
1.0422,-6.210422E-05,15.633,0,1.0422,-0.0001171588,15.633,0
1.0431,-3.793393E-05,15.6465,0,1.0431,-5.908293E-05,15.6465,0
1.044,-5.706874E-06,15.66,0,1.044,6.54612E-05,15.66,0
1.0449,-2.316319E-05,15.6735,0,1.0449,5.606165E-05,15.6735,0
1.0458,-4.834058E-05,15.687,0,1.0458,-2.349889E-06,15.687,0
1.0467,2.047761E-05,15.7005,0,1.0467,-3.323415E-05,15.7005,0
1.0476,3.524834E-05,15.714,0,1.0476,2.652018E-05,15.714,0
1.0485,3.021286E-05,15.7275,0,1.0485,2.14847E-05,15.7275,0
1.0494,5.001907E-05,15.741,0,1.0494,-4.196231E-05,15.741,0
1.0503,1.242084E-05,15.7545,0,1.0503,-7.049668E-05,15.7545,0
1.0512,2.517739E-05,15.768,0,1.0512,-3.524834E-05,15.768,0
1.0521,5.740444E-05,15.7815,0,1.0521,-4.36408E-06,15.7815,0
1.053,3.894102E-05,15.795,0,1.053,-3.222705E-05,15.795,0
1.0539,2.450599E-05,15.8085,0,1.0539,-5.203327E-05,15.8085,0
1.0548,8.358892E-05,15.822,0,1.0548,-7.553216E-05,15.822,0
1.0557,7.351797E-05,15.8355,0,1.0557,2.014191E-06,15.8355,0
1.0566,2.24918E-05,15.849,0,1.0566,-9.735256E-06,15.849,0
1.0575,1.007095E-06,15.8625,0,1.0575,-3.625543E-05,15.8625,0
1.0584,1.477073E-05,15.876,0,1.0584,-5.841154E-05,15.876,0
1.0593,-1.577783E-05,15.8895,0,1.0593,-2.24918E-05,15.8895,0
1.0602,-3.927672E-05,15.903,0,1.0602,-3.558404E-05,15.903,0
1.0611,-2.24918E-05,15.9165,0,1.0611,-4.666209E-05,15.9165,0
1.062,7.721065E-06,15.93,0,1.062,1.107805E-05,15.93,0
1.0629,5.337606E-05,15.9435,0,1.0629,2.316319E-05,15.9435,0
1.0638,2.417029E-05,15.957,0,1.0638,-9.735256E-06,15.957,0
1.0647,-4.129091E-05,15.9705,0,1.0647,-8.728161E-06,15.9705,0
1.0656,2.685588E-06,15.984,0,1.0656,3.558404E-05,15.984,0
1.0665,1.544213E-05,15.9975,0,1.0665,9.735256E-06,15.9975,0
1.0674,-4.867628E-05,16.011,0,1.0674,-4.028382E-05,16.011,0
1.0683,-6.076142E-05,16.0245,0,1.0683,-5.169757E-05,16.0245,0
1.0692,-7.016098E-05,16.038,0,1.0692,6.378271E-06,16.038,0
1.0701,-7.620356E-05,16.0515,0,1.0701,-1.141375E-05,16.0515,0
1.071,-6.411841E-05,16.065,0,1.071,-4.632639E-05,16.065,0
1.0719,-7.687495E-05,16.0785,0,1.0719,-3.256275E-05,16.0785,0
1.0728,-7.586786E-05,16.092,0,1.0728,1.812772E-05,16.092,0
1.0737,-4.46479E-05,16.1055,0,1.0737,-3.021286E-06,16.1055,0
1.0746,5.673304E-05,16.119,0,1.0746,-2.047761E-05,16.119,0
1.0755,0.0001426719,16.1325,0,1.0755,4.565499E-05,16.1325,0
1.0764,0.0001607996,16.146,0,1.0764,4.49836E-05,16.146,0
1.0773,0.0001339437,16.1595,0,1.0773,2.349889E-06,16.1595,0
1.0782,0.0001265583,16.173,0,1.0782,-2.21561E-05,16.173,0
1.0791,4.263371E-05,16.1865,0,1.0791,4.028382E-06,16.1865,0
1.08,1.309224E-05,16.2,0,1.08,1.846342E-05,16.2,0
1.0809,-6.344701E-05,16.2135,0,1.0809,-1.376364E-05,16.2135,0
1.0818,-9.097429E-05,16.227,0,1.0818,-3.121996E-05,16.227,0
1.0827,-6.478981E-05,16.2405,0,1.0827,-7.049668E-06,16.2405,0
1.0836,-8.795301E-05,16.254,0,1.0836,2.349889E-06,16.254,0
1.0845,-4.028382E-05,16.2675,0,1.0845,-1.913481E-05,16.2675,0
1.0854,-4.33051E-05,16.281,0,1.0854,-4.095522E-05,16.281,0
1.0863,-8.493171E-05,16.2945,0,1.0863,-1.309224E-05,16.2945,0
1.0872,-9.231708E-05,16.308,0,1.0872,-3.994812E-05,16.308,0
1.0881,-5.270466E-05,16.3215,0,1.0881,-6.814679E-05,16.3215,0
1.089,-1.779202E-05,16.335,0,1.089,-1.141375E-05,16.335,0
1.0899,4.129091E-05,16.3485,0,1.0899,3.356985E-07,16.3485,0
1.0908,8.123904E-05,16.362,0,1.0908,-4.867628E-05,16.362,0
1.0917,7.418937E-05,16.3755,0,1.0917,6.713969E-07,16.3755,0
1.0926,2.786297E-05,16.389,0,1.0926,4.867628E-05,16.389,0
1.0935,-1.980621E-05,16.4025,0,1.0935,2.517739E-05,16.4025,0
1.0944,-4.129091E-05,16.416,0,1.0944,-1.409934E-05,16.416,0
1.0953,-5.236896E-05,16.4295,0,1.0953,-3.793393E-05,16.4295,0
1.0962,-5.304036E-05,16.443,0,1.0962,-4.028382E-06,16.443,0
1.0971,-5.404745E-05,16.4565,0,1.0971,8.392462E-06,16.4565,0
1.098,-6.948959E-05,16.47,0,1.098,-3.054856E-05,16.47,0
1.0989,-6.143282E-05,16.4835,0,1.0989,-5.539025E-05,16.4835,0
1.0998,-6.814679E-05,16.497,0,1.0998,-1.040665E-05,16.497,0
1.1007,-1.007095E-06,16.5105,0,1.1007,-4.028382E-06,16.5105,0
1.1016,8.157473E-05,16.524,0,1.1016,-1.174945E-05,16.524,0
1.1025,2.517739E-05,16.5375,0,1.1025,2.819867E-05,16.5375,0
1.1034,-3.692683E-06,16.551,0,1.1034,3.591974E-05,16.551,0
1.1043,-6.713969E-07,16.5645,0,1.1043,-2.584878E-05,16.5645,0
1.1052,1.040665E-05,16.578,0,1.1052,-8.560311E-05,16.578,0
1.1061,-1.678492E-05,16.5915,0,1.1061,-9.097429E-05,16.5915,0
1.107,-7.049668E-06,16.605,0,1.107,-4.49836E-05,16.605,0
1.1079,5.706874E-06,16.6185,0,1.1079,1.174945E-05,16.6185,0
1.1088,-4.934768E-05,16.632,0,1.1088,-2.18204E-05,16.632,0
1.1097,-2.484169E-05,16.6455,0,1.1097,-3.256275E-05,16.6455,0
1.1106,-2.719158E-05,16.659,0,1.1106,-1.712062E-05,16.659,0
1.1115,-7.116808E-05,16.6725,0,1.1115,-3.558404E-05,16.6725,0
1.1124,-3.591974E-05,16.686,0,1.1124,-3.558404E-05,16.686,0
1.1133,-3.826963E-05,16.6995,0,1.1133,6.713969E-07,16.6995,0
1.1142,-1.846342E-05,16.713,0,1.1142,5.337606E-05,16.713,0
1.1151,1.510643E-05,16.7265,0,1.1151,-2.887007E-05,16.7265,0
1.116,9.063859E-06,16.74,0,1.116,-0.0001185016,16.74,0
1.1169,3.659113E-05,16.7535,0,1.1169,-0.0001037308,16.7535,0
1.1178,7.217517E-05,16.767,0,1.1178,-8.224613E-05,16.767,0
1.1187,4.934768E-05,16.7805,0,1.1187,-0.0001084306,16.7805,0
1.1196,4.095522E-05,16.794,0,1.1196,-3.021286E-05,16.794,0
1.1205,8.090334E-05,16.8075,0,1.1205,6.78111E-05,16.8075,0
1.1214,6.814679E-05,16.821,0,1.1214,2.551309E-05,16.821,0
1.1223,4.46479E-05,16.8345,0,1.1223,-0.000112459,16.8345,0
1.1232,7.049668E-06,16.848,0,1.1232,-5.069047E-05,16.848,0
1.1241,-1.712062E-05,16.8615,0,1.1241,-6.378271E-06,16.8615,0
1.125,1.007095E-05,16.875,0,1.125,-5.203327E-05,16.875,0
1.1259,5.035477E-06,16.8885,0,1.1259,-0.0001117876,16.8885,0
1.1268,-5.035477E-06,16.902,0,1.1268,-8.560311E-05,16.902,0
1.1277,5.035477E-06,16.9155,0,1.1277,-3.524834E-05,16.9155,0
1.1286,-2.752728E-05,16.929,0,1.1286,-5.706874E-05,16.929,0
1.1295,-2.316319E-05,16.9425,0,1.1295,-9.399558E-06,16.9425,0
1.1304,-3.692683E-06,16.956,0,1.1304,2.081331E-05,16.956,0
1.1313,-1.040665E-05,16.9695,0,1.1313,-4.229801E-05,16.9695,0
1.1322,-9.164568E-05,16.983,0,1.1322,-4.33051E-05,16.983,0
1.1331,-0.0001064164,16.9965,0,1.1331,-2.584878E-05,16.9965,0
1.134,-9.634547E-05,17.01,0,1.134,-3.289845E-05,17.01,0
1.1349,-0.0001225299,17.0235,0,1.1349,-4.39765E-05,17.0235,0
1.1358,-9.365987E-05,17.037,0,1.1358,-7.217517E-05,17.037,0
1.1367,-5.706874E-05,17.0505,0,1.1367,-4.229801E-05,17.0505,0
1.1376,-6.076142E-05,17.064,0,1.1376,1.577783E-05,17.064,0
1.1385,3.021286E-06,17.0775,0,1.1385,0.0001000381,17.0775,0
1.1394,9.634547E-05,17.091,0,1.1394,0.0001930266,17.091,0
1.1403,9.600977E-05,17.1045,0,1.1403,0.0001292439,17.1045,0
1.1412,0.000112459,17.118,0,1.1412,4.53193E-05,17.118,0
1.1421,0.0001514,17.1315,0,1.1421,2.349889E-06,17.1315,0
1.143,8.560311E-05,17.145,0,1.143,2.047761E-05,17.145,0
1.1439,4.33051E-05,17.1585,0,1.1439,-8.392462E-06,17.1585,0
1.1448,4.39765E-05,17.172,0,1.1448,-5.740444E-05,17.172,0
1.1457,-2.014191E-06,17.1855,0,1.1457,-4.229801E-05,17.1855,0
1.1466,-3.793393E-05,17.199,0,1.1466,-1.980621E-05,17.199,0
1.1475,-1.376364E-05,17.2125,0,1.1475,-1.107805E-05,17.2125,0
1.1484,-1.376364E-05,17.226,0,1.1484,-8.728161E-06,17.226,0
1.1493,-8.392462E-06,17.2395,0,1.1493,-3.927672E-05,17.2395,0
1.1502,-3.356985E-06,17.253,0,1.1502,-7.721065E-06,17.253,0
1.1511,-2.987716E-05,17.2665,0,1.1511,1.544213E-05,17.2665,0
1.152,-3.591974E-05,17.28,0,1.152,-1.107805E-05,17.28,0
1.1529,-3.625543E-05,17.2935,0,1.1529,-3.524834E-05,17.2935,0
1.1538,-7.183947E-05,17.307,0,1.1538,1.376364E-05,17.307,0
1.1547,-4.599069E-05,17.3205,0,1.1547,-5.035477E-06,17.3205,0
1.1556,-3.994812E-05,17.334,0,1.1556,-3.759823E-05,17.334,0
1.1565,-4.39765E-05,17.3475,0,1.1565,-2.517739E-05,17.3475,0
1.1574,1.007095E-06,17.361,0,1.1574,-3.323415E-05,17.361,0
1.1583,-2.484169E-05,17.3745,0,1.1583,-6.814679E-05,17.3745,0
1.1592,8.392462E-06,17.388,0,1.1592,-4.565499E-05,17.388,0
1.1601,3.726253E-05,17.4015,0,1.1601,1.678492E-05,17.4015,0
1.161,7.754635E-05,17.415,0,1.161,1.477073E-05,17.415,0
1.1619,9.164568E-05,17.4285,0,1.1619,4.53193E-05,17.4285,0
1.1628,6.277562E-05,17.442,0,1.1628,-4.36408E-05,17.442,0
1.1637,1.242084E-05,17.4555,0,1.1637,-1.779202E-05,17.4555,0
1.1646,-5.136187E-05,17.469,0,1.1646,3.591974E-05,17.469,0
1.1655,-7.788205E-05,17.4825,0,1.1655,2.853437E-05,17.4825,0
1.1664,-5.169757E-05,17.496,0,1.1664,4.028382E-06,17.496,0
1.1673,-0.0001279011,17.5095,0,1.1673,5.035477E-06,17.5095,0
1.1682,-0.0001104448,17.523,0,1.1682,-1.376364E-05,17.523,0
1.1691,-9.735256E-06,17.5365,0,1.1691,-4.934768E-05,17.5365,0
1.17,-3.256275E-05,17.55,0,1.17,-4.36408E-06,17.55,0
1.1709,1.678492E-06,17.5635,0,1.1709,4.36408E-06,17.5635,0
1.1718,-1.342794E-06,17.577,0,1.1718,-5.438316E-05,17.577,0
1.1727,-3.961242E-05,17.5905,0,1.1727,-6.478981E-05,17.5905,0
1.1736,-2.920577E-05,17.604,0,1.1736,-1.376364E-05,17.604,0
1.1745,-3.659113E-05,17.6175,0,1.1745,-2.719158E-05,17.6175,0
1.1754,-0.0001198444,17.631,0,1.1754,-5.069047E-05,17.631,0
1.1763,-0.0001050736,17.6445,0,1.1763,-6.478981E-05,17.6445,0
1.1772,-5.404745E-05,17.658,0,1.1772,-1.846342E-05,17.658,0
1.1781,-1.242084E-05,17.6715,0,1.1781,5.035477E-06,17.6715,0
1.179,-3.088426E-05,17.685,0,1.179,-1.443504E-05,17.685,0
1.1799,-5.035477E-06,17.6985,0,1.1799,-1.275654E-05,17.6985,0
1.1808,2.517739E-05,17.712,0,1.1808,2.21561E-05,17.712,0
1.1817,7.083238E-05,17.7255,0,1.1817,-1.007095E-05,17.7255,0
1.1826,0.0001044022,17.739,0,1.1826,-5.505455E-05,17.739,0
1.1835,4.666209E-05,17.7525,0,1.1835,-2.652018E-05,17.7525,0
1.1844,1.376364E-05,17.766,0,1.1844,-2.719158E-05,17.766,0
1.1853,5.203327E-05,17.7795,0,1.1853,-8.358892E-05,17.7795,0
1.1862,4.733349E-05,17.793,0,1.1862,-6.78111E-05,17.793,0
1.1871,2.517739E-05,17.8065,0,1.1871,-4.36408E-05,17.8065,0
1.188,1.376364E-05,17.82,0,1.188,-1.879912E-05,17.82,0
1.1889,-3.256275E-05,17.8335,0,1.1889,1.644922E-05,17.8335,0
1.1898,-7.553216E-05,17.847,0,1.1898,-5.102617E-05,17.847,0
1.1907,-5.975433E-05,17.8605,0,1.1907,-3.961242E-05,17.8605,0
1.1916,-3.256275E-05,17.874,0,1.1916,1.242084E-05,17.874,0
1.1925,3.088426E-05,17.8875,0,1.1925,-2.652018E-05,17.8875,0
1.1934,4.061952E-05,17.901,0,1.1934,-9.835965E-05,17.901,0
1.1943,1.342794E-05,17.9145,0,1.1943,-5.807584E-05,17.9145,0
1.1952,-4.36408E-06,17.928,0,1.1952,-3.860533E-05,17.928,0
1.1961,1.846342E-05,17.9415,0,1.1961,-6.042573E-05,17.9415,0
1.197,5.035477E-05,17.955,0,1.197,6.411841E-05,17.955,0
1.1979,-1.208515E-05,17.9685,0,1.1979,7.855344E-05,17.9685,0
1.1988,-5.169757E-05,17.982,0,1.1988,-5.035477E-06,17.982,0
1.1997,-1.644922E-05,17.9955,0,1.1997,2.484169E-05,17.9955,0
1.2006,2.047761E-05,18.009,0,1.2006,5.673304E-05,18.009,0
1.2015,2.786297E-05,18.0225,0,1.2015,5.706874E-05,18.0225,0
1.2024,1.678492E-06,18.036,0,1.2024,-6.042573E-06,18.036,0
1.2033,-3.021286E-06,18.0495,0,1.2033,-6.009003E-05,18.0495,0
1.2042,-2.987716E-05,18.063,0,1.2042,-7.083238E-05,18.063,0
1.2051,-2.047761E-05,18.0765,0,1.2051,-5.606165E-05,18.0765,0
1.206,-7.049668E-06,18.09,0,1.206,-8.493171E-05,18.09,0
1.2069,9.063859E-06,18.1035,0,1.2069,-0.000115816,18.1035,0
1.2078,-3.994812E-05,18.117,0,1.2078,-8.661021E-05,18.117,0
1.2087,-1.510643E-05,18.1305,0,1.2087,-8.224613E-05,18.1305,0
1.2096,2.081331E-05,18.144,0,1.2096,-0.0001037308,18.144,0
1.2105,-1.510643E-05,18.1575,0,1.2105,-4.867628E-05,18.1575,0
1.2114,-1.913481E-05,18.171,0,1.2114,-2.383459E-05,18.171,0
1.2123,-4.162661E-05,18.1845,0,1.2123,-4.49836E-05,18.1845,0
1.2132,-2.987716E-05,18.198,0,1.2132,1.275654E-05,18.198,0
1.2141,-1.745632E-05,18.2115,0,1.2141,5.471885E-05,18.2115,0
1.215,-3.054856E-05,18.225,0,1.215,3.457694E-05,18.225,0
1.2159,-5.438316E-05,18.2385,0,1.2159,2.383459E-05,18.2385,0
1.2168,-4.46479E-05,18.252,0,1.2168,0,18.252,0
1.2177,-2.450599E-05,18.2655,0,1.2177,1.443504E-05,18.2655,0
1.2186,-6.478981E-05,18.279,0,1.2186,1.913481E-05,18.279,0
1.2195,-5.136187E-05,18.2925,0,1.2195,-1.779202E-05,18.2925,0
1.2204,-5.035477E-06,18.306,0,1.2204,-3.961242E-05,18.306,0
1.2213,-2.1149E-05,18.3195,0,1.2213,1.745632E-05,18.3195,0
1.2222,-3.390555E-05,18.333,0,1.2222,-9.399558E-06,18.333,0
1.2231,3.356985E-06,18.3465,0,1.2231,-4.061952E-05,18.3465,0
1.224,3.591974E-05,18.36,0,1.224,2.21561E-05,18.36,0
1.2249,8.392462E-06,18.3735,0,1.2249,1.275654E-05,18.3735,0
1.2258,-3.659113E-05,18.387,0,1.2258,-4.229801E-05,18.387,0
1.2267,-3.054856E-05,18.4005,0,1.2267,-5.639734E-05,18.4005,0
1.2276,-8.392462E-06,18.414,0,1.2276,-5.069047E-05,18.414,0
1.2285,-7.553216E-05,18.4275,0,1.2285,-6.176852E-05,18.4275,0
1.2294,-2.24918E-05,18.441,0,1.2294,-4.162661E-05,18.441,0
1.2303,2.316319E-05,18.4545,0,1.2303,-2.719158E-05,18.4545,0
1.2312,1.846342E-05,18.468,0,1.2312,3.390555E-05,18.468,0
1.2321,5.841154E-05,18.4815,0,1.2321,9.600977E-05,18.4815,0
1.233,8.82887E-05,18.495,0,1.233,7.385367E-05,18.495,0
1.2339,6.411841E-05,18.5085,0,1.2339,-3.726253E-05,18.5085,0
1.2348,6.311131E-05,18.522,0,1.2348,-4.129091E-05,18.522,0
1.2357,9.936675E-05,18.5355,0,1.2357,-4.43122E-05,18.5355,0
1.2366,9.903105E-05,18.549,0,1.2366,-7.016098E-05,18.549,0
1.2375,4.53193E-05,18.5625,0,1.2375,-5.706874E-06,18.5625,0
1.2384,2.584878E-05,18.576,0,1.2384,1.309224E-05,18.576,0
1.2393,1.577783E-05,18.5895,0,1.2393,-2.987716E-05,18.5895,0
1.2402,-6.915389E-05,18.603,0,1.2402,7.049668E-06,18.603,0
1.2411,-0.0001060807,18.6165,0,1.2411,1.510643E-05,18.6165,0
1.242,-4.263371E-05,18.63,0,1.242,-8.392462E-06,18.63,0
1.2429,1.040665E-05,18.6435,0,1.2429,-1.779202E-05,18.6435,0
1.2438,2.1149E-05,18.657,0,1.2438,-2.047761E-05,18.657,0
1.2447,4.263371E-05,18.6705,0,1.2447,-1.007095E-06,18.6705,0
1.2456,-8.392462E-06,18.684,0,1.2456,-6.378271E-06,18.684,0
1.2465,-3.692683E-05,18.6975,0,1.2465,-4.196231E-05,18.6975,0
1.2474,1.342794E-06,18.711,0,1.2474,-4.733349E-05,18.711,0
1.2483,-3.289845E-05,18.7245,0,1.2483,-1.812772E-05,18.7245,0
1.2492,-6.54612E-05,18.738,0,1.2492,-3.054856E-05,18.738,0
1.2501,-5.404745E-05,18.7515,0,1.2501,-7.284657E-05,18.7515,0
1.251,-6.210422E-05,18.765,0,1.251,-2.21561E-05,18.765,0
1.2519,-3.390555E-05,18.7785,0,1.2519,-1.678492E-05,18.7785,0
1.2528,-2.618448E-05,18.792,0,1.2528,-5.606165E-05,18.792,0
1.2537,-3.927672E-05,18.8055,0,1.2537,-3.121996E-05,18.8055,0
1.2546,-7.486076E-05,18.819,0,1.2546,4.699779E-06,18.819,0
1.2555,-6.076142E-05,18.8325,0,1.2555,-1.913481E-05,18.8325,0
1.2564,-1.846342E-05,18.846,0,1.2564,-3.390555E-05,18.846,0
1.2573,-2.752728E-05,18.8595,0,1.2573,-3.692683E-05,18.8595,0
1.2582,1.174945E-05,18.873,0,1.2582,-2.484169E-05,18.873,0
1.2591,0,18.8865,0,1.2591,-2.853437E-05,18.8865,0
1.26,-4.36408E-06,18.9,0,1.26,-3.860533E-05,18.9,0
1.2609,8.157473E-05,18.9135,0,1.2609,-2.652018E-05,18.9135,0
1.2618,7.553216E-05,18.927,0,1.2618,6.042573E-06,18.927,0
1.2627,3.558404E-05,18.9405,0,1.2627,-1.712062E-05,18.9405,0
1.2636,1.846342E-05,18.954,0,1.2636,-5.404745E-05,18.954,0
1.2645,-6.713969E-06,18.9675,0,1.2645,-1.376364E-05,18.9675,0
1.2654,-3.256275E-05,18.981,0,1.2654,-1.678492E-06,18.981,0
1.2663,-5.169757E-05,18.9945,0,1.2663,-3.121996E-05,18.9945,0
1.2672,-2.349889E-05,19.008,0,1.2672,-1.242084E-05,19.008,0
1.2681,-5.673304E-05,19.0215,0,1.2681,3.323415E-05,19.0215,0
1.269,-4.53193E-05,19.035,0,1.269,2.014191E-06,19.035,0
1.2699,2.047761E-05,19.0485,0,1.2699,-1.040665E-05,19.0485,0
1.2708,2.081331E-05,19.062,0,1.2708,-2.618448E-05,19.062,0
1.2717,2.685588E-06,19.0755,0,1.2717,3.021286E-06,19.0755,0
1.2726,1.040665E-05,19.089,0,1.2726,7.049668E-06,19.089,0
1.2735,-1.846342E-05,19.1025,0,1.2735,-1.007095E-06,19.1025,0
1.2744,-8.392462E-06,19.116,0,1.2744,6.378271E-06,19.116,0
1.2753,-1.913481E-05,19.1295,0,1.2753,3.323415E-05,19.1295,0
1.2762,-1.040665E-05,19.143,0,1.2762,1.678492E-06,19.143,0
1.2771,9.735256E-06,19.1565,0,1.2771,-8.224613E-05,19.1565,0
1.278,-6.713969E-07,19.17,0,1.278,-7.586786E-05,19.17,0
1.2789,2.081331E-05,19.1835,0,1.2789,-9.231708E-05,19.1835,0
1.2798,2.517739E-05,19.197,0,1.2798,-9.332418E-05,19.197,0
1.2807,-7.687495E-05,19.2105,0,1.2807,-4.061952E-05,19.2105,0
1.2816,-6.6804E-05,19.224,0,1.2816,3.121996E-05,19.224,0
1.2825,1.510643E-05,19.2375,0,1.2825,2.1149E-05,19.2375,0
1.2834,-7.721065E-06,19.251,0,1.2834,1.409934E-05,19.251,0
1.2843,-3.894102E-05,19.2645,0,1.2843,-2.584878E-05,19.2645,0
1.2852,1.913481E-05,19.278,0,1.2852,1.745632E-05,19.278,0
1.2861,3.961242E-05,19.2915,0,1.2861,2.517739E-05,19.2915,0
1.287,4.968337E-05,19.305,0,1.287,-2.316319E-05,19.305,0
1.2879,5.069047E-05,19.3185,0,1.2879,-2.21561E-05,19.3185,0
1.2888,-3.356985E-07,19.332,0,1.2888,1.980621E-05,19.332,0
1.2897,-2.987716E-05,19.3455,0,1.2897,-1.376364E-05,19.3455,0
1.2906,1.678492E-06,19.359,0,1.2906,-4.901198E-05,19.359,0
1.2915,3.054856E-05,19.3725,0,1.2915,1.544213E-05,19.3725,0
1.2924,-6.042573E-06,19.386,0,1.2924,1.409934E-05,19.386,0
1.2933,1.007095E-06,19.3995,0,1.2933,-6.713969E-06,19.3995,0
1.2942,-3.021286E-06,19.413,0,1.2942,2.584878E-05,19.413,0
1.2951,0,19.4265,0,1.2951,5.102617E-05,19.4265,0
1.296,3.356985E-06,19.44,0,1.296,-2.383459E-05,19.44,0
1.2969,3.356985E-06,19.4535,0,1.2969,-4.39765E-05,19.4535,0
1.2978,1.007095E-06,19.467,0,1.2978,-6.78111E-05,19.467,0
1.2987,-6.042573E-06,19.4805,0,1.2987,-7.351797E-05,19.4805,0
1.2996,9.063859E-06,19.494,0,1.2996,-5.404745E-05,19.494,0
1.3005,3.356985E-06,19.5075,0,1.3005,-3.860533E-05,19.5075,0
1.3014,-2.383459E-05,19.521,0,1.3014,-3.994812E-05,19.521,0
1.3023,-5.404745E-05,19.5345,0,1.3023,3.021286E-06,19.5345,0
1.3032,-6.61326E-05,19.548,0,1.3032,-1.644922E-05,19.548,0
1.3041,-4.095522E-05,19.5615,0,1.3041,-6.57969E-05,19.5615,0
1.305,-1.107805E-05,19.575,0,1.305,-4.36408E-06,19.575,0
1.3059,-2.047761E-05,19.5885,0,1.3059,5.706874E-06,19.5885,0
1.3068,-5.270466E-05,19.602,0,1.3068,-6.411841E-05,19.602,0
1.3077,1.040665E-05,19.6155,0,1.3077,-5.807584E-05,19.6155,0
1.3086,-1.242084E-05,19.629,0,1.3086,-6.713969E-07,19.629,0
1.3095,-8.392462E-06,19.6425,0,1.3095,3.524834E-05,19.6425,0
1.3104,1.242084E-05,19.656,0,1.3104,-2.450599E-05,19.656,0
1.3113,3.826963E-05,19.6695,0,1.3113,-5.740444E-05,19.6695,0
1.3122,4.36408E-06,19.683,0,1.3122,8.392462E-06,19.683,0
1.3131,-9.063859E-06,19.6965,0,1.3131,3.726253E-05,19.6965,0
1.314,6.378271E-06,19.71,0,1.314,-2.047761E-05,19.71,0
1.3149,-1.443504E-05,19.7235,0,1.3149,-9.298848E-05,19.7235,0
1.3158,-6.478981E-05,19.737,0,1.3158,-6.881819E-05,19.737,0
1.3167,2.24918E-05,19.7505,0,1.3167,-2.014191E-05,19.7505,0
1.3176,5.874724E-05,19.764,0,1.3176,-4.934768E-05,19.764,0
1.3185,2.786297E-05,19.7775,0,1.3185,-1.107805E-05,19.7775,0
1.3194,-1.443504E-05,19.791,0,1.3194,4.36408E-06,19.791,0
1.3203,-1.947051E-05,19.8045,0,1.3203,-4.39765E-05,19.8045,0
1.3212,-6.478981E-05,19.818,0,1.3212,-4.46479E-05,19.818,0
1.3221,-8.258183E-05,19.8315,0,1.3221,2.349889E-06,19.8315,0
1.323,-5.001907E-05,19.845,0,1.323,1.678492E-05,19.845,0
1.3239,-3.491264E-05,19.8585,0,1.3239,2.18204E-05,19.8585,0
1.3248,-3.524834E-05,19.872,0,1.3248,-1.644922E-05,19.872,0
1.3257,1.007095E-06,19.8855,0,1.3257,-5.035477E-06,19.8855,0
1.3266,2.853437E-05,19.899,0,1.3266,2.1149E-05,19.899,0
1.3275,-1.644922E-05,19.9125,0,1.3275,-1.779202E-05,19.9125,0
1.3284,-2.316319E-05,19.926,0,1.3284,-5.136187E-05,19.926,0
1.3293,-6.378271E-06,19.9395,0,1.3293,3.021286E-06,19.9395,0
1.3302,1.678492E-06,19.953,0,1.3302,-3.021286E-06,19.953,0
1.3311,-9.399558E-06,19.9665,0,1.3311,-5.035477E-05,19.9665,0
1.332,-6.713969E-06,19.98,0,1.332,-1.074235E-05,19.98,0
1.3329,-5.035477E-05,19.9935,0,1.3329,2.014191E-06,19.9935,0
1.3338,-3.088426E-05,20.007,0,1.3338,-4.800488E-05,20.007,0
1.3347,-2.24918E-05,20.0205,0,1.3347,-6.076142E-05,20.0205,0
1.3356,-4.599069E-05,20.034,0,1.3356,-1.443504E-05,20.034,0
1.3365,-3.793393E-05,20.0475,0,1.3365,-2.987716E-05,20.0475,0
1.3374,-3.021286E-06,20.061,0,1.3374,-3.121996E-05,20.061,0
1.3383,2.584878E-05,20.0745,0,1.3383,-3.289845E-05,20.0745,0
1.3392,4.867628E-05,20.088,0,1.3392,6.378271E-06,20.088,0
1.3401,8.224613E-05,20.1015,0,1.3401,1.510643E-05,20.1015,0
1.341,3.591974E-05,20.115,0,1.341,6.713969E-07,20.115,0
1.3419,7.721065E-06,20.1285,0,1.3419,-3.625543E-05,20.1285,0
1.3428,5.203327E-05,20.142,0,1.3428,1.040665E-05,20.142,0
1.3437,8.157473E-05,20.1555,0,1.3437,5.706874E-06,20.1555,0
1.3446,5.203327E-05,20.169,0,1.3446,-4.129091E-05,20.169,0
1.3455,-1.376364E-05,20.1825,0,1.3455,0,20.1825,0
1.3464,-5.807584E-05,20.196,0,1.3464,-1.577783E-05,20.196,0
1.3473,-3.591974E-05,20.2095,0,1.3473,-3.356985E-05,20.2095,0
1.3482,2.786297E-05,20.223,0,1.3482,-2.484169E-05,20.223,0
1.3491,-1.577783E-05,20.2365,0,1.3491,-1.812772E-05,20.2365,0
1.35,-4.129091E-05,20.25,0,1.35,-2.18204E-05,20.25,0
1.3509,-1.779202E-05,20.2635,0,1.3509,-7.721065E-06,20.2635,0
1.3518,-1.376364E-05,20.277,0,1.3518,-5.807584E-05,20.277,0
1.3527,-3.121996E-05,20.2905,0,1.3527,-7.150377E-05,20.2905,0
1.3536,-3.323415E-05,20.304,0,1.3536,-2.584878E-05,20.304,0
1.3545,3.356985E-06,20.3175,0,1.3545,-2.853437E-05,20.3175,0
1.3554,1.745632E-05,20.331,0,1.3554,-4.33051E-05,20.331,0
1.3563,3.155566E-05,20.3445,0,1.3563,3.994812E-05,20.3445,0
1.3572,1.309224E-05,20.358,0,1.3572,7.016098E-05,20.358,0
1.3581,3.021286E-05,20.3715,0,1.3581,-3.659113E-05,20.3715,0
1.359,9.399558E-06,20.385,0,1.359,2.014191E-05,20.385,0
1.3599,-3.088426E-05,20.3985,0,1.3599,-1.544213E-05,20.3985,0
1.3608,3.659113E-05,20.412,0,1.3608,-7.754635E-05,20.412,0
1.3617,1.544213E-05,20.4255,0,1.3617,-4.766919E-05,20.4255,0
1.3626,-2.584878E-05,20.439,0,1.3626,-1.309224E-05,20.439,0
1.3635,-2.383459E-05,20.4525,0,1.3635,-3.121996E-05,20.4525,0
1.3644,-3.121996E-05,20.466,0,1.3644,-4.263371E-05,20.466,0
1.3653,-2.383459E-05,20.4795,0,1.3653,-1.510643E-05,20.4795,0
1.3662,-9.735256E-06,20.493,0,1.3662,-4.129091E-05,20.493,0
1.3671,-1.174945E-05,20.5065,0,1.3671,-6.277562E-05,20.5065,0
1.368,-1.510643E-05,20.52,0,1.368,-3.726253E-05,20.52,0
1.3689,-4.095522E-05,20.5335,0,1.3689,-4.49836E-05,20.5335,0
1.3698,-2.584878E-05,20.547,0,1.3698,3.894102E-05,20.547,0
1.3707,-5.404745E-05,20.5605,0,1.3707,0.0001406577,20.5605,0
1.3716,-6.009003E-05,20.574,0,1.3716,2.28275E-05,20.574,0
1.3725,-8.392462E-06,20.5875,0,1.3725,-2.786297E-05,20.5875,0
1.3734,9.063859E-06,20.601,0,1.3734,8.728161E-06,20.601,0
1.3743,1.443504E-05,20.6145,0,1.3743,-4.061952E-05,20.6145,0
1.3752,3.021286E-06,20.628,0,1.3752,-2.450599E-05,20.628,0
1.3761,-1.913481E-05,20.6415,0,1.3761,2.517739E-05,20.6415,0
1.377,1.040665E-05,20.655,0,1.377,2.517739E-05,20.655,0
1.3779,2.584878E-05,20.6685,0,1.3779,-4.229801E-05,20.6685,0
1.3788,1.879912E-05,20.682,0,1.3788,-0.0001010452,20.682,0
1.3797,9.399558E-06,20.6955,0,1.3797,-9.567407E-05,20.6955,0
1.3806,-1.846342E-05,20.709,0,1.3806,-2.21561E-05,20.709,0
1.3815,-2.18204E-05,20.7225,0,1.3815,-3.826963E-05,20.7225,0
1.3824,-1.309224E-05,20.736,0,1.3824,-0.0001265583,20.736,0
1.3833,-4.43122E-05,20.7495,0,1.3833,-9.869535E-05,20.7495,0
1.3842,-2.047761E-05,20.763,0,1.3842,-3.692683E-06,20.763,0
1.3851,6.713969E-07,20.7765,0,1.3851,-2.349889E-05,20.7765,0
1.386,7.083238E-05,20.79,0,1.386,7.049668E-06,20.79,0
1.3869,8.493171E-05,20.8035,0,1.3869,1.510643E-05,20.8035,0
1.3878,1.342794E-06,20.817,0,1.3878,-4.901198E-05,20.817,0
1.3887,3.692683E-06,20.8305,0,1.3887,-2.584878E-05,20.8305,0
1.3896,-5.706874E-06,20.844,0,1.3896,6.713969E-07,20.844,0
1.3905,-6.109713E-05,20.8575,0,1.3905,-2.1149E-05,20.8575,0
1.3914,-7.687495E-05,20.871,0,1.3914,-1.879912E-05,20.871,0
1.3923,-0.0001037308,20.8845,0,1.3923,-3.121996E-05,20.8845,0
1.3932,-8.761731E-05,20.898,0,1.3932,9.063859E-06,20.898,0
1.3941,-4.46479E-05,20.9115,0,1.3941,1.510643E-05,20.9115,0
1.395,-1.913481E-05,20.925,0,1.395,-6.713969E-06,20.925,0
1.3959,1.678492E-06,20.9385,0,1.3959,-2.047761E-05,20.9385,0
1.3968,-2.853437E-05,20.952,0,1.3968,1.913481E-05,20.952,0
1.3977,-1.107805E-05,20.9655,0,1.3977,7.721065E-06,20.9655,0
1.3986,2.383459E-05,20.979,0,1.3986,-3.927672E-05,20.979,0
1.3995,1.141375E-05,20.9925,0,1.3995,1.443504E-05,20.9925,0
1.4004,-3.021286E-06,21.006,0,1.4004,2.551309E-05,21.006,0
1.4013,1.007095E-06,21.0195,0,1.4013,-1.980621E-05,21.0195,0
1.4022,-2.047761E-05,21.033,0,1.4022,-2.685588E-05,21.033,0
1.4031,3.356985E-07,21.0465,0,1.4031,1.208515E-05,21.0465,0
1.404,-3.726253E-05,21.06,0,1.404,-3.121996E-05,21.06,0
1.4049,2.316319E-05,21.0735,0,1.4049,-1.107805E-05,21.0735,0
1.4058,3.121996E-05,21.087,0,1.4058,-1.947051E-05,21.087,0
1.4067,2.517739E-05,21.1005,0,1.4067,1.040665E-05,21.1005,0
1.4076,7.049668E-06,21.114,0,1.4076,2.752728E-05,21.114,0
1.4085,8.392462E-06,21.1275,0,1.4085,-1.309224E-05,21.1275,0
1.4094,1.577783E-05,21.141,0,1.4094,-8.090334E-05,21.141,0
1.4103,-2.349889E-06,21.1545,0,1.4103,-2.685588E-05,21.1545,0
1.4112,-2.987716E-05,21.168,0,1.4112,2.584878E-05,21.168,0
1.4121,-1.107805E-05,21.1815,0,1.4121,-3.323415E-05,21.1815,0
1.413,-3.155566E-05,21.195,0,1.413,-1.879912E-05,21.195,0
1.4139,3.021286E-06,21.2085,0,1.4139,-1.007095E-06,21.2085,0
1.4148,2.047761E-05,21.222,0,1.4148,-3.927672E-05,21.222,0
1.4157,2.652018E-05,21.2355,0,1.4157,-5.706874E-06,21.2355,0
1.4166,3.927672E-05,21.249,0,1.4166,2.18204E-05,21.249,0
1.4175,4.229801E-05,21.2625,0,1.4175,1.443504E-05,21.2625,0
1.4184,3.726253E-05,21.276,0,1.4184,-1.577783E-05,21.276,0
1.4193,5.706874E-06,21.2895,0,1.4193,-5.874724E-05,21.2895,0
1.4202,-3.692683E-06,21.303,0,1.4202,-4.46479E-05,21.303,0
1.4211,-1.577783E-05,21.3165,0,1.4211,-2.316319E-05,21.3165,0
1.422,-2.920577E-05,21.33,0,1.422,-3.625543E-05,21.33,0
1.4229,-1.846342E-05,21.3435,0,1.4229,-5.035477E-05,21.3435,0
1.4238,-5.874724E-05,21.357,0,1.4238,-1.040665E-05,21.357,0
1.4247,-1.678492E-05,21.3705,0,1.4247,-1.007095E-05,21.3705,0
1.4256,-1.678492E-06,21.384,0,1.4256,-5.941863E-05,21.384,0
1.4265,-1.577783E-05,21.3975,0,1.4265,-2.987716E-05,21.3975,0
1.4274,1.208515E-05,21.411,0,1.4274,6.042573E-06,21.411,0
1.4283,-1.443504E-05,21.4245,0,1.4283,-5.706874E-06,21.4245,0
1.4292,-5.673304E-05,21.438,0,1.4292,1.309224E-05,21.438,0
1.4301,-4.33051E-05,21.4515,0,1.4301,4.129091E-05,21.4515,0
1.431,-3.021286E-06,21.465,0,1.431,2.047761E-05,21.465,0
1.4319,4.901198E-05,21.4785,0,1.4319,-2.18204E-05,21.4785,0
1.4328,3.961242E-05,21.492,0,1.4328,-0.0001218585,21.492,0
1.4337,-2.1149E-05,21.5055,0,1.4337,-0.0001242084,21.5055,0
1.4346,-6.009003E-05,21.519,0,1.4346,-5.975433E-05,21.519,0
1.4355,-8.090334E-05,21.5325,0,1.4355,-2.618448E-05,21.5325,0
1.4364,-3.793393E-05,21.546,0,1.4364,-4.867628E-05,21.546,0
1.4373,-5.270466E-05,21.5595,0,1.4373,1.007095E-06,21.5595,0
1.4382,-2.21561E-05,21.573,0,1.4382,-1.107805E-05,21.573,0
1.4391,4.061952E-05,21.5865,0,1.4391,-5.740444E-05,21.5865,0
1.44,9.433127E-05,21.6,0,1.44,-4.36408E-06,21.6,0
1.4409,8.157473E-05,21.6135,0,1.4409,3.256275E-05,21.6135,0
1.4418,-1.779202E-05,21.627,0,1.4418,-4.196231E-05,21.627,0
1.4427,-4.36408E-05,21.6405,0,1.4427,-3.054856E-05,21.6405,0
1.4436,-1.242084E-05,21.654,0,1.4436,1.007095E-06,21.654,0
1.4445,1.812772E-05,21.6675,0,1.4445,-1.477073E-05,21.6675,0
1.4454,-6.713969E-06,21.681,0,1.4454,-1.208515E-05,21.681,0
1.4463,-2.047761E-05,21.6945,0,1.4463,-3.189136E-05,21.6945,0
1.4472,3.356985E-07,21.708,0,1.4472,-2.047761E-05,21.708,0
1.4481,-1.174945E-05,21.7215,0,1.4481,-2.652018E-05,21.7215,0
1.449,-4.632639E-05,21.735,0,1.449,-5.874724E-05,21.735,0
1.4499,-2.24918E-05,21.7485,0,1.4499,-8.224613E-05,21.7485,0
1.4508,-1.242084E-05,21.762,0,1.4508,-1.812772E-05,21.762,0
1.4517,3.356985E-07,21.7755,0,1.4517,-2.752728E-05,21.7755,0
1.4526,-1.510643E-05,21.789,0,1.4526,7.721065E-06,21.789,0
1.4535,-6.478981E-05,21.8025,0,1.4535,7.553216E-05,21.8025,0
1.4544,-3.323415E-05,21.816,0,1.4544,7.687495E-05,21.816,0
1.4553,-2.014191E-05,21.8295,0,1.4553,2.18204E-05,21.8295,0
1.4562,-2.450599E-05,21.843,0,1.4562,-2.014191E-06,21.843,0
1.4571,-1.913481E-05,21.8565,0,1.4571,-1.376364E-05,21.8565,0
1.458,-2.383459E-05,21.87,0,1.458,-3.994812E-05,21.87,0
1.4589,-1.477073E-05,21.8835,0,1.4589,-2.853437E-05,21.8835,0
1.4598,3.121996E-05,21.897,0,1.4598,-6.109713E-05,21.897,0
1.4607,4.36408E-05,21.9105,0,1.4607,-3.994812E-05,21.9105,0
1.4616,5.706874E-05,21.924,0,1.4616,-1.980621E-05,21.924,0
1.4625,2.517739E-05,21.9375,0,1.4625,-5.438316E-05,21.9375,0
1.4634,3.189136E-05,21.951,0,1.4634,-2.014191E-05,21.951,0
1.4643,5.606165E-05,21.9645,0,1.4643,4.666209E-05,21.9645,0
1.4652,6.344701E-05,21.978,0,1.4652,6.713969E-07,21.978,0
1.4661,5.706874E-05,21.9915,0,1.4661,-3.927672E-05,21.9915,0
1.467,-2.652018E-05,22.005,0,1.467,2.584878E-05,22.005,0
1.4679,-4.666209E-05,22.0185,0,1.4679,7.754635E-05,22.0185,0
1.4688,-5.236896E-05,22.032,0,1.4688,1.812772E-05,22.032,0
1.4697,-4.565499E-05,22.0455,0,1.4697,-3.692683E-06,22.0455,0
1.4706,-5.539025E-05,22.059,0,1.4706,8.728161E-06,22.059,0
1.4715,-1.611353E-05,22.0725,0,1.4715,-9.399558E-06,22.0725,0
1.4724,7.721065E-06,22.086,0,1.4724,-5.169757E-05,22.086,0
1.4733,-1.040665E-05,22.0995,0,1.4733,-8.023193E-05,22.0995,0
1.4742,-9.735256E-06,22.113,0,1.4742,-6.74754E-05,22.113,0
1.4751,-2.047761E-05,22.1265,0,1.4751,-5.740444E-05,22.1265,0
1.476,-1.577783E-05,22.14,0,1.476,-6.64683E-05,22.14,0
1.4769,-9.735256E-06,22.1535,0,1.4769,-2.24918E-05,22.1535,0
1.4778,-3.860533E-05,22.167,0,1.4778,-4.36408E-06,22.167,0
1.4787,-1.577783E-05,22.1805,0,1.4787,-2.987716E-05,22.1805,0
1.4796,-1.980621E-05,22.194,0,1.4796,-6.411841E-05,22.194,0
1.4805,-6.61326E-05,22.2075,0,1.4805,-1.107805E-05,22.2075,0
1.4814,-7.956054E-05,22.221,0,1.4814,-1.779202E-05,22.221,0
1.4823,-2.887007E-05,22.2345,0,1.4823,-6.61326E-05,22.2345,0
1.4832,5.136187E-05,22.248,0,1.4832,-5.136187E-05,22.248,0
1.4841,1.510643E-05,22.2615,0,1.4841,-1.107805E-05,22.2615,0
1.485,-2.349889E-06,22.275,0,1.485,6.378271E-06,22.275,0
1.4859,3.726253E-05,22.2885,0,1.4859,2.853437E-05,22.2885,0
1.4868,7.217517E-05,22.302,0,1.4868,-4.36408E-06,22.302,0
1.4877,1.040665E-05,22.3155,0,1.4877,1.477073E-05,22.3155,0
1.4886,-4.061952E-05,22.329,0,1.4886,7.183947E-05,22.329,0
1.4895,-1.040665E-05,22.3425,0,1.4895,2.18204E-05,22.3425,0
1.4904,-1.510643E-05,22.356,0,1.4904,-5.807584E-05,22.356,0
1.4913,-1.980621E-05,22.3695,0,1.4913,-3.826963E-05,22.3695,0
1.4922,-1.779202E-05,22.383,0,1.4922,-2.719158E-05,22.383,0
1.4931,-2.28275E-05,22.3965,0,1.4931,-5.539025E-05,22.3965,0
1.494,2.685588E-06,22.41,0,1.494,-6.713969E-07,22.41,0
1.4949,2.450599E-05,22.4235,0,1.4949,3.726253E-05,22.4235,0
1.4958,-4.36408E-06,22.437,0,1.4958,3.524834E-05,22.437,0
1.4967,3.356985E-07,22.4505,0,1.4967,4.061952E-05,22.4505,0
1.4976,-2.349889E-06,22.464,0,1.4976,5.774014E-05,22.464,0
1.4985,-6.378271E-06,22.4775,0,1.4985,1.376364E-05,22.4775,0
1.4994,-1.242084E-05,22.491,0,1.4994,-5.404745E-05,22.491,0
1.5003,-1.644922E-05,22.5045,0,1.5003,-0.0001064164,22.5045,0
1.5012,-1.980621E-05,22.518,0,1.5012,-5.102617E-05,22.518,0
1.5021,2.21561E-05,22.5315,0,1.5021,-5.203327E-05,22.5315,0
1.503,-6.378271E-06,22.545,0,1.503,-0.000197055,22.545,0
1.5039,4.699779E-06,22.5585,0,1.5039,-0.0001483787,22.5585,0
1.5048,-7.049668E-06,22.572,0,1.5048,-3.390555E-05,22.572,0
1.5057,5.337606E-05,22.5855,0,1.5057,-1.577783E-05,22.5855,0
1.5066,6.311131E-05,22.599,0,1.5066,-4.263371E-05,22.599,0
1.5075,-1.947051E-05,22.6125,0,1.5075,-4.800488E-05,22.6125,0
1.5084,-2.18204E-05,22.626,0,1.5084,-3.961242E-05,22.626,0
1.5093,-9.735256E-06,22.6395,0,1.5093,-6.176852E-05,22.6395,0
1.5102,-2.584878E-05,22.653,0,1.5102,-8.023193E-05,22.653,0
1.5111,-2.450599E-05,22.6665,0,1.5111,2.047761E-05,22.6665,0
1.512,-3.524834E-05,22.68,0,1.512,0.0001554284,22.68,0
1.5129,-4.49836E-05,22.6935,0,1.5129,6.61326E-05,22.6935,0
1.5138,-2.652018E-05,22.707,0,1.5138,-2.719158E-05,22.707,0
1.5147,-3.692683E-06,22.7205,0,1.5147,5.035477E-06,22.7205,0
1.5156,-7.553216E-05,22.734,0,1.5156,3.692683E-06,22.734,0
1.5165,-6.478981E-05,22.7475,0,1.5165,-2.719158E-05,22.7475,0
1.5174,-5.035477E-06,22.761,0,1.5174,-2.819867E-05,22.761,0
1.5183,-2.484169E-05,22.7745,0,1.5183,1.107805E-05,22.7745,0
1.5192,-9.063859E-06,22.788,0,1.5192,1.174945E-05,22.788,0
1.5201,-9.735256E-06,22.8015,0,1.5201,-2.819867E-05,22.8015,0
1.521,-3.659113E-05,22.815,0,1.521,3.356985E-07,22.815,0
1.5219,-3.021286E-06,22.8285,0,1.5219,-3.692683E-06,22.8285,0
1.5228,3.860533E-05,22.842,0,1.5228,-3.524834E-05,22.842,0
1.5237,3.860533E-05,22.8555,0,1.5237,-1.141375E-05,22.8555,0
1.5246,-6.713969E-07,22.869,0,1.5246,1.208515E-05,22.869,0
1.5255,-4.36408E-06,22.8825,0,1.5255,2.349889E-06,22.8825,0
1.5264,1.712062E-05,22.896,0,1.5264,5.136187E-05,22.896,0
1.5273,1.242084E-05,22.9095,0,1.5273,-2.047761E-05,22.9095,0
1.5282,-3.961242E-05,22.923,0,1.5282,-3.793393E-05,22.923,0
1.5291,-5.941863E-05,22.9365,0,1.5291,-1.342794E-06,22.9365,0
1.53,-3.994812E-05,22.95,0,1.53,-1.779202E-05,22.95,0
1.5309,-5.203327E-05,22.9635,0,1.5309,-4.43122E-05,22.9635,0
1.5318,-3.659113E-05,22.977,0,1.5318,-8.728161E-06,22.977,0
1.5327,1.309224E-05,22.9905,0,1.5327,-1.174945E-05,22.9905,0
1.5336,-9.063859E-06,23.004,0,1.5336,-6.78111E-05,23.004,0
1.5345,-1.174945E-05,23.0175,0,1.5345,-1.208515E-05,23.0175,0
1.5354,6.411841E-05,23.031,0,1.5354,-5.035477E-06,23.031,0
1.5363,5.270466E-05,23.0445,0,1.5363,-4.263371E-05,23.0445,0
1.5372,2.21561E-05,23.058,0,1.5372,-6.109713E-05,23.058,0
1.5381,4.36408E-06,23.0715,0,1.5381,-6.881819E-05,23.0715,0
1.539,-3.491264E-05,23.085,0,1.539,-6.881819E-05,23.085,0
1.5399,-6.143282E-05,23.0985,0,1.5399,-4.53193E-05,23.0985,0
1.5408,-7.351797E-05,23.112,0,1.5408,-6.948959E-05,23.112,0
1.5417,-7.687495E-05,23.1255,0,1.5417,1.174945E-05,23.1255,0
1.5426,-1.678492E-06,23.139,0,1.5426,8.92958E-05,23.139,0
1.5435,4.263371E-05,23.1525,0,1.5435,2.18204E-05,23.1525,0
1.5444,4.901198E-05,23.166,0,1.5444,-1.644922E-05,23.166,0
1.5453,7.016098E-05,23.1795,0,1.5453,1.510643E-05,23.1795,0
1.5462,0.0001044022,23.193,0,1.5462,5.035477E-06,23.193,0
1.5471,5.673304E-05,23.2065,0,1.5471,-4.666209E-05,23.2065,0
1.548,2.014191E-05,23.22,0,1.548,2.517739E-05,23.22,0
1.5489,-2.18204E-05,23.2335,0,1.5489,3.726253E-05,23.2335,0
1.5498,-2.081331E-05,23.247,0,1.5498,-3.961242E-05,23.247,0
1.5507,-1.980621E-05,23.2605,0,1.5507,-3.994812E-05,23.2605,0
1.5516,-3.961242E-05,23.274,0,1.5516,-1.477073E-05,23.274,0
1.5525,-4.028382E-06,23.2875,0,1.5525,-7.821774E-05,23.2875,0
1.5534,-3.356985E-07,23.301,0,1.5534,-0.0001077592,23.301,0
1.5543,1.309224E-05,23.3145,0,1.5543,-6.51255E-05,23.3145,0
1.5552,0.0001010452,23.328,0,1.5552,2.24918E-05,23.328,0
1.5561,6.478981E-05,23.3415,0,1.5561,1.947051E-05,23.3415,0
1.557,4.36408E-06,23.355,0,1.557,-3.692683E-05,23.355,0
1.5579,-1.879912E-05,23.3685,0,1.5579,-8.023193E-05,23.3685,0
1.5588,-3.088426E-05,23.382,0,1.5588,-3.356985E-06,23.382,0
1.5597,-7.049668E-05,23.3955,0,1.5597,-5.706874E-06,23.3955,0
1.5606,-5.941863E-05,23.409,0,1.5606,-3.793393E-05,23.409,0
1.5615,-2.24918E-05,23.4225,0,1.5615,-2.349889E-06,23.4225,0
1.5624,-4.800488E-05,23.436,0,1.5624,1.040665E-05,23.436,0
1.5633,-3.659113E-05,23.4495,0,1.5633,-1.107805E-05,23.4495,0
1.5642,-3.860533E-05,23.463,0,1.5642,-2.652018E-05,23.463,0
1.5651,-4.196231E-05,23.4765,0,1.5651,4.36408E-06,23.4765,0
1.566,-2.047761E-05,23.49,0,1.566,7.049668E-06,23.49,0
1.5669,2.349889E-06,23.5035,0,1.5669,1.309224E-05,23.5035,0
1.5678,-2.316319E-05,23.517,0,1.5678,-3.491264E-05,23.517,0
1.5687,-8.090334E-05,23.5305,0,1.5687,-7.855344E-05,23.5305,0
1.5696,-0.0001171588,23.544,0,1.5696,-8.358892E-05,23.544,0
1.5705,-3.726253E-05,23.5575,0,1.5705,-4.028382E-05,23.5575,0
1.5714,-9.063859E-06,23.571,0,1.5714,4.699779E-06,23.571,0
1.5723,6.713969E-07,23.5845,0,1.5723,3.356985E-07,23.5845,0
1.5732,1.712062E-05,23.598,0,1.5732,-4.867628E-05,23.598,0
1.5741,3.625543E-05,23.6115,0,1.5741,-9.231708E-05,23.6115,0
1.575,-3.021286E-06,23.625,0,1.575,-2.652018E-05,23.625,0
1.5759,2.24918E-05,23.6385,0,1.5759,3.994812E-05,23.6385,0
1.5768,2.349889E-06,23.652,0,1.5768,1.007095E-05,23.652,0
1.5777,-8.392462E-06,23.6655,0,1.5777,-1.174945E-05,23.6655,0
1.5786,2.887007E-05,23.679,0,1.5786,6.076142E-05,23.679,0
1.5795,2.786297E-05,23.6925,0,1.5795,6.210422E-05,23.6925,0
1.5804,1.846342E-05,23.706,0,1.5804,4.800488E-05,23.706,0
1.5813,-2.014191E-06,23.7195,0,1.5813,-2.450599E-05,23.7195,0
1.5822,1.577783E-05,23.733,0,1.5822,-2.719158E-05,23.733,0
1.5831,2.786297E-05,23.7465,0,1.5831,-5.706874E-06,23.7465,0
1.584,-3.356985E-06,23.76,0,1.584,-2.349889E-06,23.76,0
1.5849,2.584878E-05,23.7735,0,1.5849,-5.572595E-05,23.7735,0
1.5858,-1.275654E-05,23.787,0,1.5858,-4.49836E-05,23.787,0
1.5867,-1.443504E-05,23.8005,0,1.5867,-3.121996E-05,23.8005,0
1.5876,2.920577E-05,23.814,0,1.5876,-6.243992E-05,23.814,0
1.5885,-1.913481E-05,23.8275,0,1.5885,-2.28275E-05,23.8275,0
1.5894,-3.524834E-05,23.841,0,1.5894,-1.846342E-05,23.841,0
1.5903,-1.678492E-06,23.8545,0,1.5903,-9.030289E-05,23.8545,0
1.5912,-1.275654E-05,23.868,0,1.5912,-0.0001044022,23.868,0
1.5921,-3.860533E-05,23.8815,0,1.5921,-4.867628E-05,23.8815,0
1.593,1.208515E-05,23.895,0,1.593,2.450599E-05,23.895,0
1.5939,5.572595E-05,23.9085,0,1.5939,-2.484169E-05,23.9085,0
1.5948,2.618448E-05,23.922,0,1.5948,-8.89601E-05,23.922,0
1.5957,-6.713969E-07,23.9355,0,1.5957,3.994812E-05,23.9355,0
1.5966,-2.484169E-05,23.949,0,1.5966,7.083238E-05,23.949,0
1.5975,-1.846342E-05,23.9625,0,1.5975,1.174945E-05,23.9625,0
1.5984,-7.721065E-06,23.976,0,1.5984,-3.021286E-06,23.976,0
1.5993,2.014191E-06,23.9895,0,1.5993,3.994812E-05,23.9895,0
1.6002,-9.735256E-06,24.003,0,1.6002,-1.913481E-05,24.003,0
1.6011,-1.510643E-05,24.0165,0,1.6011,-8.627451E-05,24.0165,0
1.602,-3.457694E-05,24.03,0,1.602,-1.107805E-05,24.03,0
1.6029,-2.517739E-05,24.0435,0,1.6029,-7.385367E-06,24.0435,0
1.6038,-3.356985E-06,24.057,0,1.6038,-4.733349E-05,24.057,0
1.6047,-2.719158E-05,24.0705,0,1.6047,-3.591974E-05,24.0705,0
1.6056,-1.644922E-05,24.084,0,1.6056,2.349889E-06,24.084,0
1.6065,-2.618448E-05,24.0975,0,1.6065,-2.349889E-06,24.0975,0
1.6074,-2.584878E-05,24.111,0,1.6074,0,24.111,0
1.6083,-1.678492E-05,24.1245,0,1.6083,-2.047761E-05,24.1245,0
1.6092,-2.786297E-05,24.138,0,1.6092,-2.316319E-05,24.138,0
1.6101,-3.121996E-05,24.1515,0,1.6101,-6.042573E-06,24.1515,0
1.611,-2.383459E-05,24.165,0,1.611,-4.46479E-05,24.165,0
1.6119,-2.652018E-05,24.1785,0,1.6119,-5.404745E-05,24.1785,0
1.6128,-2.987716E-05,24.192,0,1.6128,-3.659113E-05,24.192,0
1.6137,-8.728161E-06,24.2055,0,1.6137,-3.659113E-05,24.2055,0
1.6146,-1.376364E-05,24.219,0,1.6146,-7.150377E-05,24.219,0
1.6155,-4.028382E-06,24.2325,0,1.6155,-6.51255E-05,24.2325,0
1.6164,2.1149E-05,24.246,0,1.6164,-8.358892E-05,24.246,0
1.6173,2.484169E-05,24.2595,0,1.6173,-0.0001148089,24.2595,0
1.6182,1.846342E-05,24.273,0,1.6182,4.129091E-05,24.273,0
1.6191,3.793393E-05,24.2865,0,1.6191,6.74754E-05,24.2865,0
1.62,2.517739E-05,24.3,0,1.62,1.544213E-05,24.3,0
1.6209,-2.349889E-06,24.3135,0,1.6209,0.0001064164,24.3135,0
1.6218,-3.356985E-07,24.327,0,1.6218,4.39765E-05,24.327,0
1.6227,-1.309224E-05,24.3405,0,1.6227,9.063859E-06,24.3405,0
1.6236,-5.001907E-05,24.354,0,1.6236,-1.577783E-05,24.354,0
1.6245,1.510643E-05,24.3675,0,1.6245,-6.74754E-05,24.3675,0
1.6254,4.766919E-05,24.381,0,1.6254,-3.927672E-05,24.381,0
1.6263,-4.39765E-05,24.3945,0,1.6263,-8.291753E-05,24.3945,0
1.6272,-2.18204E-05,24.408,0,1.6272,-8.82887E-05,24.408,0
1.6281,1.913481E-05,24.4215,0,1.6281,-7.721065E-05,24.4215,0
1.629,1.174945E-05,24.435,0,1.629,8.392462E-06,24.435,0
1.6299,-1.107805E-05,24.4485,0,1.6299,7.217517E-05,24.4485,0
1.6308,3.121996E-05,24.462,0,1.6308,4.129091E-05,24.462,0
1.6317,3.692683E-06,24.4755,0,1.6317,5.706874E-06,24.4755,0
1.6326,-9.399558E-06,24.489,0,1.6326,9.399558E-06,24.489,0
1.6335,1.007095E-05,24.5025,0,1.6335,-4.36408E-06,24.5025,0
1.6344,1.107805E-05,24.516,0,1.6344,-1.174945E-05,24.516,0
1.6353,-2.18204E-05,24.5295,0,1.6353,-2.584878E-05,24.5295,0
1.6362,-2.685588E-05,24.543,0,1.6362,-1.510643E-05,24.543,0
1.6371,-7.721065E-06,24.5565,0,1.6371,-3.692683E-06,24.5565,0
1.638,6.042573E-06,24.57,0,1.638,-1.107805E-05,24.57,0
1.6389,-2.450599E-05,24.5835,0,1.6389,-4.800488E-05,24.5835,0
1.6398,-1.712062E-05,24.597,0,1.6398,1.309224E-05,24.597,0
1.6407,-3.659113E-05,24.6105,0,1.6407,-1.107805E-05,24.6105,0
1.6416,-4.129091E-05,24.624,0,1.6416,-7.318227E-05,24.624,0
1.6425,5.035477E-06,24.6375,0,1.6425,-7.385367E-06,24.6375,0
1.6434,3.088426E-05,24.651,0,1.6434,2.18204E-05,24.651,0
1.6443,-2.618448E-05,24.6645,0,1.6443,-5.706874E-06,24.6645,0
1.6452,-1.409934E-05,24.678,0,1.6452,-1.644922E-05,24.678,0
1.6461,-3.625543E-05,24.6915,0,1.6461,3.021286E-06,24.6915,0
1.647,-6.076142E-05,24.705,0,1.647,-1.779202E-05,24.705,0
1.6479,-4.733349E-05,24.7185,0,1.6479,-3.826963E-05,24.7185,0
1.6488,-3.356985E-05,24.732,0,1.6488,-7.150377E-05,24.732,0
1.6497,-6.478981E-05,24.7455,0,1.6497,-2.853437E-05,24.7455,0
1.6506,-7.351797E-05,24.759,0,1.6506,-5.706874E-06,24.759,0
1.6515,1.107805E-05,24.7725,0,1.6515,-3.927672E-05,24.7725,0
1.6524,2.853437E-05,24.786,0,1.6524,-5.035477E-05,24.786,0
1.6533,2.316319E-05,24.7995,0,1.6533,-1.242084E-05,24.7995,0
1.6542,2.014191E-05,24.813,0,1.6542,-2.18204E-05,24.813,0
1.6551,2.1149E-05,24.8265,0,1.6551,-5.539025E-05,24.8265,0
1.656,-1.174945E-05,24.84,0,1.656,-1.812772E-05,24.84,0
1.6569,2.517739E-05,24.8535,0,1.6569,2.047761E-05,24.8535,0
1.6578,4.129091E-05,24.867,0,1.6578,-7.385367E-06,24.867,0
1.6587,-1.812772E-05,24.8805,0,1.6587,-1.107805E-05,24.8805,0
1.6596,-2.417029E-05,24.894,0,1.6596,2.047761E-05,24.894,0
1.6605,-2.349889E-06,24.9075,0,1.6605,-3.524834E-05,24.9075,0
1.6614,-2.18204E-05,24.921,0,1.6614,-6.009003E-05,24.921,0
1.6623,-6.713969E-07,24.9345,0,1.6623,-6.009003E-05,24.9345,0
1.6632,1.846342E-05,24.948,0,1.6632,-1.309224E-05,24.948,0
1.6641,-7.049668E-06,24.9615,0,1.6641,6.378271E-06,24.9615,0
1.665,-3.826963E-05,24.975,0,1.665,-2.24918E-05,24.975,0
1.6659,7.721065E-06,24.9885,0,1.6659,-4.33051E-05,24.9885,0
1.6668,1.309224E-05,25.002,0,1.6668,-1.007095E-05,25.002,0
1.6677,-1.947051E-05,25.0155,0,1.6677,-1.544213E-05,25.0155,0
1.6686,7.721065E-06,25.029,0,1.6686,-2.551309E-05,25.029,0
1.6695,7.049668E-06,25.0425,0,1.6695,-7.721065E-06,25.0425,0
1.6704,-9.063859E-06,25.056,0,1.6704,-1.745632E-05,25.056,0
1.6713,-5.035477E-06,25.0695,0,1.6713,-5.035477E-05,25.0695,0
1.6722,2.28275E-05,25.083,0,1.6722,-1.544213E-05,25.083,0
1.6731,1.007095E-06,25.0965,0,1.6731,-9.063859E-06,25.0965,0
1.674,-1.141375E-05,25.11,0,1.674,-3.121996E-05,25.11,0
1.6749,-7.049668E-06,25.1235,0,1.6749,-1.980621E-05,25.1235,0
1.6758,1.040665E-05,25.137,0,1.6758,-3.491264E-05,25.137,0
1.6767,-4.263371E-05,25.1505,0,1.6767,2.014191E-06,25.1505,0
1.6776,-5.069047E-05,25.164,0,1.6776,4.46479E-05,25.164,0
1.6785,5.337606E-05,25.1775,0,1.6785,1.477073E-05,25.1775,0
1.6794,6.411841E-05,25.191,0,1.6794,-8.392462E-06,25.191,0
1.6803,2.18204E-05,25.2045,0,1.6803,3.054856E-05,25.2045,0
1.6812,1.745632E-05,25.218,0,1.6812,-1.040665E-05,25.218,0
1.6821,9.063859E-06,25.2315,0,1.6821,-7.956054E-05,25.2315,0
1.683,-1.141375E-05,25.245,0,1.683,-4.39765E-05,25.245,0
1.6839,-2.987716E-05,25.2585,0,1.6839,-1.107805E-05,25.2585,0
1.6848,-2.28275E-05,25.272,0,1.6848,-5.673304E-05,25.272,0
1.6857,-1.376364E-05,25.2855,0,1.6857,-3.323415E-05,25.2855,0
1.6866,-4.733349E-05,25.299,0,1.6866,1.443504E-05,25.299,0
1.6875,-4.095522E-05,25.3125,0,1.6875,-3.692683E-06,25.3125,0
1.6884,-4.33051E-05,25.326,0,1.6884,8.392462E-06,25.326,0
1.6893,-6.848249E-05,25.3395,0,1.6893,-3.054856E-05,25.3395,0
1.6902,-3.256275E-05,25.353,0,1.6902,-3.424125E-05,25.353,0
1.6911,-3.289845E-05,25.3665,0,1.6911,-2.081331E-05,25.3665,0
1.692,-1.544213E-05,25.38,0,1.692,-3.424125E-05,25.38,0
1.6929,1.980621E-05,25.3935,0,1.6929,-5.673304E-05,25.3935,0
1.6938,1.141375E-05,25.407,0,1.6938,-8.493171E-05,25.407,0
1.6947,3.927672E-05,25.4205,0,1.6947,-3.021286E-06,25.4205,0
1.6956,8.72816E-05,25.434,0,1.6956,1.309224E-05,25.434,0
1.6965,3.021286E-05,25.4475,0,1.6965,-1.577783E-05,25.4475,0
1.6974,6.378271E-06,25.461,0,1.6974,-1.242084E-05,25.461,0
1.6983,2.584878E-05,25.4745,0,1.6983,-1.208515E-05,25.4745,0
1.6992,-3.793393E-05,25.488,0,1.6992,-7.049668E-06,25.488,0
1.7001,-5.673304E-05,25.5015,0,1.7001,2.685588E-06,25.5015,0
1.701,-3.121996E-05,25.515,0,1.701,-3.424125E-05,25.515,0
1.7019,-1.947051E-05,25.5285,0,1.7019,-0.0001138018,25.5285,0
1.7028,-2.752728E-05,25.542,0,1.7028,-0.000140322,25.542,0
1.7037,-5.706874E-06,25.5555,0,1.7037,-0.0001037308,25.5555,0
1.7046,7.385367E-06,25.569,0,1.7046,-1.779202E-05,25.569,0
1.7055,-1.074235E-05,25.5825,0,1.7055,9.634547E-05,25.5825,0
1.7064,1.107805E-05,25.596,0,1.7064,8.392462E-05,25.596,0
1.7073,-3.121996E-05,25.6095,0,1.7073,5.001907E-05,25.6095,0
1.7082,-1.779202E-05,25.623,0,1.7082,8.392462E-06,25.623,0
1.7091,-3.356985E-07,25.6365,0,1.7091,-5.606165E-05,25.6365,0
1.71,-3.457694E-05,25.65,0,1.71,-4.39765E-05,25.65,0
1.7109,1.342794E-06,25.6635,0,1.7109,-1.007095E-06,25.6635,0
1.7118,-1.275654E-05,25.677,0,1.7118,-2.786297E-05,25.677,0
1.7127,-3.289845E-05,25.6905,0,1.7127,-1.007095E-05,25.6905,0
1.7136,-2.618448E-05,25.704,0,1.7136,2.383459E-05,25.704,0
1.7145,-2.517739E-05,25.7175,0,1.7145,1.947051E-05,25.7175,0
1.7154,-1.913481E-05,25.731,0,1.7154,5.035477E-06,25.731,0
1.7163,-8.392462E-06,25.7445,0,1.7163,-2.786297E-05,25.7445,0
1.7172,-3.356985E-07,25.758,0,1.7172,-3.021286E-06,25.758,0
1.7181,1.544213E-05,25.7715,0,1.7181,2.1149E-05,25.7715,0
1.719,-3.054856E-05,25.785,0,1.719,3.692683E-06,25.785,0
1.7199,3.692683E-06,25.7985,0,1.7199,-4.699779E-06,25.7985,0
1.7208,2.349889E-05,25.812,0,1.7208,-1.678492E-05,25.812,0
1.7217,3.424125E-05,25.8255,0,1.7217,-3.021286E-06,25.8255,0
1.7226,9.735256E-05,25.839,0,1.7226,-2.752728E-05,25.839,0
1.7235,2.081331E-05,25.8525,0,1.7235,-6.210422E-05,25.8525,0
1.7244,-3.424125E-05,25.866,0,1.7244,-6.478981E-05,25.866,0
1.7253,-1.678492E-05,25.8795,0,1.7253,-7.016098E-05,25.8795,0
1.7262,1.275654E-05,25.893,0,1.7262,-0.0001050736,25.893,0
1.7271,5.706874E-06,25.9065,0,1.7271,-7.318227E-05,25.9065,0
1.728,4.36408E-06,25.92,0,1.728,-6.210422E-05,25.92,0
1.7289,6.713969E-07,25.9335,0,1.7289,1.879912E-05,25.9335,0
1.7298,-2.18204E-05,25.947,0,1.7298,9.365987E-05,25.947,0
1.7307,-5.001907E-05,25.9605,0,1.7307,1.409934E-05,25.9605,0
1.7316,-7.284657E-05,25.974,0,1.7316,-3.826963E-05,25.974,0
1.7325,-3.457694E-05,25.9875,0,1.7325,-2.18204E-05,25.9875,0
1.7334,-5.706874E-06,26.001,0,1.7334,-2.618448E-05,26.001,0
1.7343,-5.606165E-05,26.0145,0,1.7343,-3.692683E-06,26.0145,0
1.7352,-4.33051E-05,26.028,0,1.7352,-1.779202E-05,26.028,0
1.7361,1.980621E-05,26.0415,0,1.7361,-4.33051E-05,26.0415,0
1.737,6.713969E-07,26.055,0,1.737,6.378271E-06,26.055,0
1.7379,-2.786297E-05,26.0685,0,1.7379,-6.713969E-06,26.0685,0
1.7388,-1.913481E-05,26.082,0,1.7388,-4.901198E-05,26.082,0
1.7397,-1.544213E-05,26.0955,0,1.7397,-3.726253E-05,26.0955,0
1.7406,-1.913481E-05,26.109,0,1.7406,1.477073E-05,26.109,0
1.7415,-3.457694E-05,26.1225,0,1.7415,-7.721065E-06,26.1225,0
1.7424,-1.745632E-05,26.136,0,1.7424,-2.584878E-05,26.136,0
1.7433,-2.819867E-05,26.1495,0,1.7433,-1.980621E-05,26.1495,0
1.7442,-3.054856E-05,26.163,0,1.7442,9.063859E-06,26.163,0
1.7451,-5.740444E-05,26.1765,0,1.7451,-8.392462E-06,26.1765,0
1.746,-5.001907E-05,26.19,0,1.746,-7.049668E-05,26.19,0
1.7469,-1.510643E-05,26.2035,0,1.7469,-8.493171E-05,26.2035,0
1.7478,1.040665E-05,26.217,0,1.7478,-7.385367E-06,26.217,0
1.7487,2.987716E-05,26.2305,0,1.7487,1.544213E-05,26.2305,0
1.7496,2.551309E-05,26.244,0,1.7496,-3.726253E-05,26.244,0
1.7505,3.558404E-05,26.2575,0,1.7505,1.879912E-05,26.2575,0
1.7514,2.517739E-05,26.271,0,1.7514,2.24918E-05,26.271,0
1.7523,8.728161E-06,26.2845,0,1.7523,-1.980621E-05,26.2845,0
1.7532,5.606165E-05,26.298,0,1.7532,-2.853437E-05,26.298,0
1.7541,7.385367E-06,26.3115,0,1.7541,-3.356985E-06,26.3115,0
1.755,-2.349889E-06,26.325,0,1.755,-2.24918E-05,26.325,0
1.7559,4.162661E-05,26.3385,0,1.7559,-2.081331E-05,26.3385,0
1.7568,2.920577E-05,26.352,0,1.7568,-5.136187E-05,26.352,0
1.7577,1.510643E-05,26.3655,0,1.7577,-1.913481E-05,26.3655,0
1.7586,6.378271E-05,26.379,0,1.7586,-3.692683E-06,26.379,0
1.7595,1.947051E-05,26.3925,0,1.7595,-5.001907E-05,26.3925,0
1.7604,8.728161E-06,26.406,0,1.7604,-4.129091E-05,26.406,0
1.7613,1.644922E-05,26.4195,0,1.7613,3.390555E-05,26.4195,0
1.7622,-1.309224E-05,26.433,0,1.7622,5.740444E-05,26.433,0
1.7631,-2.014191E-05,26.4465,0,1.7631,-1.980621E-05,26.4465,0
1.764,-3.726253E-05,26.46,0,1.764,-1.376364E-05,26.46,0
1.7649,-2.24918E-05,26.4735,0,1.7649,1.007095E-05,26.4735,0
1.7658,-2.383459E-05,26.487,0,1.7658,-6.411841E-05,26.487,0
1.7667,-3.793393E-05,26.5005,0,1.7667,-7.586786E-05,26.5005,0
1.7676,-3.692683E-05,26.514,0,1.7676,-3.390555E-05,26.514,0
1.7685,-9.835965E-05,26.5275,0,1.7685,-5.337606E-05,26.5275,0
1.7694,-0.0001111162,26.541,0,1.7694,-1.947051E-05,26.541,0
1.7703,-5.841154E-05,26.5545,0,1.7703,5.740444E-05,26.5545,0
1.7712,-4.33051E-05,26.568,0,1.7712,7.620356E-05,26.568,0
1.7721,-3.323415E-05,26.5815,0,1.7721,7.620356E-05,26.5815,0
1.773,-3.323415E-05,26.595,0,1.773,-4.867628E-05,26.595,0
1.7739,8.96315E-05,26.6085,0,1.7739,-8.493171E-05,26.6085,0
1.7748,8.560311E-05,26.622,0,1.7748,-2.316319E-05,26.622,0
1.7757,3.659113E-05,26.6355,0,1.7757,-3.491264E-05,26.6355,0
1.7766,5.740444E-05,26.649,0,1.7766,-5.169757E-05,26.649,0
1.7775,1.812772E-05,26.6625,0,1.7775,-4.934768E-05,26.6625,0
1.7784,-2.719158E-05,26.676,0,1.7784,-5.438316E-05,26.676,0
1.7793,-9.735256E-06,26.6895,0,1.7793,-0.0001027237,26.6895,0
1.7802,3.054856E-05,26.703,0,1.7802,-0.0001070878,26.703,0
1.7811,-1.007095E-06,26.7165,0,1.7811,-3.927672E-05,26.7165,0
1.782,1.342794E-06,26.73,0,1.782,-1.376364E-05,26.73,0
1.7829,1.678492E-06,26.7435,0,1.7829,1.040665E-05,26.7435,0
1.7838,1.712062E-05,26.757,0,1.7838,0,26.757,0
1.7847,1.510643E-05,26.7705,0,1.7847,-1.309224E-05,26.7705,0
1.7856,-1.678492E-05,26.784,0,1.7856,-2.24918E-05,26.784,0
1.7865,-1.208515E-05,26.7975,0,1.7865,-2.014191E-06,26.7975,0
1.7874,-4.36408E-06,26.811,0,1.7874,-1.074235E-05,26.811,0
1.7883,-1.846342E-05,26.8245,0,1.7883,5.740444E-05,26.8245,0
1.7892,-6.378271E-06,26.838,0,1.7892,2.21561E-05,26.838,0
1.7901,-1.376364E-05,26.8515,0,1.7901,-5.471885E-05,26.8515,0
1.791,8.728161E-06,26.865,0,1.791,-5.706874E-05,26.865,0
1.7919,3.390555E-05,26.8785,0,1.7919,-8.392462E-05,26.8785,0
1.7928,9.735256E-06,26.892,0,1.7928,-0.0001117876,26.892,0
1.7937,3.390555E-05,26.9055,0,1.7937,-1.712062E-05,26.9055,0
1.7946,-8.392462E-06,26.919,0,1.7946,3.390555E-05,26.919,0
1.7955,-4.800488E-05,26.9325,0,1.7955,2.652018E-05,26.9325,0
1.7964,-2.081331E-05,26.946,0,1.7964,3.356985E-06,26.946,0
1.7973,-5.539025E-05,26.9595,0,1.7973,-3.860533E-05,26.9595,0
1.7982,-5.203327E-05,26.973,0,1.7982,7.721065E-06,26.973,0
1.7991,-6.814679E-05,26.9865,0,1.7991,4.53193E-05,26.9865,0
1.8,-6.51255E-05,27,0,1.8,5.941863E-05,27,0
1.8009,-1.611353E-05,27.0135,0,1.8009,2.081331E-05,27.0135,0
1.8018,-1.644922E-05,27.027,0,1.8018,3.558404E-05,27.027,0
1.8027,-2.014191E-06,27.0405,0,1.8027,1.812772E-05,27.0405,0
1.8036,1.980621E-05,27.054,0,1.8036,-3.793393E-05,27.054,0
1.8045,5.874724E-05,27.0675,0,1.8045,1.409934E-05,27.0675,0
1.8054,6.948959E-05,27.081,0,1.8054,1.174945E-05,27.081,0
1.8063,9.063859E-06,27.0945,0,1.8063,-4.699779E-05,27.0945,0
1.8072,-3.088426E-05,27.108,0,1.8072,-5.941863E-05,27.108,0
1.8081,-8.728161E-06,27.1215,0,1.8081,-1.544213E-05,27.1215,0
1.809,6.042573E-06,27.135,0,1.809,-5.706874E-06,27.135,0
1.8099,0,27.1485,0,1.8099,-1.275654E-05,27.1485,0
1.8108,-3.591974E-05,27.162,0,1.8108,-4.263371E-05,27.162,0
1.8117,-3.793393E-05,27.1755,0,1.8117,-1.947051E-05,27.1755,0
1.8126,-5.404745E-05,27.189,0,1.8126,3.021286E-06,27.189,0
1.8135,-7.418937E-05,27.2025,0,1.8135,-5.673304E-05,27.2025,0
1.8144,-4.36408E-05,27.216,0,1.8144,-7.754635E-05,27.216,0
1.8153,-1.779202E-05,27.2295,0,1.8153,-1.644922E-05,27.2295,0
1.8162,2.383459E-05,27.243,0,1.8162,-3.256275E-05,27.243,0
1.8171,5.471885E-05,27.2565,0,1.8171,-8.560311E-05,27.2565,0
1.818,3.256275E-05,27.27,0,1.818,-2.24918E-05,27.27,0
1.8189,2.920577E-05,27.2835,0,1.8189,-3.692683E-06,27.2835,0
1.8198,-5.035477E-06,27.297,0,1.8198,-3.323415E-05,27.297,0
1.8207,-1.040665E-05,27.3105,0,1.8207,-2.920577E-05,27.3105,0
