X[s],"Trigno IM sensor 3: EMG 3 (IM)",X[s],"Trigno IM sensor 3: Mag 3.Z (IM)",X[s],"Trigno IM sensor 4: EMG 4 (IM)",X[s],"Trigno IM sensor 4: Mag 4.Z (IM)"
0.000000,7.385367E-06,0.000000,121,0.000000,-7.217517E-05,0.000000,-1
0.0009,2.853437E-05,0.0135,122,0.0009,-3.121996E-05,0.0135,0
0.0018,4.901198E-05,0.027,122,0.0018,-5.169757E-05,0.027,-1
0.0027,5.572595E-05,0.0405,121,0.0027,-7.016098E-05,0.0405,-1
0.0036,4.028382E-05,0.054,120,0.0036,-7.385367E-05,0.054,0
0.0045,-8.627451E-05,0.0675,121,0.0045,-0.0001715419,0.0675,-1
0.0054,-9.835965E-05,0.081,121,0.0054,-0.0002081331,0.081,0
0.0063,-2.383459E-05,0.0945,122,0.0063,-0.0001799344,0.0945,-1
0.0072,-1.779202E-05,0.108,121,0.0072,-0.0001500572,0.108,-1
0.0081,4.263371E-05,0.1215,121,0.0081,-3.256275E-05,0.1215,0
0.009000001,7.486076E-05,0.135,120,0.009000001,0.000126894,0.135,0
0.0099,8.92958E-05,0.1485,120,0.0099,9.433127E-05,0.1485,0
0.0108,0.0001013809,0.162,120,0.0108,-1.913481E-05,0.162,1
0.0117,-4.162661E-05,0.1755,123,0.0117,-4.33051E-05,0.1755,0
0.0126,-8.996719E-05,0.189,121,0.0126,-0.000109102,0.189,-2
0.0135,0.0001453574,0.2025,120,0.0135,-8.96315E-05,0.2025,-1
0.0144,8.560311E-05,0.216,121,0.0144,-7.888914E-05,0.216,-2
0.0153,-8.023193E-05,0.2295,121,0.0153,-7.687495E-05,0.2295,-3
0.0162,-0.0001077592,0.243,121,0.0162,-4.028382E-05,0.243,0
0.0171,-8.89601E-05,0.2565,121,0.0171,1.510643E-05,0.2565,-2
0.018,-5.270466E-05,0.27,121,0.018,5.136187E-05,0.27,-2
0.0189,-8.627451E-05,0.2835,120,0.0189,-3.356985E-06,0.2835,-3
0.0198,-2.383459E-05,0.297,120,0.0198,-7.620356E-05,0.297,-4
0.0207,2.517739E-05,0.3105,121,0.0207,-2.920577E-05,0.3105,-1
0.0216,7.049668E-06,0.324,123,0.0216,-4.766919E-05,0.324,-4
0.0225,-3.793393E-05,0.3375,122,0.0225,-9.802396E-05,0.3375,-2
0.0234,-2.047761E-05,0.351,120,0.0234,-8.224613E-05,0.351,-1
0.0243,-2.450599E-05,0.3645,122,0.0243,-7.150377E-05,0.3645,-2
0.0252,-7.586786E-05,0.378,121,0.0252,-3.793393E-05,0.378,-2
0.0261,-1.544213E-05,0.3915,122,0.0261,-6.378271E-06,0.3915,-4
0.027,-4.129091E-05,0.405,122,0.027,6.143282E-05,0.405,-1
0.0279,-4.666209E-05,0.4185,122,0.0279,3.457694E-05,0.4185,0
0.0288,-4.733349E-05,0.432,121,0.0288,-4.565499E-05,0.432,-1
0.0297,-9.298848E-05,0.4455,123,0.0297,2.014191E-06,0.4455,-3
0.0306,-8.157473E-05,0.459,122,0.0306,3.726253E-05,0.459,-3
0.0315,-6.78111E-05,0.4725,122,0.0315,1.913481E-05,0.4725,-1
0.0324,-0.0001131304,0.486,120,0.0324,-3.625543E-05,0.486,-3
0.0333,-8.728161E-06,0.4995,121,0.0333,-8.69459E-05,0.4995,-2
0.0342,5.740444E-05,0.513,121,0.0342,-9.768826E-05,0.513,-1
0.0351,0.0001252155,0.5265,123,0.0351,-0.0001540856,0.5265,0
0.036,8.358892E-05,0.54,121,0.036,-9.835965E-05,0.54,-1
0.0369,7.385367E-06,0.5535,121,0.0369,-2.517739E-05,0.5535,0
0.0378,-3.659113E-05,0.567,121,0.0378,4.934768E-05,0.567,0
0.0387,-7.049668E-06,0.5805,121,0.0387,0.0001305867,0.5805,0
0.0396,-5.236896E-05,0.594,121,0.0396,0.0001285725,0.594,-1
0.0405,-1.644922E-05,0.6075,121,0.0405,0.0001164874,0.6075,-1
0.0414,2.1149E-05,0.621,121,0.0414,8.023193E-05,0.621,0
0.0423,1.577783E-05,0.6345,122,0.0423,-3.524834E-05,0.6345,0
0.0432,2.920577E-05,0.648,122,0.0432,-5.673304E-05,0.648,0
0.0441,0.0001211871,0.6615,122,0.0441,-2.450599E-05,0.6615,0
0.045,0.0001292439,0.675,121,0.045,-2.24918E-05,0.675,-3
0.0459,3.860533E-05,0.6885,122,0.0459,-1.510643E-05,0.6885,-2
0.0468,-3.356985E-06,0.702,121,0.0468,3.054856E-05,0.702,-1
0.0477,2.047761E-05,0.7155,122,0.0477,2.652018E-05,0.7155,0
0.0486,-0.0001346151,0.729,121,0.0486,-5.404745E-05,0.729,-3
0.0495,-9.231708E-05,0.7425,122,0.0495,-5.001907E-05,0.7425,0
0.0504,-1.846342E-05,0.756,122,0.0504,-6.143282E-05,0.756,-3
0.0513,-4.666209E-05,0.7695,122,0.0513,-9.533837E-05,0.7695,-5
0.0522,-0.0001483787,0.783,121,0.0522,-4.33051E-05,0.783,-2
0.0531,-0.0001339437,0.7965,122,0.0531,3.356985E-07,0.7965,0
0.054,-1.242084E-05,0.81,122,0.054,7.721065E-06,0.81,-1
0.0549,-1.712062E-05,0.8235,122,0.0549,-1.544213E-05,0.8235,-1
0.0558,-4.33051E-05,0.837,122,0.0558,-8.224613E-05,0.837,-3
0.0567,-4.53193E-05,0.8505,121,0.0567,-4.46479E-05,0.8505,0
0.0576,-7.452507E-05,0.864,123,0.0576,8.728161E-06,0.864,1
0.0585,-5.941863E-05,0.8775,120,0.0585,-9.735256E-06,0.8775,0
0.0594,-5.505455E-05,0.891,122,0.0594,-3.256275E-05,0.891,-1
0.0603,-1.577783E-05,0.9045,123,0.0603,-1.107805E-05,0.9045,2
0.0612,0.0001037308,0.918,123,0.0612,-1.678492E-06,0.918,1
0.0621,0.0001715419,0.9315,122,0.0621,-2.652018E-05,0.9315,-2
0.063,0.0001634852,0.945,122,0.063,1.040665E-05,0.945,0
0.0639,0.0002353246,0.9585,122,0.0639,-5.706874E-06,0.9585,0
0.0648,0.0001537499,0.972,123,0.0648,-0.0001326009,0.972,0
0.0657,1.779202E-05,0.9855,122,0.0657,-0.0001453574,0.9855,-2
0.0666,-6.344701E-05,0.999,122,0.0666,-0.0001087663,0.999,0
0.0675,-0.0001010452,1.0125,123,0.0675,-5.236896E-05,1.0125,-1
0.0684,-7.553216E-05,1.026,122,0.0684,5.874724E-05,1.026,0
0.0693,-6.54612E-05,1.0395,122,0.0693,0.000112459,1.0395,-1
0.0702,-3.356985E-07,1.053,122,0.0702,8.493171E-05,1.053,0
0.0711,-1.577783E-05,1.0665,120,0.0711,7.217517E-05,1.0665,-1
0.072,5.035477E-06,1.08,121,0.072,-6.713969E-07,1.08,-2
0.0729,2.484169E-05,1.0935,120,0.0729,-8.761731E-05,1.0935,-1
0.07380001,-3.860533E-05,1.107,121,0.07380001,-0.0001654994,1.107,-1
0.07470001,-8.459602E-05,1.1205,119,0.07470001,-0.0002799725,1.1205,-2
0.0756,-6.176852E-05,1.134,120,0.0756,-0.0003474479,1.134,-4
0.0765,-1.947051E-05,1.1475,119,0.0765,-0.0002020905,1.1475,-2
0.0774,6.076142E-05,1.161,120,0.0774,-3.323415E-05,1.161,-2
0.0783,0.0003541619,1.1745,118,0.0783,0.0001658351,1.1745,-1
0.0792,0.0003971313,1.188,120,0.0792,0.0003286488,1.188,-2
0.0801,8.358892E-05,1.2015,117,0.0801,0.0002799725,1.2015,-4
0.081,-0.000112459,1.215,119,0.081,0.0002373388,1.215,-2
0.0819,-0.0001413291,1.2285,119,0.0819,0.0001983978,1.2285,-5
0.0828,-0.0002796368,1.242,118,0.0828,7.687495E-05,1.242,-2
0.0837,-0.000252781,1.2555,119,0.0837,4.867628E-05,1.2555,-2
0.0846,-8.224613E-05,1.269,118,0.0846,6.042573E-06,1.269,-2
0.0855,-8.090334E-05,1.2825,118,0.0855,-4.46479E-05,1.2825,-3
0.0864,-0.0001010452,1.296,120,0.0864,-9.130999E-05,1.296,-3
0.0873,-0.0001044022,1.3095,118,0.0873,-7.821774E-05,1.3095,-4
0.0882,-4.599069E-05,1.323,118,0.0882,-7.888914E-05,1.323,-4
0.0891,-1.745632E-05,1.3365,119,0.0891,-0.0001114519,1.3365,-7
0.09,-1.510643E-05,1.35,118,0.09,-9.466698E-05,1.35,-5
0.0909,1.107805E-05,1.3635,120,0.0909,-0.0001587854,1.3635,-4
0.0918,-1.376364E-05,1.377,119,0.0918,-0.000186984,1.377,-2
0.0927,-1.107805E-05,1.3905,119,0.0927,-0.0001248798,1.3905,-4
0.0936,1.443504E-05,1.404,119,0.0936,-6.713969E-07,1.404,-3
0.09450001,4.53193E-05,1.4175,118,0.09450001,9.634547E-05,1.4175,-5
0.09540001,7.956054E-05,1.431,119,0.09540001,0.0001634852,1.431,-3
0.09630001,8.526741E-05,1.4445,119,0.09630001,0.0001530785,1.4445,-1
0.0972,7.888914E-05,1.458,118,0.0972,0.0001017166,1.458,-2
0.0981,6.277562E-05,1.4715,120,0.0981,4.699779E-06,1.4715,-3
0.099,2.014191E-05,1.485,119,0.099,-7.284657E-05,1.485,-4
0.0999,-3.524834E-05,1.4985,119,0.0999,-7.217517E-05,1.4985,-2
0.1008,-2.652018E-05,1.512,119,0.1008,-2.450599E-05,1.512,-4
0.1017,7.721065E-06,1.5255,119,0.1017,-1.846342E-05,1.5255,-2
0.1026,-5.069047E-05,1.539,119,0.1026,-5.337606E-05,1.539,-1
0.1035,-5.203327E-05,1.5525,120,0.1035,6.713969E-07,1.5525,-5
0.1044,5.270466E-05,1.566,119,0.1044,2.517739E-05,1.566,-3
0.1053,5.438316E-05,1.5795,118,0.1053,-5.404745E-05,1.5795,-5
0.1062,-5.975433E-05,1.593,119,0.1062,-4.53193E-05,1.593,0
0.1071,-8.023193E-05,1.6065,118,0.1071,-4.263371E-05,1.6065,-3
0.108,0.0001138018,1.62,119,0.108,-7.116808E-05,1.62,-1
0.1089,0.0001799344,1.6335,119,0.1089,-9.164568E-05,1.6335,-4
0.1098,0.0001232013,1.647,120,0.1098,-0.0001104448,1.647,-3
0.1107,8.96315E-05,1.6605,121,0.1107,-0.0001265583,1.6605,0
0.1116,2.24918E-05,1.674,118,0.1116,-0.000126894,1.674,0
0.1125,-0.0001883268,1.6875,118,0.1125,-0.0001218585,1.6875,-1
0.1134,-0.0002406958,1.701,118,0.1134,-8.426032E-05,1.701,-2
0.1143,-0.0001104448,1.7145,119,0.1143,8.392462E-06,1.7145,-3
0.1152,-0.0001406577,1.728,118,0.1152,9.500267E-05,1.728,-1
0.1161,-0.0001789273,1.7415,119,0.1161,9.600977E-05,1.7415,0
0.117,-6.881819E-05,1.755,118,0.117,8.157473E-05,1.755,-2
0.1179,1.712062E-05,1.7685,119,0.1179,6.78111E-05,1.7685,0
0.1188,1.980621E-05,1.782,120,0.1188,-3.021286E-06,1.782,-2
0.1197,-2.014191E-05,1.7955,119,0.1197,-3.659113E-05,1.7955,-1
0.1206,-3.994812E-05,1.809,119,0.1206,-5.270466E-05,1.809,-3
0.1215,-2.349889E-06,1.8225,119,0.1215,-8.996719E-05,1.8225,0
0.1224,2.920577E-05,1.836,119,0.1224,-7.284657E-05,1.836,0
0.1233,0.0001151446,1.8495,120,0.1233,-5.169757E-05,1.8495,-2
0.1242,9.433127E-05,1.863,119,0.1242,1.779202E-05,1.863,-1
0.1251,0.0001064164,1.8765,119,0.1251,0.0001178302,1.8765,-1
0.126,5.874724E-05,1.89,119,0.126,0.0001322652,1.89,-3
0.1269,-3.088426E-05,1.9035,118,0.1269,4.061952E-05,1.9035,-2
0.1278,-0.0001574426,1.917,119,0.1278,2.920577E-05,1.917,0
0.1287,-1.644922E-05,1.9305,118,0.1287,-1.007095E-06,1.9305,0
0.1296,5.069047E-05,1.944,119,0.1296,-4.599069E-05,1.944,-1
0.1305,3.021286E-06,1.9575,119,0.1305,-3.356985E-05,1.9575,-1
0.1314,1.846342E-05,1.971,120,0.1314,-2.618448E-05,1.971,-4
0.1323,6.478981E-05,1.9845,120,0.1323,-4.699779E-05,1.9845,0
0.1332,5.102617E-05,1.998,118,0.1332,-8.023193E-05,1.998,-1
0.1341,-3.289845E-05,2.0115,118,0.1341,-0.0001185016,2.0115,-2
0.135,-4.53193E-05,2.025,119,0.135,-0.0001104448,2.025,-2
0.1359,-5.337606E-05,2.0385,119,0.1359,-6.948959E-05,2.0385,0
0.1368,6.411841E-05,2.052,120,0.1368,-6.948959E-05,2.052,-1
0.1377,0.0001712062,2.0655,119,0.1377,-2.18204E-05,2.0655,-1
0.1386,8.157473E-05,2.079,118,0.1386,2.28275E-05,2.079,-1
0.1395,5.539025E-05,2.0925,119,0.1395,-1.443504E-05,2.0925,-1
0.1404,0,2.106,118,0.1404,-4.196231E-05,2.106,0
0.1413,-0.0002077974,2.1195,119,0.1413,1.376364E-05,2.1195,0
0.1422,-8.358892E-05,2.133,119,0.1422,3.793393E-05,2.133,-1
0.1431,-5.774014E-05,2.1465,118,0.1431,1.040665E-05,2.1465,0
0.144,-0.0001399863,2.16,118,0.144,-8.392462E-06,2.16,0
0.1449,-3.424125E-05,2.1735,119,0.1449,-6.411841E-05,2.1735,-2
0.1458,-2.920577E-05,2.187,119,0.1458,-6.411841E-05,2.187,0
0.1467,-7.788205E-05,2.2005,119,0.1467,-4.599069E-05,2.2005,0
0.1476,-1.745632E-05,2.214,118,0.1476,-0.0001017166,2.214,-4
0.1485,1.376364E-05,2.2275,118,0.1485,-0.0001185016,2.2275,0
0.1494,4.196231E-05,2.241,119,0.1494,-9.298848E-05,2.241,-1
0.1503,3.323415E-05,2.2545,117,0.1503,-5.438316E-05,2.2545,-4
0.1512,1.678492E-06,2.268,118,0.1512,5.606165E-05,2.268,-2
0.1521,-1.174945E-05,2.2815,117,0.1521,0.0001393149,2.2815,-2
0.153,-1.678492E-05,2.295,118,0.153,0.0001010452,2.295,0
0.1539,-3.793393E-05,2.3085,116,0.1539,1.510643E-05,2.3085,0
0.1548,-2.383459E-05,2.322,118,0.1548,4.263371E-05,2.322,0
0.1557,-1.141375E-05,2.3355,118,0.1557,7.351797E-05,2.3355,-1
0.1566,-4.36408E-06,2.349,117,0.1566,4.934768E-05,2.349,-2
0.1575,3.994812E-05,2.3625,117,0.1575,8.92958E-05,2.3625,0
0.1584,0.0001017166,2.376,118,0.1584,5.203327E-05,2.376,0
0.1593,0.0001587854,2.3895,117,0.1593,-3.289845E-05,2.3895,0
0.1602,2.21561E-05,2.403,119,0.1602,-5.136187E-05,2.403,0
0.1611,-1.544213E-05,2.4165,119,0.1611,-2.047761E-05,2.4165,0
0.162,-7.150377E-05,2.43,117,0.162,-2.987716E-05,2.43,2
0.1629,-0.0001144732,2.4435,119,0.1629,-6.143282E-05,2.4435,-3
0.1638,-0.0001188373,2.457,118,0.1638,-7.687495E-05,2.457,0
0.1647,-0.0001292439,2.4705,117,0.1647,-8.996719E-05,2.4705,-1
0.1656,-9.835965E-05,2.484,118,0.1656,-8.358892E-05,2.484,-1
0.1665,6.076142E-05,2.4975,118,0.1665,-0.0001185016,2.4975,0
0.1674,6.64683E-05,2.511,119,0.1674,-0.0002010834,2.511,-1
0.1683,-2.18204E-05,2.5245,118,0.1683,-0.0001493858,2.5245,0
0.1692,-8.191043E-05,2.538,118,0.1692,-7.418937E-05,2.538,0
0.1701,-5.874724E-05,2.5515,118,0.1701,-2.450599E-05,2.5515,0
0.171,-4.33051E-05,2.565,117,0.171,8.023193E-05,2.565,-2
0.1719,7.721065E-06,2.5785,117,0.1719,0.0001413291,2.5785,0
0.1728,7.016098E-05,2.592,118,0.1728,0.000112459,2.592,0
0.1737,5.203327E-05,2.6055,117,0.1737,8.291753E-05,2.6055,1
0.1746,-1.443504E-05,2.619,117,0.1746,-3.793393E-05,2.619,1
0.1755,-5.740444E-05,2.6325,117,0.1755,-4.196231E-05,2.6325,-3
0.1764,-9.030289E-05,2.646,117,0.1764,-2.1149E-05,2.646,0
0.1773,-4.33051E-05,2.6595,117,0.1773,-3.826963E-05,2.6595,1
0.1782,-2.24918E-05,2.673,118,0.1782,-3.759823E-05,2.673,0
0.1791,8.358892E-05,2.6865,117,0.1791,-3.424125E-05,2.6865,0
0.18,0.0001138018,2.7,116,0.18,-0.000109102,2.7,-3
0.1809,8.325322E-05,2.7135,117,0.1809,-0.0001440146,2.7135,-1
0.1818,0.0001211871,2.727,117,0.1818,-7.217517E-05,2.727,1
0.1827,0.0001245441,2.7405,117,0.1827,1.678492E-06,2.7405,0
0.1836,0.000115816,2.754,116,0.1836,5.136187E-05,2.754,-1
0.1845,6.042573E-06,2.7675,117,0.1845,9.600977E-05,2.7675,-1
0.1854,-7.620356E-05,2.781,117,0.1854,9.835965E-05,2.781,-1
0.1863,-6.210422E-05,2.7945,117,0.1863,5.203327E-05,2.7945,0
0.1872,-6.210422E-05,2.808,119,0.1872,3.189136E-05,2.808,0
0.1881,-4.968337E-05,2.8215,117,0.1881,-2.1149E-05,2.8215,0
0.189,-5.203327E-05,2.835,117,0.189,-9.265278E-05,2.835,-4
0.1899,-0.0001101091,2.8485,118,0.1899,-8.426032E-05,2.8485,-1
0.1908,-6.143282E-05,2.862,118,0.1908,-7.653925E-05,2.862,0
0.1917,-4.800488E-05,2.8755,118,0.1917,-7.217517E-05,2.8755,0
0.1926,-2.719158E-05,2.889,118,0.1926,-5.505455E-05,2.889,0
0.1935,-2.014191E-06,2.9025,116,0.1935,-1.107805E-05,2.9025,-1
0.1944,2.853437E-05,2.916,118,0.1944,6.713969E-06,2.916,0
0.1953,9.399558E-06,2.9295,117,0.1953,1.510643E-05,2.9295,-1
0.1962,2.551309E-05,2.943,117,0.1962,3.021286E-06,2.943,-1
0.1971,0.0001238727,2.9565,118,0.1971,-0.0002057832,2.9565,0
0.198,0.0001621424,2.97,118,0.198,-0.000306157,2.97,-2
0.1989,4.934768E-05,2.9835,117,0.1989,-0.0003054856,2.9835,0
0.1998,-5.035477E-06,2.997,118,0.1998,-0.0002178683,2.997,0
0.2007,-1.242084E-05,3.0105,118,0.2007,3.088426E-05,3.0105,-1
0.2016,-0.0001178302,3.024,116,0.2016,0.0003461051,3.024,-2
0.2025,-0.0001225299,3.0375,117,0.2025,0.0004394293,3.0375,-1
0.2034,-7.418937E-05,3.051,118,0.2034,0.0003534905,3.051,-1
0.2043,-6.478981E-05,3.0645,116,0.2043,0.0001695277,3.0645,-1
0.2052,-8.056763E-06,3.078,0,0.2052,9.634547E-05,3.078,0
0.2061,4.061952E-05,3.0915,0,0.2061,6.411841E-05,3.0915,0
0.207,-5.539025E-05,3.105,0,0.207,-9.735256E-06,3.105,0
0.2079,-2.316319E-05,3.1185,0,0.2079,-3.994812E-05,3.1185,0
0.2088,-1.644922E-05,3.132,0,0.2088,5.035477E-06,3.132,0
0.2097,2.887007E-05,3.1455,0,0.2097,-3.692683E-05,3.1455,0
0.2106,7.150377E-05,3.159,0,0.2106,-9.903105E-05,3.159,0
0.2115,4.699779E-05,3.1725,0,0.2115,-3.793393E-05,3.1725,0
0.2124,-1.913481E-05,3.186,0,0.2124,-3.826963E-05,3.186,0
0.2133,-8.96315E-05,3.1995,0,0.2133,-7.385367E-05,3.1995,0
0.2142,1.712062E-05,3.213,0,0.2142,-5.102617E-05,3.213,0
0.2151,-4.229801E-05,3.2265,0,0.2151,-3.625543E-05,3.2265,0
0.216,-1.409934E-05,3.24,0,0.216,-4.33051E-05,3.24,0
0.2169,-1.040665E-05,3.2535,0,0.2169,-6.54612E-05,3.2535,0
0.2178,-3.256275E-05,3.267,0,0.2178,-0.0001185016,3.267,0
0.2187,-1.879912E-05,3.2805,0,0.2187,-0.0001144732,3.2805,0
0.2196,-1.678492E-06,3.294,0,0.2196,-0.0001218585,3.294,0
0.2205,0.0002064546,3.3075,0,0.2205,-0.0001678492,3.3075,0
0.2214,0.0003434196,3.321,0,0.2214,-0.0001795987,3.321,0
0.2223,0.0001856413,3.3345,0,0.2223,-8.224613E-05,3.3345,0
0.2232,-1.678492E-06,3.348,0,0.2232,-5.841154E-05,3.348,0
0.2241,-0.0001070878,3.3615,0,0.2241,-5.001907E-05,3.3615,0
0.225,-0.0004649424,3.375,0,0.225,9.701686E-05,3.375,0
0.2259,-0.0004958267,3.3885,0,0.2259,0.0001775845,3.3885,0
0.2268,-0.0001423362,3.402,0,0.2268,6.243992E-05,3.402,0
0.2277,-4.36408E-06,3.4155,0,0.2277,4.028382E-06,3.4155,0
0.2286,-3.994812E-05,3.429,0,0.2286,1.947051E-05,3.429,0
0.2295,1.510643E-05,3.4425,0,0.2295,1.309224E-05,3.4425,0
0.2304,3.424125E-05,3.456,0,0.2304,-6.713969E-07,3.456,0
0.2313,-4.666209E-05,3.4695,0,0.2313,-3.323415E-05,3.4695,0
0.2322,-5.337606E-05,3.483,0,0.2322,-6.042573E-06,3.483,0
0.2331,3.927672E-05,3.4965,0,0.2331,-2.047761E-05,3.4965,0
0.234,6.6804E-05,3.51,0,0.234,-5.404745E-05,3.51,0
0.2349,6.64683E-05,3.5235,0,0.2349,-7.956054E-05,3.5235,0
0.2358,3.591974E-05,3.537,0,0.2358,-4.028382E-05,3.537,0
0.2367,2.819867E-05,3.5505,0,0.2367,-4.666209E-05,3.5505,0
0.2376,1.443504E-05,3.564,0,0.2376,-8.291753E-05,3.564,0
0.2385,5.035477E-06,3.5775,0,0.2385,-1.913481E-05,3.5775,0
0.2394,4.39765E-05,3.591,0,0.2394,2.047761E-05,3.591,0
0.2403,0.000144686,3.6045,0,0.2403,-9.063859E-06,3.6045,0
0.2412,0.0002131685,3.618,0,0.2412,-1.443504E-05,3.618,0
0.2421,0.0001889983,3.6315,0,0.2421,2.349889E-06,3.6315,0
0.243,8.426032E-05,3.645,0,0.243,2.618448E-05,3.645,0
0.2439,-5.807584E-05,3.6585,0,0.2439,6.713969E-07,3.6585,0
0.2448,-0.0002044404,3.672,0,0.2448,-2.719158E-05,3.672,0
0.2457,-0.0002265965,3.6855,0,0.2457,3.692683E-06,3.6855,0
0.2466,-9.970245E-05,3.699,0,0.2466,-1.477073E-05,3.699,0
0.2475,-4.36408E-06,3.7125,0,0.2475,-3.323415E-05,3.7125,0
0.2484,3.356985E-07,3.726,0,0.2484,-4.867628E-05,3.726,0
0.2493,-9.063859E-06,3.7395,0,0.2493,-2.349889E-06,3.7395,0
0.2502,1.208515E-05,3.753,0,0.2502,-1.376364E-05,3.753,0
0.2511,5.841154E-05,3.7665,0,0.2511,-5.606165E-05,3.7665,0
0.252,6.277562E-05,3.78,0,0.252,-1.980621E-05,3.78,0
0.2529,3.256275E-05,3.7935,0,0.2529,-9.735256E-06,3.7935,0
0.2538,2.24918E-05,3.807,0,0.2538,-7.519646E-05,3.807,0
0.2547,-2.28275E-05,3.8205,0,0.2547,-8.661021E-05,3.8205,0
0.2556,-5.438316E-05,3.834,0,0.2556,-1.577783E-05,3.834,0
0.2565,2.853437E-05,3.8475,0,0.2565,-1.544213E-05,3.8475,0
0.2574,6.344701E-05,3.861,0,0.2574,-3.088426E-05,3.861,0
0.2583,7.956054E-05,3.8745,0,0.2583,-6.411841E-05,3.8745,0
0.2592,6.109713E-05,3.888,0,0.2592,-0.0001171588,3.888,0
0.2601,-5.069047E-05,3.9015,0,0.2601,-0.0001252155,3.9015,0
0.261,-0.0001225299,3.915,0,0.261,-0.0001198444,3.915,0
0.2619,-7.486076E-05,3.9285,0,0.2619,-7.553216E-05,3.9285,0
0.2628,-0.0001701991,3.942,0,0.2628,5.404745E-05,3.942,0
0.2637,-0.0001285725,3.9555,0,0.2637,0.000154757,3.9555,0
0.2646,2.484169E-05,3.969,0,0.2646,0.0001675135,3.969,0
0.2655,2.987716E-05,3.9825,0,0.2655,0.000186984,3.9825,0
0.2664,-1.980621E-05,3.996,0,0.2664,8.82887E-05,3.996,0
0.2673,-3.390555E-05,4.0095,0,0.2673,-6.61326E-05,4.0095,0
0.2682,-8.392462E-06,4.023,0,0.2682,-0.0001030594,4.023,0
0.2691,-4.028382E-05,4.0365,0,0.2691,-2.987716E-05,4.0365,0
0.27,-2.21561E-05,4.05,0,0.27,2.349889E-06,4.05,0
0.2709,7.049668E-06,4.0635,0,0.2709,-5.035477E-06,4.0635,0
0.2718,1.644922E-05,4.077,0,0.2718,1.409934E-05,4.077,0
0.2727,-3.021286E-06,4.0905,0,0.2727,5.841154E-05,4.0905,0
0.2736,4.733349E-05,4.104,0,0.2736,4.263371E-05,4.104,0
0.2745,6.71397E-05,4.1175,0,0.2745,-4.766919E-05,4.1175,0
0.2754,3.121996E-05,4.131,0,0.2754,-7.217517E-05,4.131,0
0.2763,2.887007E-05,4.1445,0,0.2763,-0.000144686,4.1445,0
0.2772,4.36408E-05,4.158,0,0.2772,-0.0002124971,4.158,0
0.2781,2.920577E-05,4.1715,0,0.2781,-0.0001769131,4.1715,0
0.279,-9.903105E-05,4.185,0,0.279,-4.800488E-05,4.185,0
0.2799,-4.263371E-05,4.1985,0,0.2799,7.083238E-05,4.1985,0
0.2808,2.450599E-05,4.212,0,0.2808,0.0001728847,4.212,0
0.2817,1.577783E-05,4.2255,0,0.2817,0.0002504311,4.2255,0
0.2826,3.021286E-05,4.239,0,0.2826,0.0001705348,4.239,0
0.2835,1.376364E-05,4.2525,0,0.2835,7.217517E-05,4.2525,0
0.2844,-8.392462E-06,4.266,0,0.2844,1.510643E-05,4.266,0
0.2853,-2.853437E-05,4.2795,0,0.2853,-3.021286E-05,4.2795,0
0.2862,-4.129091E-05,4.293,0,0.2862,-2.18204E-05,4.293,0
0.2871,2.24918E-05,4.3065,0,0.2871,-2.450599E-05,4.3065,0
0.288,1.309224E-05,4.32,0,0.288,-4.29694E-05,4.32,0
0.2889,-1.678492E-06,4.3335,0,0.2889,-7.553216E-05,4.3335,0
0.2898,3.894102E-05,4.347,0,0.2898,-5.304036E-05,4.347,0
0.2907,2.1149E-05,4.3605,0,0.2907,-4.36408E-05,4.3605,0
0.2916,0.0001685206,4.374,0,0.2916,-8.157473E-05,4.374,0
0.2925,0.0001285725,4.3875,0,0.2925,-6.814679E-05,4.3875,0
0.2934,-7.083238E-05,4.401,0,0.2934,-1.678492E-05,4.401,0
0.2943,-0.0002007477,4.4145,0,0.2943,-7.586786E-05,4.4145,0
0.2952,-0.0001910124,4.428,0,0.2952,-0.0001242084,4.428,0
0.2961,-7.687495E-05,4.4415,0,0.2961,-0.0001225299,4.4415,0
0.297,0.0001426719,4.455,0,0.297,-0.000109102,4.455,0
0.2979,0.0001715419,4.4685,0,0.2979,-8.627451E-05,4.4685,0
0.2988,2.719158E-05,4.482,0,0.2988,-7.116808E-05,4.482,0
0.2997,-6.478981E-05,4.4955,0,0.2997,-6.243992E-05,4.4955,0
0.3006,-0.0002383459,4.509,0,0.3006,-5.404745E-05,4.509,0
0.3015,-0.0003038071,4.5225,0,0.3015,-6.411841E-05,4.5225,0
0.3024,-0.000140322,4.536,0,0.3024,-3.054856E-05,4.536,0
0.3033,1.712062E-05,4.5495,0,0.3033,5.304036E-05,4.5495,0
0.3042,9.298848E-05,4.563,0,0.3042,7.956054E-05,4.563,0
0.3051,0.0001322652,4.5765,0,0.3051,7.653925E-05,4.5765,0
0.306,2.047761E-05,4.59,0,0.306,0.0001232013,4.59,0
0.3069,-0.0001097734,4.6035,0,0.3069,7.486076E-05,4.6035,0
0.3078,-0.0001359579,4.617,0,0.3078,2.652018E-05,4.617,0
0.3087,-3.289845E-05,4.6305,0,0.3087,2.349889E-06,4.6305,0
0.3096,-2.652018E-05,4.644,0,0.3096,-7.049668E-06,4.644,0
0.3105,4.129091E-05,4.6575,0,0.3105,-4.196231E-05,4.6575,0
0.3114,7.083238E-05,4.671,0,0.3114,-4.800488E-05,4.671,0
0.3123,3.625543E-05,4.6845,0,0.3123,-8.69459E-05,4.6845,0
0.3132,-6.848249E-05,4.698,0,0.3132,-6.74754E-05,4.698,0
0.3141,-7.016098E-05,4.7115,0,0.3141,9.063859E-06,4.7115,0
0.315,-3.256275E-05,4.725,0,0.315,3.692683E-06,4.725,0
0.3159,2.349889E-06,4.7385,0,0.3159,-5.505455E-05,4.7385,0
0.3168,4.36408E-06,4.752,0,0.3168,-3.961242E-05,4.752,0
0.3177,-2.450599E-05,4.7655,0,0.3177,-6.143282E-05,4.7655,0
0.3186,-2.987716E-05,4.779,0,0.3186,-0.0001299153,4.779,0
0.3195,-6.54612E-05,4.7925,0,0.3195,-0.0001232013,4.7925,0
0.3204,-3.726253E-05,4.806,0,0.3204,-9.298848E-05,4.806,0
0.3213,6.210422E-05,4.8195,0,0.3213,-9.130999E-05,4.8195,0
0.3222,0.000115816,4.833,0,0.3222,-8.493171E-05,4.833,0
0.3231,7.049668E-05,4.8465,0,0.3231,6.378271E-06,4.8465,0
0.324,5.539025E-05,4.86,0,0.324,0.0001265583,4.86,0
0.3249,2.887007E-05,4.8735,0,0.3249,0.0002007477,4.8735,0
0.3258,-6.076142E-05,4.887,0,0.3258,0.0001148089,4.887,0
0.3267,-8.392462E-06,4.9005,0,0.3267,8.191043E-05,4.9005,0
0.3276,2.853437E-05,4.914,0,0.3276,6.076142E-05,4.914,0
0.3285,-6.109713E-05,4.9275,0,0.3285,2.014191E-06,4.9275,0
0.3294,-1.577783E-05,4.941,0,0.3294,-3.692683E-05,4.941,0
0.3303,5.169757E-05,4.9545,0,0.3303,-3.961242E-05,4.9545,0
0.3312,0.0001000381,4.968,0,0.3312,-9.768826E-05,4.968,0
0.3321,0.0002077974,4.9815,0,0.3321,-0.0001386435,4.9815,0
0.333,0.0001782559,4.995,0,0.333,-6.948959E-05,4.995,0
0.3339,4.095522E-05,5.0085,0,0.3339,-1.812772E-05,5.0085,0
0.3348,-2.047761E-05,5.022,0,0.3348,-4.49836E-05,5.022,0
0.3357,-5.270466E-05,5.0355,0,0.3357,-1.611353E-05,5.0355,0
0.3366,-0.000136965,5.049,0,0.3366,3.692683E-05,5.049,0
0.3375,-0.0001443503,5.0625,0,0.3375,-7.049668E-06,5.0625,0
0.3384,-0.0001319295,5.076,0,0.3384,-2.383459E-05,5.076,0
0.3393,-7.217517E-05,5.0895,0,0.3393,-2.316319E-05,5.0895,0
0.3402,-2.081331E-05,5.103,0,0.3402,1.745632E-05,5.103,0
0.3411,-3.323415E-05,5.1165,0,0.3411,-3.323415E-05,5.1165,0
0.342,-3.289845E-05,5.13,0,0.342,-8.761731E-05,5.13,0
0.3429,1.376364E-05,5.1435,0,0.3429,-9.231708E-05,5.1435,0
0.3438,1.342794E-06,5.157,0,0.3438,-3.860533E-05,5.157,0
0.3447,-1.779202E-05,5.1705,0,0.3447,2.047761E-05,5.1705,0
0.3456,-3.692683E-06,5.184,0,0.3456,5.673304E-05,5.184,0
0.3465,-1.275654E-05,5.1975,0,0.3465,6.042573E-05,5.1975,0
0.3474,1.040665E-05,5.211,0,0.3474,3.524834E-05,5.211,0
0.3483,1.242084E-05,5.2245,0,0.3483,-3.692683E-06,5.2245,0
0.3492,-1.678492E-06,5.238,0,0.3492,-1.443504E-05,5.238,0
0.3501,3.860533E-05,5.2515,0,0.3501,-1.242084E-05,5.2515,0
0.351,3.390555E-05,5.265,0,0.351,-4.33051E-05,5.265,0
0.3519,0,5.2785,0,0.3519,-4.599069E-05,5.2785,0
0.3528,1.846342E-05,5.292,0,0.3528,-7.351797E-05,5.292,0
0.3537,1.174945E-05,5.3055,0,0.3537,-2.920577E-05,5.3055,0
0.3546,-6.042573E-06,5.319,0,0.3546,-4.49836E-05,5.319,0
0.3555,3.121996E-05,5.3325,0,0.3555,-0.0001262226,5.3325,0
0.3564,0.0001245441,5.346,0,0.3564,-0.000154757,5.346,0
0.3573,0.0001178302,5.3595,0,0.3573,-0.0001524071,5.3595,0
0.3582,0.0001000381,5.373,0,0.3582,-9.768826E-05,5.373,0
0.3591,2.047761E-05,5.3865,0,0.3591,-9.735256E-06,5.3865,0
0.36,-4.263371E-05,5.4,0,0.36,0.0001044022,5.4,0
0.3609,-8.023193E-05,5.4135,0,0.3609,6.076142E-05,5.4135,0
0.3618,-0.0001473716,5.427,0,0.3618,9.063859E-06,5.427,0
0.3627,-0.0001839628,5.4405,0,0.3627,2.584878E-05,5.4405,0
0.3636,-0.0001238727,5.454,0,0.3636,6.54612E-05,5.454,0
0.3645,-7.116808E-05,5.4675,0,0.3645,9.936675E-05,5.4675,0
0.3654,-9.735256E-06,5.481,0,0.3654,0.0001111162,5.481,0
0.3663,-6.713969E-07,5.4945,0,0.3663,3.692683E-05,5.4945,0
0.3672,-6.042573E-06,5.508,0,0.3672,1.477073E-05,5.508,0
0.3681,-1.577783E-05,5.5215,0,0.3681,1.409934E-05,5.5215,0
0.369,5.706874E-06,5.535,0,0.369,-3.054856E-05,5.535,0
0.3699,1.779202E-05,5.5485,0,0.3699,-6.74754E-05,5.5485,0
0.3708,1.577783E-05,5.562,0,0.3708,-3.994812E-05,5.562,0
0.3717,-4.36408E-06,5.5755,0,0.3717,-4.36408E-05,5.5755,0
0.3726,7.049668E-06,5.589,0,0.3726,-7.821774E-05,5.589,0
0.3735,1.443504E-05,5.6025,0,0.3735,-2.752728E-05,5.6025,0
0.3744,4.53193E-05,5.616,0,0.3744,-2.18204E-05,5.616,0
0.3753,8.224613E-05,5.6295,0,0.3753,-7.016098E-05,5.6295,0
0.3762,1.980621E-05,5.643,0,0.3762,-6.210422E-05,5.643,0
0.3771,2.081331E-05,5.6565,0,0.3771,-2.786297E-05,5.6565,0
0.378,-7.049668E-06,5.67,0,0.378,-1.007095E-05,5.67,0
0.3789,-0.0001748989,5.6835,0,0.3789,-4.43122E-05,5.6835,0
0.3798,-0.000109102,5.697,0,0.3798,-6.61326E-05,5.697,0
0.3807,1.174945E-05,5.7105,0,0.3807,-3.726253E-05,5.7105,0
0.3816,6.64683E-05,5.724,0,0.3816,-2.383459E-05,5.724,0
0.3825,0.0002104829,5.7375,0,0.3825,-0.0001111162,5.7375,0
0.3834,0.000161471,5.751,0,0.3834,-0.0002568093,5.751,0
0.3843,6.143282E-05,5.7645,0,0.3843,-0.0002141756,5.7645,0
0.3852,1.074235E-05,5.778,0,0.3852,-0.0001393149,5.778,0
0.3861,-5.807584E-05,5.7915,0,0.3861,-0.0001027237,5.7915,0
0.387,-9.097429E-05,5.805,0,0.387,0.0001762417,5.805,0
0.3879,-0.0001117876,5.8185,0,0.3879,0.0004092164,5.8185,0
0.3888,5.673304E-05,5.832,0,0.3888,0.0003699397,5.832,0
0.3897,0.0002252537,5.8455,0,0.3897,0.0002128328,5.8455,0
0.3906,9.735256E-06,5.859,0,0.3906,9.634547E-05,5.859,0
0.3915,-0.0003088426,5.8725,0,0.3915,2.584878E-05,5.8725,0
0.3924,-0.0003575189,5.886,0,0.3924,-2.383459E-05,5.886,0
0.3933,-0.000185977,5.8995,0,0.3933,-4.43122E-05,5.8995,0
0.3942,-0.0001037308,5.913,0,0.3942,-2.18204E-05,5.913,0
0.3951,-7.016098E-05,5.9265,0,0.3951,-9.735256E-06,5.9265,0
0.396,-4.196231E-05,5.94,0,0.396,-1.980621E-05,5.94,0
0.3969,-5.706874E-06,5.9535,0,0.3969,-5.639734E-05,5.9535,0
0.3978,-2.887007E-05,5.967,0,0.3978,-4.263371E-05,5.967,0
0.3987,3.021286E-06,5.9805,0,0.3987,-7.620356E-05,5.9805,0
0.3996,5.807584E-05,5.994,0,0.3996,-0.0001883268,5.994,0
0.4005,-9.500267E-05,6.0075,0,0.4005,-0.0002138399,6.0075,0
0.4014,-0.0001104448,6.021,0,0.4014,-0.0001631495,6.021,0
0.4023,5.337606E-05,6.0345,0,0.4023,-0.0001312581,6.0345,0
0.4032,0.0001064164,6.048,0,0.4032,-5.471885E-05,6.048,0
0.4041,-1.040665E-05,6.0615,0,0.4041,8.325322E-05,6.0615,0
0.405,3.591974E-05,6.075,0,0.405,0.000144686,6.075,0
0.4059,5.404745E-05,6.0885,0,0.4059,8.761731E-05,6.0885,0
0.4068,1.712062E-05,6.102,0,0.4068,-6.042573E-06,6.102,0
0.4077,9.466698E-05,6.1155,0,0.4077,7.721065E-06,6.1155,0
0.4086,0.000246067,6.129,0,0.4086,2.618448E-05,6.129,0
0.4095,0.0001762417,6.1425,0,0.4095,-4.43122E-05,6.1425,0
0.4104,1.577783E-05,6.156,0,0.4104,-0.0001420005,6.156,0
0.4113,-6.6804E-05,6.1695,0,0.4113,-0.0002531167,6.1695,0
0.4122,-3.256275E-05,6.183,0,0.4122,-0.0002628519,6.183,0
0.4131,-3.659113E-05,6.1965,0,0.4131,-0.0002098116,6.1965,0
0.414,-6.344701E-05,6.21,0,0.414,-5.941863E-05,6.21,0
0.4149,-2.853437E-05,6.2235,0,0.4149,7.318227E-05,6.2235,0
0.4158,-1.678492E-06,6.237,0,0.4158,0.000186984,6.237,0
0.4167,5.404745E-05,6.2505,0,0.4167,0.0001433432,6.2505,0
0.4176,0.000148043,6.264,0,0.4176,0.0001054093,6.264,0
0.4185,0.0002010834,6.2775,0,0.4185,7.486076E-05,6.2775,0
0.4194,0.000115816,6.291,0,0.4194,1.846342E-05,6.291,0
0.4203,1.040665E-05,6.3045,0,0.4203,2.349889E-05,6.3045,0
0.4212,-1.040665E-05,6.318,0,0.4212,5.807584E-05,6.318,0
0.4221,-0.0001785916,6.3315,0,0.4221,4.196231E-05,6.3315,0
0.423,-0.000407538,6.345,0,0.423,3.356985E-06,6.345,0
0.4239,-0.0002608377,6.3585,0,0.4239,4.699779E-06,6.3585,0
0.4248,-5.471885E-05,6.372,0,0.4248,1.510643E-05,6.372,0
0.4257,1.376364E-05,6.3855,0,0.4257,-2.24918E-05,6.3855,0
0.4266,4.867628E-05,6.399,0,0.4266,-6.54612E-05,6.399,0
0.4275,3.659113E-05,6.4125,0,0.4275,-3.994812E-05,6.4125,0
0.4284,3.591974E-05,6.426,0,0.4284,-7.821774E-05,6.426,0
0.4293,4.599069E-05,6.4395,0,0.4293,-0.0001430075,6.4395,0
0.4302,-1.342794E-05,6.453,0,0.4302,-0.0001930266,6.453,0
0.4311,-1.779202E-05,6.4665,0,0.4311,-0.0001745632,6.4665,0
0.432,-2.853437E-05,6.48,0,0.432,-0.0001299153,6.48,0
0.4329,-5.136187E-05,6.4935,0,0.4329,-7.922484E-05,6.4935,0
0.4338,-3.692683E-05,6.507,0,0.4338,2.987716E-05,6.507,0
0.4347,2.047761E-05,6.5205,0,0.4347,0.0001500572,6.5205,0
0.4356,1.309224E-05,6.534,0,0.4356,0.000190341,6.534,0
0.4365,-1.644922E-05,6.5475,0,0.4365,7.687495E-05,6.5475,0
0.4374,0.000112459,6.561,0,0.4374,0,6.561,0
0.4383,0.000186984,6.5745,0,0.4383,9.399558E-06,6.5745,0
0.4392,2.1149E-05,6.588,0,0.4392,-2.316319E-05,6.588,0
0.4401,-8.123904E-05,6.6015,0,0.4401,-6.210422E-05,6.6015,0
0.441,-9.097429E-05,6.615,0,0.441,-6.042573E-06,6.615,0
0.4419,-6.210422E-05,6.6285,0,0.4419,-9.735256E-06,6.6285,0
0.4428,-1.409934E-05,6.642,0,0.4428,-4.800488E-05,6.642,0
0.4437,0.0001453574,6.6555,0,0.4437,-3.390555E-05,6.6555,0
0.4446,8.560311E-05,6.669,0,0.4446,-3.692683E-05,6.669,0
0.4455,-7.385367E-06,6.6825,0,0.4455,-9.668116E-05,6.6825,0
0.4464,-5.572595E-05,6.696,0,0.4464,-0.0001779202,6.696,0
0.4473,-0.0001319295,6.7095,0,0.4473,-0.0002541238,6.7095,0
0.4482,-0.0001493858,6.723,0,0.4482,-0.000193698,6.723,0
0.4491,-7.016098E-05,6.7365,0,0.4491,-3.155566E-05,6.7365,0
0.45,-1.107805E-05,6.75,0,0.45,0.0001178302,6.75,0
0.4509,3.491264E-05,6.7635,0,0.4509,0.0001618067,6.7635,0
0.4518,4.733349E-05,6.777,0,0.4518,0.0001930266,6.777,0
0.4527,7.351797E-05,6.7905,0,0.4527,0.0001430075,6.7905,0
0.4536,3.994812E-05,6.804,0,0.4536,3.256275E-05,6.804,0
0.4545,2.853437E-05,6.8175,0,0.4545,2.551309E-05,6.8175,0
0.4554,4.666209E-05,6.831,0,0.4554,-4.39765E-05,6.831,0
0.4563,-7.553216E-05,6.8445,0,0.4563,-0.0001601282,6.8445,0
0.4572,-0.0001373007,6.858,0,0.4572,-0.0002232395,6.858,0
0.4581,-5.706874E-06,6.8715,0,0.4581,-0.0001198444,6.8715,0
0.459,-4.599069E-05,6.885,0,0.459,-0.0001373007,6.885,0
0.4599,-1.007095E-06,6.8985,0,0.4599,-0.0001114519,6.8985,0
0.4608,1.846342E-05,6.912,0,0.4608,-6.277562E-05,6.912,0
0.4617,-7.452507E-05,6.9255,0,0.4617,5.807584E-05,6.9255,0
0.4626,-2.18204E-05,6.939,0,0.4626,0.0001205158,6.939,0
0.4635,8.560311E-05,6.9525,0,0.4635,0.0001188373,6.9525,0
0.4644,8.123904E-05,6.966,0,0.4644,0.0001789273,6.966,0
0.4653,8.224613E-05,6.9795,0,0.4653,0.0001524071,6.9795,0
0.4662,0.0001070878,6.993,0,0.4662,0.0001577783,6.993,0
0.4671,-7.284657E-05,7.0065,0,0.4671,0.0001416648,7.0065,0
0.468,-0.0001947051,7.02,0,0.468,6.64683E-05,7.02,0
0.4689,-4.599069E-05,7.0335,0,0.4689,-2.685588E-05,7.0335,0
0.4698,1.275654E-05,7.047,0,0.4698,-8.82887E-05,7.047,0
0.4707,-3.894102E-05,7.0605,0,0.4707,-0.0001279011,7.0605,0
0.4716,1.846342E-05,7.074,0,0.4716,-7.553216E-05,7.074,0
0.4725,0.0001305867,7.0875,0,0.4725,-5.740444E-05,7.0875,0
0.4734,0.0001638209,7.101,0,0.4734,-1.409934E-05,7.101,0
0.4743,0.0001436789,7.1145,0,0.4743,1.678492E-06,7.1145,0
0.4752,3.323415E-05,7.128,0,0.4752,3.726253E-05,7.128,0
0.4761,-8.69459E-05,7.1415,0,0.4761,3.491264E-05,7.1415,0
0.477,-0.0001497215,7.155,0,0.477,-4.129091E-05,7.155,0
0.4779,-9.433127E-05,7.1685,0,0.4779,-7.452507E-05,7.1685,0
0.4788,-0.0001775845,7.182,0,0.4788,-6.478981E-05,7.182,0
0.4797,-9.768826E-05,7.1955,0,0.4797,-9.735256E-05,7.1955,0
0.4806,-5.706874E-06,7.209,0,0.4806,-0.0001701991,7.209,0
0.4815,3.961242E-05,7.2225,0,0.4815,-0.000148043,7.2225,0
0.4824,8.560311E-05,7.236,0,0.4824,-8.560311E-05,7.236,0
0.4833,-1.309224E-05,7.2495,0,0.4833,-7.284657E-05,7.2495,0
0.4842,5.337606E-05,7.263,0,0.4842,-2.618448E-05,7.263,0
0.4851,8.426032E-05,7.2765,0,0.4851,4.263371E-05,7.2765,0
0.486,-1.947051E-05,7.29,0,0.486,-1.040665E-05,7.29,0
0.4869,-9.936675E-05,7.3035,0,0.4869,-1.443504E-05,7.3035,0
0.4878,4.33051E-05,7.317,0,0.4878,6.009003E-05,7.317,0
0.4887,-1.141375E-05,7.3305,0,0.4887,0.000140322,7.3305,0
0.4896,-0.0002030976,7.344,0,0.4896,0.0001188373,7.344,0
0.4905,-0.0001910124,7.3575,0,0.4905,3.927672E-05,7.3575,0
0.4914,1.477073E-05,7.371,0,0.4914,-4.229801E-05,7.371,0
0.4923,9.030289E-05,7.3845,0,0.4923,-2.383459E-05,7.3845,0
0.4932,9.903105E-05,7.398,0,0.4932,-5.270466E-05,7.398,0
0.4941,3.289845E-05,7.4115,0,0.4941,-0.0001279011,7.4115,0
0.495,4.901198E-05,7.425,0,0.495,-0.0001218585,7.425,0
0.4959,9.164568E-05,7.4385,0,0.4959,-8.661021E-05,7.4385,0
0.4968,-8.627451E-05,7.452,0,0.4968,-0.0001121233,7.452,0
0.4977,-0.0001319295,7.4655,0,0.4977,-6.881819E-05,7.4655,0
0.4986,-0.000185977,7.479,0,0.4986,-3.692683E-05,7.479,0
0.4995,-4.699779E-05,7.4925,0,0.4995,-9.063859E-06,7.4925,0
0.5004,-4.934768E-05,7.506,0,0.5004,-0.0001020523,7.506,0
0.5013,-6.78111E-05,7.5195,0,0.5013,-0.0002608377,7.5195,0
0.5022,8.426032E-05,7.533,0,0.5022,-0.000281651,7.533,0
0.5031,0.0001950408,7.5465,0,0.5031,-0.0002047761,7.5465,0
0.504,3.289845E-05,7.56,0,0.504,-6.277562E-05,7.56,0
0.5049,8.358892E-05,7.5735,0,0.5049,0.0001279011,7.5735,0
0.5058,3.054856E-05,7.587,0,0.5058,0.0002641947,7.587,0
0.5067,-0.0001339437,7.6005,0,0.5067,0.0001842985,7.6005,0
0.5076,-3.524834E-05,7.614,0,0.5076,0.0002265965,7.614,0
0.5085,-4.095522E-05,7.6275,0,0.5085,0.0002192111,7.6275,0
0.5094,-5.203327E-05,7.641,0,0.5094,0.0001695277,7.641,0
0.5103,-0.0001279011,7.6545,0,0.5103,0.0001258869,7.6545,0
0.5112,-9.433127E-05,7.668,0,0.5112,7.183947E-05,7.668,0
0.5121,-8.560311E-05,7.6815,0,0.5121,6.74754E-05,7.6815,0
0.513,-4.46479E-05,7.695,0,0.513,3.390555E-05,7.695,0
0.5139,6.243992E-05,7.7085,0,0.5139,-7.049668E-06,7.7085,0
0.5148,8.023193E-05,7.722,0,0.5148,-6.881819E-05,7.722,0
0.5157,5.740444E-05,7.7355,0,0.5157,-9.433127E-05,7.7355,0
0.5166,4.43122E-05,7.749,0,0.5166,-0.0001346151,7.749,0
0.5175,-1.510643E-05,7.7625,0,0.5175,-0.0001809415,7.7625,0
0.5184,-6.009003E-05,7.776,0,0.5184,-0.0002168612,7.776,0
0.5193,-4.49836E-05,7.7895,0,0.5193,-0.0001514,7.7895,0
0.5202,8.392462E-06,7.803,0,0.5202,-0.0001413291,7.803,0
0.5211,4.263371E-05,7.8165,0,0.5211,-0.0001775845,7.8165,0
0.522,9.835965E-05,7.83,0,0.522,-0.0001232013,7.83,0
0.5229,6.6804E-05,7.8435,0,0.5229,-4.263371E-05,7.8435,0
0.5238,-2.18204E-05,7.857,0,0.5238,-6.713969E-07,7.857,0
0.5247,-4.46479E-05,7.8705,0,0.5247,1.040665E-05,7.8705,0
0.5256,-5.337606E-05,7.884,0,0.5256,7.150377E-05,7.884,0
0.5265,3.726253E-05,7.8975,0,0.5265,0.0001873197,7.8975,0
0.5274,9.500267E-05,7.911,0,0.5274,0.0002423743,7.911,0
0.5283,2.584878E-05,7.9245,0,0.5283,9.768826E-05,7.9245,0
0.5292,-5.136187E-05,7.938,0,0.5292,1.242084E-05,7.938,0
0.5301,-2.652018E-05,7.9515,0,0.5301,-3.189136E-05,7.9515,0
0.531,1.846342E-05,7.965,0,0.531,-5.371176E-05,7.965,0
0.5319,4.599069E-05,7.9785,0,0.5319,-5.941863E-05,7.9785,0
0.5328,7.083238E-05,7.992,0,0.5328,3.356985E-06,7.992,0
0.5337,0.0001963836,8.0055,0,0.5337,-1.007095E-06,8.0055,0
0.5346,0.0003756466,8.019,0,0.5346,-9.835965E-05,8.019,0
0.5355,0.0003555047,8.0325,0,0.5355,-5.975433E-05,8.0325,0
0.5364,0.0001252155,8.046,0,0.5364,-5.706874E-05,8.046,0
0.5373,-3.591974E-05,8.0595,0,0.5373,-0.0001265583,8.0595,0
0.5382,-0.0002262608,8.073,0,0.5382,-0.000224918,8.073,0
0.5391,-0.0004662852,8.0865,0,0.5391,-0.000322942,8.0865,0
0.54,-0.0003313344,8.1,0,0.54,-0.0003236133,8.1,0
0.5409,-0.0001967193,8.1135,0,0.5409,-0.0002450599,8.1135,0
0.5418,-0.000197055,8.127,0,0.5418,-0.0001161517,8.127,0
0.5427,-7.183947E-05,8.1405,0,0.5427,0.0001185016,8.1405,0
0.5436,-6.61326E-05,8.154,0,0.5436,0.0003924315,8.154,0
0.5445,-3.826963E-05,8.1675,0,0.5445,0.0005173113,8.1675,0
0.5454,2.887007E-05,8.181,0,0.5454,0.0003380484,8.181,0
0.5463,-1.644922E-05,8.1945,0,0.5463,0.0001641566,8.1945,0
0.5472,1.846342E-05,8.208,0,0.5472,7.888914E-05,8.208,0
0.5481,0.0001654994,8.2215,0,0.5481,-2.987716E-05,8.2215,0
0.549,0.0003105211,8.235,0,0.549,-6.881819E-05,8.235,0
0.5499,0.0003806821,8.2485,0,0.5499,-0.0001279011,8.2485,0
0.5508,0.0001926909,8.262,0,0.5508,-0.0001900053,8.262,0
0.5517,-5.706874E-06,8.2755,0,0.5517,-0.0002618448,8.2755,0
0.5526,-0.0002803082,8.289,0,0.5526,-0.0001453574,8.289,0
0.5535,-0.0003873961,8.3025,0,0.5535,-3.356985E-05,8.3025,0
0.5544,-0.0003897459,8.316,0,0.5544,-6.378271E-06,8.316,0
0.5553,-0.0003074998,8.3295,0,0.5553,1.879912E-05,8.3295,0
0.5562,-7.351797E-05,8.343,0,0.5562,0.000200412,8.343,0
0.5571,-3.524834E-05,8.3565,0,0.5571,0.0002903792,8.3565,0
0.558,-1.577783E-05,8.37,0,0.558,0.0001228656,8.37,0
0.5589,5.740444E-05,8.3835,0,0.5589,-5.706874E-06,8.3835,0
0.5598,9.903105E-05,8.397,0,0.5598,2.316319E-05,8.397,0
0.5607,0.0001151446,8.4105,0,0.5607,7.721065E-06,8.4105,0
0.5616,5.706874E-05,8.424,0,0.5616,-0.0001013809,8.424,0
0.5625,-2.18204E-05,8.4375,0,0.5625,-7.989624E-05,8.4375,0
0.5634,5.673304E-05,8.451,0,0.5634,-8.157473E-05,8.451,0
0.5643,6.277562E-05,8.4645,0,0.5643,-0.0001443503,8.4645,0
0.5652,-8.392462E-06,8.478,0,0.5652,-0.000246067,8.478,0
0.5661,-3.994812E-05,8.4915,0,0.5661,-0.0002074617,8.4915,0
0.567,-1.510643E-05,8.505,0,0.567,-0.0001346151,8.505,0
0.5679,-1.745632E-05,8.5185,0,0.5679,-0.0001339437,8.5185,0
0.5688,2.28275E-05,8.532,0,0.5688,-6.948959E-05,8.532,0
0.5697,0.0001138018,8.5455,0,0.5697,3.692683E-05,8.5455,0
0.5706,7.049668E-05,8.559,0,0.5706,0.0001373007,8.559,0
0.5715,2.349889E-05,8.5725,0,0.5715,0.0001208515,8.5725,0
0.5724,4.901198E-05,8.586,0,0.5724,4.599069E-05,8.586,0
0.5733,4.46479E-05,8.5995,0,0.5733,9.063859E-05,8.5995,0
0.5742,7.049668E-06,8.613,0,0.5742,7.284657E-05,8.613,0
0.5751,1.812772E-05,8.6265,0,0.5751,1.309224E-05,8.6265,0
0.576,2.987716E-05,8.64,0,0.576,2.014191E-05,8.64,0
0.5769,-9.835965E-05,8.6535,0,0.5769,1.007095E-06,8.6535,0
0.5778,-0.0001305867,8.667,0,0.5778,-5.203327E-05,8.667,0
0.5787,-0.0001077592,8.6805,0,0.5787,-0.000105745,8.6805,0
0.5796,2.349889E-06,8.694,0,0.5796,-0.0002208896,8.694,0
0.5805,0.0001728847,8.7075,0,0.5805,-0.0002967575,8.7075,0
0.5814,0.0003588617,8.721,0,0.5814,-0.0002336461,8.721,0
0.5823,0.0003246204,8.7345,0,0.5823,-0.0001624781,8.7345,0
0.5832,0.0001769131,8.748,0,0.5832,1.577783E-05,8.748,0
0.5841,5.874724E-05,8.7615,0,0.5841,0.0001715419,8.7615,0
0.585,-0.000172549,8.775,0,0.585,0.0002608377,8.775,0
0.5859,-0.0003447623,8.7885,0,0.5859,0.0002286107,8.7885,0
0.5868,-0.0002289464,8.802,0,0.5868,0.0001520714,8.802,0
0.5877,-0.0002356603,8.8155,0,0.5877,3.021286E-05,8.8155,0
0.5886,-0.0001399863,8.829,0,0.5886,-1.443504E-05,8.829,0
0.5895,-0.0001097734,8.8425,0,0.5895,5.706874E-05,8.8425,0
0.5904,-0.0001738918,8.856,0,0.5904,1.309224E-05,8.856,0
0.5913,-7.821774E-05,8.8695,0,0.5913,-6.6804E-05,8.8695,0
0.5922,-3.894102E-05,8.883,0,0.5922,-6.243992E-05,8.883,0
0.5931,-4.129091E-05,8.8965,0,0.5931,-7.049668E-05,8.8965,0
0.594,0,8.91,0,0.594,-0.0001816129,8.91,0
0.5949,1.712062E-05,8.9235,0,0.5949,-0.0001876554,8.9235,0
0.5958,1.040665E-05,8.937,0,0.5958,-0.0001540856,8.937,0
0.5967,1.510643E-05,8.9505,0,0.5967,-4.733349E-05,8.9505,0
0.5976,-1.678492E-06,8.964,0,0.5976,6.478981E-05,8.964,0
0.5985,1.242084E-05,8.9775,0,0.5985,9.567407E-05,8.9775,0
0.5994,0.0001138018,8.991,0,0.5994,-3.256275E-05,8.991,0
0.6003,0.0002198825,9.0045,0,0.6003,-2.450599E-05,9.0045,0
0.6012,0.0003266346,9.018,0,0.6012,1.477073E-05,9.018,0
0.6021,0.0002517739,9.0315,0,0.6021,-9.735256E-06,9.0315,0
0.603,-1.107805E-05,9.045,0,0.603,-2.819867E-05,9.045,0
0.6039,-0.0001587854,9.0585,0,0.6039,-8.627451E-05,9.0585,0
0.6048,-0.0002091402,9.072001,0,0.6048,-0.0002212253,9.072001,0
0.6057,-0.0002272679,9.0855,0,0.6057,-0.0002521096,9.0855,0
0.6066,-4.968337E-05,9.099,0,0.6066,-0.0001413291,9.099,0
0.6075,0.000105745,9.1125,0,0.6075,-0.0001440146,9.1125,0
0.6084,0.0001698634,9.126,0,0.6084,-0.0001745632,9.126,0
0.6093,9.903105E-05,9.1395,0,0.6093,-9.802396E-05,9.1395,0
0.6102,9.063859E-06,9.153,0,0.6102,5.505455E-05,9.153,0
0.6111,-0.0001624781,9.1665,0,0.6111,0.0002020905,9.1665,0
0.612,-0.0001319295,9.18,0,0.612,0.0002373388,9.18,0
0.6129,2.484169E-05,9.1935,0,0.6129,0.0003675898,9.1935,0
0.6138,-0.000136965,9.207,0,0.6138,0.0004125734,9.207,0
0.6147,-0.0001443503,9.2205,0,0.6147,0.0001785916,9.2205,0
0.6156,-8.795301E-05,9.234,0,0.6156,3.994812E-05,9.234,0
0.6165,-7.486076E-05,9.2475,0,0.6165,0,9.2475,0
0.6174,-2.316319E-05,9.261,0,0.6174,-9.600977E-05,9.261,0
0.6183,2.349889E-06,9.2745,0,0.6183,-0.0002047761,9.2745,0
0.6192,-3.356985E-07,9.288,0,0.6192,-0.0002319677,9.288,0
0.6201,9.567407E-05,9.3015,0,0.6201,-0.0001520714,9.3015,0
0.621,0.0003487907,9.315,0,0.621,-7.821774E-05,9.315,0
0.6219,0.0004434577,9.3285,0,0.6219,-6.54612E-05,9.3285,0
0.6228,0.0002027619,9.342,0,0.6228,-1.376364E-05,9.342,0
0.6237,-4.162661E-05,9.3555,0,0.6237,-2.24918E-05,9.3555,0
0.6246,-0.0002312963,9.369,0,0.6246,5.035477E-05,9.369,0
0.6255,-0.0003635614,9.3825,0,0.6255,0.0001161517,9.3825,0
0.6264,-0.0002829938,9.396,0,0.6264,7.418937E-05,9.396,0
0.6273,-8.123904E-05,9.4095,0,0.6273,0.0001017166,9.4095,0
0.6282,-2.316319E-05,9.423,0,0.6282,2.887007E-05,9.423,0
0.6291,6.881819E-05,9.4365,0,0.6291,-3.558404E-05,9.4365,0
0.63,9.298848E-05,9.45,0,0.63,-1.947051E-05,9.45,0
0.6309,9.768826E-05,9.4635,0,0.6309,1.007095E-06,9.4635,0
0.6318,3.659113E-05,9.477,0,0.6318,-8.392462E-05,9.477,0
0.6327,-8.426032E-05,9.4905,0,0.6327,-8.526741E-05,9.4905,0
0.6336,-1.879912E-05,9.504,0,0.6336,-4.39765E-05,9.504,0
0.6345,-4.800488E-05,9.5175,0,0.6345,-4.129091E-05,9.5175,0
0.6354,-3.793393E-05,9.531,0,0.6354,-2.21561E-05,9.531,0
0.6363,0.0001094377,9.5445,0,0.6363,-2.349889E-06,9.5445,0
0.6372,0.0001017166,9.558,0,0.6372,-9.164568E-05,9.558,0
0.6381,2.618448E-05,9.5715,0,0.6381,-0.0002339818,9.5715,0
0.639,-0.0001050736,9.585,0,0.639,-0.0002997787,9.585,0
0.6399,-0.0002091402,9.5985,0,0.6399,-0.0002762798,9.5985,0
0.6408,-0.0001171588,9.612,0,0.6408,-9.634547E-05,9.612,0
0.6417,-7.217517E-05,9.6255,0,0.6417,8.96315E-05,9.6255,0
0.6426,-6.51255E-05,9.639,0,0.6426,0.0001715419,9.639,0
0.6435,-6.478981E-05,9.6525,0,0.6435,0.0001537499,9.6525,0
0.6444,-8.056763E-06,9.666,0,0.6444,0.0001708705,9.666,0
0.6453,4.36408E-05,9.6795,0,0.6453,9.869535E-05,9.6795,0
0.6462,6.076142E-05,9.693,0,0.6462,4.263371E-05,9.693,0
0.6471,5.270466E-05,9.7065,0,0.6471,6.378271E-05,9.7065,0
0.648,0.0001413291,9.72,0,0.648,2.752728E-05,9.72,0
0.6489,0.0002373388,9.7335,0,0.6489,-7.687495E-05,9.7335,0
0.6498,0.0002625162,9.747,0,0.6498,-0.000179263,9.747,0
0.6507,0.0001681849,9.7605,0,0.6507,-0.0002920577,9.7605,0
0.6516,8.358892E-05,9.774,0,0.6516,-0.0003508049,9.774,0
0.6525,0.0001211871,9.7875,0,0.6525,-0.0003038071,9.7875,0
0.6534,-0.000119173,9.801,0,0.6534,-0.0001201801,9.801,0
0.6543,-0.0001117876,9.8145,0,0.6543,0.0002108186,9.8145,0
0.6552,-6.478981E-05,9.828,0,0.6552,0.0003467765,9.828,0
0.6561,-0.0002088045,9.8415,0,0.6561,0.0003521477,9.8415,0
0.657,-0.0002967575,9.855,0,0.657,0.0002977645,9.855,0
0.6579,-0.000164828,9.8685,0,0.6579,0.0001299153,9.8685,0
0.6588,-6.881819E-05,9.882,0,0.6588,1.141375E-05,9.882,0
0.6597,3.121996E-05,9.8955,0,0.6597,2.685588E-06,9.8955,0
0.6606,0.0001809415,9.909,0,0.6606,2.18204E-05,9.909,0
0.6615,9.231708E-05,9.9225,0,0.6615,-2.014191E-05,9.9225,0
0.6624,-0.0002010834,9.936,0,0.6624,-6.61326E-05,9.936,0
0.6633,-0.000136965,9.9495,0,0.6633,-0.0001242084,9.9495,0
0.6642,-3.356985E-06,9.963,0,0.6642,-0.0001920195,9.963,0
0.6651,-7.217517E-05,9.976501,0,0.6651,-0.0003400626,9.976501,0
0.666,-0.0001597925,9.99,0,0.666,-0.0003857175,9.99,0
0.6669,9.500267E-05,10.0035,0,0.6669,-0.0002863508,10.0035,0
0.6678,-6.378271E-06,10.017,0,0.6678,-0.0001332723,10.017,0
0.6687,-0.0002319677,10.0305,0,0.6687,4.867628E-05,10.0305,0
0.6696,-0.0001409934,10.044,0,0.6696,0.0001876554,10.044,0
0.6705,-1.107805E-05,10.0575,0,0.6705,0.000274937,10.0575,0
0.6714,4.39765E-05,10.071,0,0.6714,0.0002588235,10.071,0
0.6723,3.189136E-05,10.0845,0,0.6723,0.0002088045,10.0845,0
0.6732,3.054856E-05,10.098,0,0.6732,0.0001171588,10.098,0
0.6741,-8.761731E-05,10.1115,0,0.6741,0.0001070878,10.1115,0
0.675,-0.000102388,10.125,0,0.675,7.821774E-05,10.125,0
0.6759,-3.625543E-05,10.1385,0,0.6759,2.954147E-05,10.1385,0
0.6768,7.586786E-05,10.152,0,0.6768,-2.517739E-05,10.152,0
0.6777,8.358892E-05,10.1655,0,0.6777,-2.652018E-05,10.1655,0
0.6786,1.980621E-05,10.179,0,0.6786,-5.236896E-05,10.179,0
0.6795,1.342794E-06,10.1925,0,0.6795,-7.150377E-05,10.1925,0
0.6804,3.356985E-05,10.206,0,0.6804,-8.627451E-05,10.206,0
0.6813,-3.121996E-05,10.2195,0,0.6813,-5.069047E-05,10.2195,0
0.6822,-1.242084E-05,10.233,0,0.6822,-7.284657E-05,10.233,0
0.6831,8.426032E-05,10.2465,0,0.6831,-0.0001426719,10.2465,0
0.684,0.0001379721,10.26,0,0.684,-9.130999E-05,10.26,0
0.6849,9.903105E-05,10.2735,0,0.6849,-8.69459E-05,10.2735,0
0.6858,2.1149E-05,10.287,0,0.6858,-7.956054E-05,10.287,0
0.6867,3.625543E-05,10.3005,0,0.6867,-6.478981E-05,10.3005,0
0.6876,2.349889E-06,10.314,0,0.6876,-2.349889E-05,10.314,0
0.6885,-1.812772E-05,10.3275,0,0.6885,-9.802396E-05,10.3275,0
0.6894,9.063859E-06,10.341,0,0.6894,-0.0002151827,10.341,0
0.6903,5.975433E-05,10.3545,0,0.6903,-0.0002145113,10.3545,0
0.6912,3.591974E-05,10.368,0,0.6912,-0.0001044022,10.368,0
0.6921,0.0001104448,10.3815,0,0.6921,3.793393E-05,10.3815,0
0.693,0.0002192111,10.395,0,0.693,0.0001540856,10.395,0
0.6939,1.174945E-05,10.4085,0,0.6939,0.0001701991,10.4085,0
0.6948,-0.0002675517,10.422,0,0.6948,9.600977E-05,10.422,0
0.6957,-4.599069E-05,10.4355,0,0.6957,7.016098E-05,10.4355,0
0.6966,5.035477E-06,10.449,0,0.6966,-1.275654E-05,10.449,0
0.6975,5.572595E-05,10.4625,0,0.6975,-3.793393E-05,10.4625,0
0.6984,0.0002279393,10.476,0,0.6984,-2.584878E-05,10.476,0
0.6993,0.0002165255,10.4895,0,0.6993,-5.807584E-05,10.4895,0
0.7002,0.0001483787,10.503,0,0.7002,-6.478981E-05,10.503,0
0.7011,0.0003165637,10.5165,0,0.7011,-3.491264E-05,10.5165,0
0.702,0.0001785916,10.53,0,0.702,-8.526741E-05,10.53,0
0.7029,-0.0001940337,10.5435,0,0.7029,-6.009003E-05,10.5435,0
0.7038,-0.0002863508,10.557,0,0.7038,-5.505455E-05,10.557,0
0.7047,-0.0002591592,10.5705,0,0.7047,-6.344701E-05,10.5705,0
0.7056,-0.0003011215,10.584,0,0.7056,-4.901198E-05,10.584,0
0.7065,-0.0002135042,10.5975,0,0.7065,-2.517739E-05,10.5975,0
0.7074,-0.0001040665,10.611,0,0.7074,-6.713969E-07,10.611,0
0.7083,4.766919E-05,10.6245,0,0.7083,-5.706874E-06,10.6245,0
0.7092,-1.007095E-06,10.638,0,0.7092,-4.46479E-05,10.638,0
0.7101,-9.332418E-05,10.6515,0,0.7101,-3.457694E-05,10.6515,0
0.711,-0.0001198444,10.665,0,0.711,7.217517E-05,10.665,0
0.7119,-0.0002339818,10.6785,0,0.7119,0.0001346151,10.6785,0
0.7128,-0.0001816129,10.692,0,0.7128,3.222705E-05,10.692,0
0.7137,-5.774014E-05,10.7055,0,0.7137,-3.524834E-05,10.7055,0
0.7146,7.754635E-05,10.719,0,0.7146,2.014191E-06,10.719,0
0.7155,6.814679E-05,10.7325,0,0.7155,-0.0001205158,10.7325,0
0.7164,2.349889E-05,10.746,0,0.7164,-0.0002742657,10.746,0
0.7173,-2.24918E-05,10.7595,0,0.7173,-0.0003041428,10.7595,0
0.7182,-6.713969E-07,10.773,0,0.7182,-0.0001383078,10.773,0
0.7191,-4.36408E-06,10.7865,0,0.7191,1.577783E-05,10.7865,0
0.72,0.0001030594,10.8,0,0.72,0.0001524071,10.8,0
0.7209,0.0001500572,10.8135,0,0.7209,0.0002521096,10.8135,0
0.7218,0.0001171588,10.827,0,0.7218,0.0002551308,10.827,0
0.7227,7.217517E-05,10.8405,0,0.7227,6.74754E-05,10.8405,0
0.7236,4.229801E-05,10.854,0,0.7236,-5.136187E-05,10.854,0
0.7245,3.323415E-05,10.8675,0,0.7245,-5.706874E-05,10.8675,0
0.7254,7.183947E-05,10.881,0,0.7254,-2.047761E-05,10.881,0
0.7263,2.450599E-05,10.8945,0,0.7263,2.1149E-05,10.8945,0
0.7272,-4.263371E-05,10.908,0,0.7272,6.57969E-05,10.908,0
0.7281,-0.0002396887,10.9215,0,0.7281,4.934768E-05,10.9215,0
0.729,-0.0002386816,10.935,0,0.729,5.069047E-05,10.935,0
0.7299,-4.599069E-05,10.9485,0,0.7299,6.378271E-06,10.9485,0
0.7308,-5.740444E-05,10.962,0,0.7308,-0.0001117876,10.962,0
0.7317,-3.524834E-05,10.9755,0,0.7317,-8.023193E-05,10.9755,0
0.7326,3.659113E-05,10.989,0,0.7326,-4.229801E-05,10.989,0
0.7335,5.337606E-05,11.0025,0,0.7335,-7.956054E-05,11.0025,0
0.7344,0.000105745,11.016,0,0.7344,-5.807584E-05,11.016,0
0.7353,0.0001440146,11.0295,0,0.7353,0.0001279011,11.0295,0
0.7362,9.097429E-05,11.043,0,0.7362,0.0001087663,11.043,0
0.7371,-4.632639E-05,11.0565,0,0.7371,-5.606165E-05,11.0565,0
0.738,-8.661021E-05,11.07,0,0.738,-4.39765E-05,11.07,0
0.7389,-7.754635E-05,11.0835,0,0.7389,-6.344701E-05,11.0835,0
0.7398,4.028382E-06,11.097,0,0.7398,-0.0001668421,11.097,0
0.7407,0.0002688945,11.1105,0,0.7407,-0.0002433814,11.1105,0
0.7416,0.0004740063,11.124,0,0.7416,-0.0002678874,11.124,0
0.7425,0.0005206683,11.1375,0,0.7425,-0.0003393912,11.1375,0
0.7434,0.0004434577,11.151,0,0.7434,-0.0002984359,11.151,0
0.7443,0.000203769,11.1645,0,0.7443,-0.0001745632,11.1645,0
0.7452,-0.0003377127,11.178,0,0.7452,3.524834E-05,11.178,0
0.7461,-0.0005542382,11.1915,0,0.7461,0.0001873197,11.1915,0
0.747,-0.0006724041,11.205,0,0.747,0.0003430838,11.205,0
0.7479,-0.0004840772,11.2185,0,0.7479,0.0004441291,11.2185,0
0.7488,-0.0004290226,11.232,0,0.7488,0.0004451362,11.232,0
0.7497,-0.0002185397,11.2455,0,0.7497,0.0002776226,11.2455,0
0.7506,-7.016098E-05,11.259,0,0.7506,0.000119173,11.259,0
0.7515,-2.316319E-05,11.2725,0,0.7515,-2.349889E-06,11.2725,0
0.7524,-3.457694E-05,11.286,0,0.7524,-0.0001426719,11.286,0
0.7533,6.042573E-05,11.2995,0,0.7533,-0.0002044404,11.2995,0
0.7542,0.0001493858,11.313,0,0.7542,-0.0001708705,11.313,0
0.7551,0.0001070878,11.3265,0,0.7551,-0.0001319295,11.3265,0
0.756,0.0001131304,11.34,0,0.756,-3.256275E-05,11.34,0
0.7569,0.0001017166,11.3535,0,0.7569,0.0001634852,11.3535,0
0.7578,8.392462E-06,11.367,0,0.7578,0.0002447242,11.367,0
0.7587,2.484169E-05,11.3805,0,0.7587,0.0001326009,11.3805,0
0.7596,-2.786297E-05,11.394,0,0.7596,2.920577E-05,11.394,0
0.7605,-4.36408E-05,11.4075,0,0.7605,-6.411841E-05,11.4075,0
0.7614,3.524834E-05,11.421,0,0.7614,-0.0001527428,11.421,0
0.7623,4.733349E-05,11.4345,0,0.7623,-0.0001752346,11.4345,0
0.7632,0.0001735561,11.448,0,0.7632,-0.0001604639,11.448,0
0.7641,0.0001245441,11.4615,0,0.7641,-0.0001819486,11.4615,0
0.765,3.189136E-05,11.475,0,0.765,-0.0001077592,11.475,0
0.7659,0.00033402,11.4885,0,0.7659,-4.934768E-05,11.4885,0
0.7668,0.0004474861,11.502,0,0.7668,-8.89601E-05,11.502,0
0.7677,0.0002145113,11.5155,0,0.7677,1.007095E-06,11.5155,0
0.7686,2.786297E-05,11.529,0,0.7686,1.510643E-05,11.529,0
0.7695,-0.0001856413,11.5425,0,0.7695,-3.222705E-05,11.5425,0
0.7704,-0.0005159685,11.556,0,0.7704,2.853437E-05,11.556,0
0.7713,-0.0005159685,11.5695,0,0.7713,9.735256E-06,11.5695,0
0.7722,-0.0003108568,11.583,0,0.7722,-8.392462E-06,11.583,0
0.7731,-0.0001947051,11.5965,0,0.7731,-4.028382E-06,11.5965,0
0.774,-5.841154E-05,11.61,0,0.774,-5.371176E-05,11.61,0
0.7749,1.678492E-05,11.6235,0,0.7749,-6.74754E-05,11.6235,0
0.7758,5.606165E-05,11.637,0,0.7758,-1.242084E-05,11.637,0
0.7767,9.835965E-05,11.6505,0,0.7767,-1.577783E-05,11.6505,0
0.7776,0.0002145113,11.664,0,0.7776,-8.224613E-05,11.664,0
0.7785,0.0002319677,11.6775,0,0.7785,-4.39765E-05,11.6775,0
0.7794,9.063859E-05,11.691,0,0.7794,-2.450599E-05,11.691,0
0.7803,-0.0001779202,11.7045,0,0.7803,-5.539025E-05,11.7045,0
0.7812,-0.0001762417,11.718,0,0.7812,-6.277562E-05,11.718,0
0.7821,-0.0001775845,11.7315,0,0.7821,-1.644922E-05,11.7315,0
0.783,-0.0002118257,11.745,0,0.783,-2.081331E-05,11.745,0
0.7839,-0.0002007477,11.7585,0,0.7839,-3.558404E-05,11.7585,0
0.7848,-4.33051E-05,11.772,0,0.7848,-4.565499E-05,11.772,0
0.7857,4.229801E-05,11.7855,0,0.7857,-4.565499E-05,11.7855,0
0.7866,6.6804E-05,11.799,0,0.7866,-3.289845E-05,11.799,0
0.7875,3.659113E-05,11.8125,0,0.7875,-5.169757E-05,11.8125,0
0.7884,3.524834E-05,11.826,0,0.7884,-5.471885E-05,11.826,0
0.7893,0.0001366293,11.8395,0,0.7893,-1.107805E-05,11.8395,0
0.7902,0.0002292821,11.853,0,0.7902,-2.14847E-05,11.853,0
0.7911,0.0001386435,11.8665,0,0.7911,-5.203327E-05,11.8665,0
0.792,4.666209E-05,11.88,0,0.792,9.063859E-06,11.88,0
0.7929,-5.941863E-05,11.8935,0,0.7929,-1.275654E-05,11.8935,0
0.7938,-4.39765E-05,11.907,0,0.7938,-5.572595E-05,11.907,0
0.7947,6.61326E-05,11.9205,0,0.7947,-4.061952E-05,11.9205,0
0.7956,0.0002601663,11.934,0,0.7956,-6.814679E-05,11.934,0
0.7965,0.0002386816,11.9475,0,0.7965,-0.0004340581,11.9475,0
0.7974,0.0001500572,11.961,0,0.7974,-0.0006495765,11.961,0
0.7983,-2.450599E-05,11.9745,0,0.7983,-0.000513283,11.9745,0
0.7992,-0.0002648661,11.988,0,0.7992,-0.0002453956,11.988,0
0.8001,-0.0002292821,12.0015,0,0.8001,5.001907E-05,12.0015,0
0.801,-0.0001242084,12.015,0,0.801,0.0005149615,12.015,0
0.8019,-8.996719E-05,12.0285,0,0.8019,0.0007945983,12.0285,0
0.8028,-4.129091E-05,12.042,0,0.8028,0.0006979171,12.042,0
0.8037,-1.577783E-05,12.0555,0,0.8037,0.0003638972,12.0555,0
0.8046,-1.409934E-05,12.069,0,0.8046,0.0001916838,12.069,0
0.8055,-3.826963E-05,12.0825,0,0.8055,0.000144686,12.0825,0
0.8064,2.652018E-05,12.096,0,0.8064,9.567407E-05,12.096,0
0.8073,-3.692683E-06,12.1095,0,0.8073,1.007095E-05,12.1095,0
0.8082,-2.584878E-05,12.123,0,0.8082,-2.920577E-05,12.123,0
0.8091,-5.035477E-06,12.1365,0,0.8091,-1.443504E-05,12.1365,0
0.81,-1.309224E-05,12.15,0,0.81,-4.599069E-05,12.15,0
0.8109,8.392462E-06,12.1635,0,0.8109,-5.841154E-05,12.1635,0
0.8118,3.155566E-05,12.177,0,0.8118,-6.57969E-05,12.177,0
0.8127,4.867628E-05,12.1905,0,0.8127,-5.807584E-05,12.1905,0
0.8136,1.443504E-05,12.204,0,0.8136,-5.874724E-05,12.204,0
0.8145,-1.913481E-05,12.2175,0,0.8145,-0.0001013809,12.2175,0
0.8154,7.284657E-05,12.231,0,0.8154,-0.000172549,12.231,0
0.8163,0.0003004501,12.2445,0,0.8163,-0.0002010834,12.2445,0
0.8172,0.0004223087,12.258,0,0.8172,-0.0002897078,12.258,0
0.8181,0.0003481193,12.2715,0,0.8181,-0.000376318,12.2715,0
0.819,0.0002027619,12.285,0,0.819,-0.0002259251,12.285,0
0.8199,-8.761731E-05,12.2985,0,0.8199,-4.565499E-05,12.2985,0
0.8208,-0.0005958648,12.312,0,0.8208,0.0001245441,12.312,0
0.8217,-0.0005676661,12.3255,0,0.8217,0.0001930266,12.3255,0
0.8226,-0.0003581903,12.339,0,0.8226,0.0001634852,12.339,0
0.8235,-8.157473E-05,12.3525,0,0.8235,0.0001514,12.3525,0
0.8244,2.652018E-05,12.366,0,0.8244,4.800488E-05,12.366,0
0.8253,1.913481E-05,12.3795,0,0.8253,-0.000175906,12.3795,0
0.8262,3.289845E-05,12.393,0,0.8262,-0.0002709087,12.393,0
0.8271,-2.316319E-05,12.4065,0,0.8271,-0.00024271,12.4065,0
0.828,-7.183947E-05,12.42,0,0.828,-0.0001886625,12.42,0
0.8289,-0.0001221943,12.4335,0,0.8289,-2.484169E-05,12.4335,0
0.8298,-0.0001027237,12.447,0,0.8298,0.0002192111,12.447,0
0.8307,-2.618448E-05,12.4605,0,0.8307,0.0002997787,12.4605,0
0.8316,1.846342E-05,12.474,0,0.8316,0.0002675517,12.474,0
0.8325,-1.678492E-06,12.4875,0,0.8325,0.0001816129,12.4875,0
0.8334,4.33051E-05,12.501,0,0.8334,9.030289E-05,12.501,0
0.8343,6.009003E-05,12.5145,0,0.8343,-2.349889E-06,12.5145,0
0.8352,-8.728161E-06,12.528,0,0.8352,-3.289845E-05,12.528,0
0.8361,2.954147E-05,12.5415,0,0.8361,-3.994812E-05,12.5415,0
0.837,0.0001564355,12.555,0,0.837,-4.599069E-05,12.555,0
0.8379,0.0004337225,12.5685,0,0.8379,-0.0001379721,12.5685,0
0.8388,0.0007835203,12.582,0,0.8388,-0.0003286488,12.582,0
0.8397,0.0006193637,12.5955,0,0.8397,-0.0003101854,12.5955,0
0.8406,0.0003091783,12.609,0,0.8406,-0.000256138,12.609,0
0.8415,5.841154E-05,12.6225,0,0.8415,-0.0001634852,12.6225,0
0.8424,-0.0005156329,12.636,0,0.8424,2.484169E-05,12.636,0
0.8433,-0.001202808,12.6495,0,0.8433,0.0001856413,12.6495,0
0.8442,-0.0008590524,12.663,0,0.8442,8.560311E-05,12.663,0
0.8451,-0.0003165637,12.6765,0,0.8451,1.913481E-05,12.6765,0
0.846,-0.0001628138,12.69,0,0.846,7.553216E-05,12.69,0
0.8469,-5.941863E-05,12.7035,0,0.8469,0.0001487144,12.7035,0
0.8478,-3.256275E-05,12.717,0,0.8478,0.0001322652,12.717,0
0.8487,-5.001907E-05,12.7305,0,0.8487,0.0001594568,12.7305,0
0.8496,-1.275654E-05,12.744,0,0.8496,0.000140322,12.744,0
0.8505,6.915389E-05,12.7575,0,0.8505,4.196231E-05,12.7575,0
0.8514,0.0001849699,12.771,0,0.8514,-7.721065E-06,12.771,0
0.8523,0.0002118257,12.7845,0,0.8523,-2.18204E-05,12.7845,0
0.8532,0.000239353,12.798,0,0.8532,-1.409934E-05,12.798,0
0.8541,0.0002823224,12.8115,0,0.8541,-5.304036E-05,12.8115,0
0.855,0.0001957122,12.825,0,0.855,-0.0001473716,12.825,0
0.8559,8.459602E-05,12.8385,0,0.8559,-0.0001849699,12.8385,0
0.8568,-7.721065E-06,12.852,0,0.8568,-0.0001134661,12.852,0
0.8577,-0.0001000381,12.8655,0,0.8577,-0.000154757,12.8655,0
0.8586,-0.0001195087,12.879,0,0.8586,-0.0002185397,12.879,0
0.8595001,-0.0002893721,12.8925,0,0.8595001,-0.0001013809,12.8925,0
0.8604,-0.0002400244,12.906,0,0.8604,-4.129091E-05,12.906,0
0.8613,-3.155566E-05,12.9195,0,0.8613,-6.311131E-05,12.9195,0
0.8622,-1.644922E-05,12.933,0,0.8622,3.222705E-05,12.933,0
0.8631,-3.826963E-05,12.9465,0,0.8631,0.0001406577,12.9465,0
0.864,9.063859E-06,12.96,0,0.864,9.970245E-05,12.96,0
0.8649,5.572595E-05,12.9735,0,0.8649,4.229801E-05,12.9735,0
0.8658,0.0001064164,12.987,0,0.8658,3.054856E-05,12.987,0
0.8667,9.063859E-05,13.0005,0,0.8667,3.189136E-05,13.0005,0
0.8676,4.129091E-05,13.014,0,0.8676,-4.699779E-06,13.014,0
0.8685,4.733349E-05,13.0275,0,0.8685,-3.323415E-05,13.0275,0
0.8694,3.021286E-05,13.041,0,0.8694,-5.941863E-05,13.041,0
0.8703,8.392462E-06,13.0545,0,0.8703,-2.484169E-05,13.0545,0
0.8712,2.047761E-05,13.068,0,0.8712,-3.759823E-05,13.068,0
0.8721,4.39765E-05,13.0815,0,0.8721,-7.754635E-05,13.0815,0
0.873,4.632639E-05,13.095,0,0.873,-3.054856E-05,13.095,0
0.8739,9.500267E-05,13.1085,0,0.8739,-2.081331E-05,13.1085,0
0.8748,6.344701E-05,13.122,0,0.8748,-4.901198E-05,13.122,0
0.8757,6.042573E-05,13.1355,0,0.8757,-3.524834E-05,13.1355,0
0.8766,7.318227E-05,13.149,0,0.8766,-1.745632E-05,13.149,0
0.8775,3.121996E-05,13.1625,0,0.8775,-3.457694E-05,13.1625,0
0.8784,3.021286E-05,13.176,0,0.8784,-4.061952E-05,13.176,0
0.8793,0.0002205539,13.1895,0,0.8793,-5.001907E-05,13.1895,0
0.8802,0.0002920577,13.203,0,0.8802,-2.014191E-05,13.203,0
0.8811,0.0001117876,13.2165,0,0.8811,-5.035477E-06,13.2165,0
0.882,6.74754E-05,13.23,0,0.882,-5.539025E-05,13.23,0
0.8829,-8.224613E-05,13.2435,0,0.8829,-8.426032E-05,13.2435,0
0.8838,-0.0003420768,13.257,0,0.8838,-2.618448E-05,13.257,0
0.8847,-0.0003924315,13.2705,0,0.8847,-1.342794E-05,13.2705,0
0.8856,-0.0003309987,13.284,0,0.8856,-6.57969E-05,13.284,0
0.8865,-0.0002558022,13.2975,0,0.8865,1.040665E-05,13.2975,0
0.8874,-7.284657E-05,13.311,0,0.8874,1.812772E-05,13.311,0
0.8883,-6.51255E-05,13.3245,0,0.8883,-4.968337E-05,13.3245,0
0.8892,-7.486076E-05,13.338,0,0.8892,-9.735256E-06,13.338,0
0.8901,-5.337606E-05,13.3515,0,0.8901,1.644922E-05,13.3515,0
0.891,-3.121996E-05,13.365,0,0.891,-4.028382E-06,13.365,0
0.8919,-1.544213E-05,13.3785,0,0.8919,-1.208515E-05,13.3785,0
0.8928,-2.21561E-05,13.392,0,0.8928,-2.349889E-05,13.392,0
0.8937,5.069047E-05,13.4055,0,0.8937,-1.611353E-05,13.4055,0
0.8946,1.242084E-05,13.419,0,0.8946,-1.644922E-05,13.419,0
0.8955,-4.36408E-06,13.4325,0,0.8955,-2.987716E-05,13.4325,0
0.8964,4.095522E-05,13.446,0,0.8964,-1.745632E-05,13.446,0
0.8973,2.853437E-05,13.4595,0,0.8973,8.392462E-06,13.4595,0
0.8982,8.392462E-06,13.473,0,0.8982,6.378271E-06,13.473,0
0.8991,3.021286E-05,13.4865,0,0.8991,-2.18204E-05,13.4865,0
0.9,1.443504E-05,13.5,0,0.9,2.920577E-05,13.5,0
0.9009,-8.392462E-06,13.5135,0,0.9009,2.987716E-05,13.5135,0
0.9018,4.699779E-06,13.527,0,0.9018,-7.519646E-05,13.527,0
0.9027,3.121996E-05,13.5405,0,0.9027,-7.150377E-05,13.5405,0
0.9036,6.378271E-06,13.554,0,0.9036,-3.659113E-05,13.554,0
0.9045,5.774014E-05,13.5675,0,0.9045,-3.524834E-05,13.5675,0
0.9054,0.0001148089,13.581,0,0.9054,-8.82887E-05,13.581,0
0.9063,5.136187E-05,13.5945,0,0.9063,-7.150377E-05,13.5945,0
0.9072,1.846342E-05,13.608,0,0.9072,9.399558E-06,13.608,0
0.9081,-3.356985E-07,13.6215,0,0.9081,3.994812E-05,13.6215,0
0.909,-1.208515E-05,13.635,0,0.909,-5.706874E-06,13.635,0
0.9099,3.793393E-05,13.6485,0,0.9099,-2.014191E-05,13.6485,0
0.9108,3.256275E-05,13.662,0,0.9108,2.752728E-05,13.662,0
0.9117,1.812772E-05,13.6755,0,0.9117,4.800488E-05,13.6755,0
0.9126,-2.1149E-05,13.689,0,0.9126,-1.007095E-05,13.689,0
0.9135,-4.43122E-05,13.7025,0,0.9135,1.913481E-05,13.7025,0
0.9144,-1.242084E-05,13.716,0,0.9144,4.46479E-05,13.716,0
0.9153,8.728161E-06,13.7295,0,0.9153,3.256275E-05,13.7295,0
0.9162,2.920577E-05,13.743,0,0.9162,6.243992E-05,13.743,0
0.9171,4.061952E-05,13.7565,0,0.9171,0.0001013809,13.7565,0
0.918,1.846342E-05,13.77,0,0.918,3.659113E-05,13.77,0
0.9189,-1.980621E-05,13.7835,0,0.9189,1.242084E-05,13.7835,0
0.9198,-6.411841E-05,13.797,0,0.9198,-1.712062E-05,13.797,0
0.9207,-2.719158E-05,13.8105,0,0.9207,-3.726253E-05,13.8105,0
0.9216,-3.927672E-05,13.824,0,0.9216,-6.948959E-05,13.824,0
0.9225,-4.599069E-05,13.8375,0,0.9225,-0.0001094377,13.8375,0
0.9234,-3.323415E-05,13.851,0,0.9234,-0.0001279011,13.851,0
0.9243,-4.867628E-05,13.8645,0,0.9243,-8.69459E-05,13.8645,0
0.9252,-2.18204E-05,13.878,0,0.9252,-7.284657E-05,13.878,0
0.9261,1.342794E-06,13.8915,0,0.9261,-9.634547E-05,13.8915,0
0.927,-4.733349E-05,13.905,0,0.927,-3.558404E-05,13.905,0
0.9279,3.860533E-05,13.9185,0,0.9279,-3.054856E-05,13.9185,0
0.9288,0.0002145113,13.932,0,0.9288,-0.000115816,13.932,0
0.9297,0.0003857175,13.9455,0,0.9297,-5.841154E-05,13.9455,0
0.9306,0.0005082475,13.959,0,0.9306,-3.021286E-05,13.959,0
0.9315,0.000369604,13.9725,0,0.9315,-4.196231E-05,13.9725,0
0.9324,6.277562E-05,13.986,0,0.9324,-4.39765E-05,13.986,0
0.9333,-0.0003501335,13.9995,0,0.9333,-1.913481E-05,13.9995,0
0.9342,-0.0008137331,14.013,0,0.9342,4.800488E-05,14.013,0
0.9351,-0.0006710613,14.0265,0,0.9351,-4.36408E-06,14.0265,0
0.936,-0.0003212634,14.04,0,0.936,-5.606165E-05,14.04,0
0.9369,-7.553216E-05,14.0535,0,0.9369,-2.014191E-06,14.0535,0
0.9378,-4.46479E-05,14.067,0,0.9378,7.821774E-05,14.067,0
0.9387,-4.229801E-05,14.0805,0,0.9387,6.51255E-05,14.0805,0
0.9396001,-3.021286E-06,14.094,0,0.9396001,2.652018E-05,14.094,0
0.9405,-1.242084E-05,14.1075,0,0.9405,6.076142E-05,14.1075,0
0.9414001,-4.565499E-05,14.121,0,0.9414001,5.304036E-05,14.121,0
0.9423,-4.733349E-05,14.1345,0,0.9423,-1.342794E-06,14.1345,0
0.9432001,-2.383459E-05,14.148,0,0.9432001,2.786297E-05,14.148,0
0.9441,-2.685588E-05,14.1615,0,0.9441,9.063859E-06,14.1615,0
0.9450001,-4.49836E-05,14.175,0,0.9450001,-3.256275E-05,14.175,0
0.9459,-3.390555E-05,14.1885,0,0.9459,-6.344701E-05,14.1885,0
0.9468,-2.349889E-06,14.202,0,0.9468,-8.157473E-05,14.202,0
0.9477,5.807584E-05,14.2155,0,0.9477,-4.666209E-05,14.2155,0
0.9486,0.0001420005,14.229,0,0.9486,-1.577783E-05,14.229,0
0.9495,0.0001520714,14.2425,0,0.9495,1.342794E-06,14.2425,0
0.9504,0.0001393149,14.256,0,0.9504,3.356985E-07,14.256,0
0.9513,0.0001228656,14.2695,0,0.9513,1.812772E-05,14.2695,0
0.9522,0.0001151446,14.283,0,0.9522,-2.18204E-05,14.283,0
0.9531,9.332418E-05,14.2965,0,0.9531,-8.661021E-05,14.2965,0
0.954,7.653925E-05,14.31,0,0.954,-7.956054E-05,14.31,0
0.9549,2.24918E-05,14.3235,0,0.9549,-9.701686E-05,14.3235,0
0.9558,4.49836E-05,14.337,0,0.9558,-0.000126894,14.337,0
0.9567,0.000102388,14.3505,0,0.9567,-7.620356E-05,14.3505,0
0.9576,5.337606E-05,14.364,0,0.9576,-2.081331E-05,14.364,0
0.9585,3.860533E-05,14.3775,0,0.9585,1.174945E-05,14.3775,0
0.9594,6.54612E-05,14.391,0,0.9594,5.572595E-05,14.391,0
0.9603,-2.450599E-05,14.4045,0,0.9603,8.392462E-06,14.4045,0
0.9612,-9.500267E-05,14.418,0,0.9612,1.007095E-06,14.418,0
0.9621,-9.298848E-05,14.4315,0,0.9621,4.39765E-05,14.4315,0
0.963,-9.164568E-05,14.445,0,0.963,3.189136E-05,14.445,0
0.9639,-3.390555E-05,14.4585,0,0.9639,-1.007095E-06,14.4585,0
0.9648,-3.692683E-05,14.472,0,0.9648,2.618448E-05,14.472,0
0.9657,-3.256275E-05,14.4855,0,0.9657,1.342794E-06,14.4855,0
0.9666,-2.450599E-05,14.499,0,0.9666,-5.975433E-05,14.499,0
0.9675,1.678492E-06,14.5125,0,0.9675,-5.706874E-06,14.5125,0
0.9684,6.713969E-06,14.526,0,0.9684,1.913481E-05,14.526,0
0.9693,-3.424125E-05,14.5395,0,0.9693,-3.860533E-05,14.5395,0
0.9702,-4.028382E-06,14.553,0,0.9702,-2.752728E-05,14.553,0
0.9711,-6.210422E-05,14.5665,0,0.9711,1.040665E-05,14.5665,0
0.972,-3.860533E-05,14.58,0,0.972,3.692683E-06,14.58,0
0.9729,3.726253E-05,14.5935,0,0.9729,-3.390555E-05,14.5935,0
0.9738,0.0001070878,14.607,0,0.9738,-0.0001104448,14.607,0
0.9747,0.0001352865,14.6205,0,0.9747,-9.634547E-05,14.6205,0
0.9756,1.913481E-05,14.634,0,0.9756,-0.0001064164,14.634,0
0.9765,-0.0001225299,14.6475,0,0.9765,-0.0002077974,14.6475,0
0.9774,-0.0001631495,14.661,0,0.9774,-0.0003068284,14.661,0
0.9783,-0.0002662089,14.6745,0,0.9783,-0.0002319677,14.6745,0
0.9792,-0.000164828,14.688,0,0.9792,-0.0001282368,14.688,0
0.9801,2.652018E-05,14.7015,0,0.9801,5.035477E-06,14.7015,0
0.981,6.881819E-05,14.715,0,0.981,0.0001910124,14.715,0
0.9819,8.761731E-05,14.7285,0,0.9819,0.0002910506,14.7285,0
0.9828,5.471885E-05,14.742,0,0.9828,0.0003044785,14.742,0
0.9837,4.867628E-05,14.7555,0,0.9837,0.0002306248,14.7555,0
0.9846,-3.659113E-05,14.769,0,0.9846,0.0001795987,14.769,0
0.9855,-5.203327E-05,14.7825,0,0.9855,0.0001628138,14.7825,0
0.9864,-3.021286E-06,14.796,0,0.9864,0.0001295796,14.796,0
0.9873,-1.678492E-05,14.8095,0,0.9873,3.256275E-05,14.8095,0
0.9882,-3.256275E-05,14.823,0,0.9882,-5.706874E-06,14.823,0
0.9891,-4.43122E-05,14.8365,0,0.9891,-5.639734E-05,14.8365,0
0.99,-1.577783E-05,14.85,0,0.99,-0.0001383078,14.85,0
0.9909,4.699779E-06,14.8635,0,0.9909,-0.0001557641,14.8635,0
0.9918,-3.356985E-07,14.877,0,0.9918,-0.0001054093,14.877,0
0.9927,1.007095E-06,14.8905,0,0.9927,-0.000112459,14.8905,0
0.9936,5.035477E-06,14.904,0,0.9936,-0.0001628138,14.904,0
0.9945,-3.793393E-05,14.9175,0,0.9945,-0.0001111162,14.9175,0
0.9954,-1.980621E-05,14.931,0,0.9954,-0.0001000381,14.931,0
0.9963,2.786297E-05,14.9445,0,0.9963,-0.000161471,14.9445,0
0.9972,1.141375E-05,14.958,0,0.9972,-8.191043E-05,14.958,0
0.9981,3.860533E-05,14.9715,0,0.9981,2.450599E-05,14.9715,0
0.999,6.71397E-05,14.985,0,0.999,-1.208515E-05,14.985,0
0.9999,4.39765E-05,14.9985,0,0.9999,-5.169757E-05,14.9985,0
1.0008,-2.1149E-05,15.012,0,1.0008,-9.298848E-05,15.012,0
1.0017,4.263371E-05,15.0255,0,1.0017,-6.64683E-05,15.0255,0
1.0026,7.486076E-05,15.039,0,1.0026,2.349889E-06,15.039,0
1.0035,9.063859E-06,15.0525,0,1.0035,1.342794E-06,15.0525,0
1.0044,2.383459E-05,15.066,0,1.0044,9.399558E-06,15.066,0
1.0053,2.584878E-05,15.0795,0,1.0053,5.807584E-05,15.0795,0
1.0062,1.174945E-05,15.093,0,1.0062,3.189136E-05,15.093,0
1.0071,-3.491264E-05,15.1065,0,1.0071,-3.659113E-05,15.1065,0
1.008,-7.721065E-06,15.12,0,1.008,1.745632E-05,15.12,0
1.0089,-2.652018E-05,15.1335,0,1.0089,1.107805E-05,15.1335,0
1.0098,-2.920577E-05,15.147,0,1.0098,-3.121996E-05,15.147,0
1.0107,-1.477073E-05,15.1605,0,1.0107,-1.544213E-05,15.1605,0
1.0116,-4.36408E-05,15.174,0,1.0116,7.318227E-05,15.174,0
1.0125,-5.035477E-05,15.1875,0,1.0125,8.090334E-05,15.1875,0
1.0134,-6.378271E-05,15.201,0,1.0134,4.263371E-05,15.201,0
1.0143,-6.982528E-05,15.2145,0,1.0143,1.342794E-06,15.2145,0
1.0152,-6.042573E-05,15.228,0,1.0152,-1.174945E-05,15.228,0
1.0161,-6.814679E-05,15.2415,0,1.0161,-5.270466E-05,15.2415,0
1.017,7.049668E-06,15.255,0,1.017,-9.365987E-05,15.255,0
1.0179,-5.706874E-06,15.2685,0,1.0179,-9.634547E-05,15.2685,0
1.0188,-2.987716E-05,15.282,0,1.0188,-4.263371E-05,15.282,0
1.0197,4.39765E-05,15.2955,0,1.0197,-1.745632E-05,15.2955,0
1.0206,9.802396E-05,15.309,0,1.0206,-8.627451E-05,15.309,0
1.0215,0.0001117876,15.3225,0,1.0215,-8.090334E-05,15.3225,0
1.0224,0.0001708705,15.336,0,1.0224,-0.0001305867,15.336,0
1.0233,0.0001003738,15.3495,0,1.0233,-0.0002232395,15.3495,0
1.0242,1.174945E-05,15.363,0,1.0242,-0.0001943694,15.363,0
1.0251,1.745632E-05,15.3765,0,1.0251,-0.0001386435,15.3765,0
1.026,-2.584878E-05,15.39,0,1.026,-6.71397E-05,15.39,0
1.0269,-0.0002104829,15.4035,0,1.0269,3.457694E-05,15.4035,0
1.0278,-0.0002934005,15.417,0,1.0278,0.0001007095,15.417,0
1.0287,-0.0001668421,15.4305,0,1.0287,0.0002222324,15.4305,0
1.0296,-5.706874E-05,15.444,0,1.0296,0.000246067,15.444,0
1.0305,-3.256275E-05,15.4575,0,1.0305,0.0001745632,15.4575,0
1.0314,-1.913481E-05,15.471,0,1.0314,0.000144686,15.471,0
1.0323,-1.980621E-05,15.4845,0,1.0323,0.0001138018,15.4845,0
1.0332,-2.28275E-05,15.498,0,1.0332,3.457694E-05,15.498,0
1.0341,6.713969E-07,15.5115,0,1.0341,-1.409934E-05,15.5115,0
1.035,-1.812772E-05,15.525,0,1.035,2.349889E-05,15.525,0
1.0359,3.054856E-05,15.5385,0,1.0359,1.107805E-05,15.5385,0
1.0368,5.740444E-05,15.552,0,1.0368,-4.46479E-05,15.552,0
1.0377,1.309224E-05,15.5655,0,1.0377,-4.934768E-05,15.5655,0
1.0386,-1.007095E-06,15.579,0,1.0386,-2.081331E-05,15.579,0
1.0395,-1.174945E-05,15.5925,0,1.0395,-2.887007E-05,15.5925,0
1.0404,-3.054856E-05,15.606,0,1.0404,-3.189136E-05,15.606,0
1.0413,-1.879912E-05,15.6195,0,1.0413,-8.358892E-05,15.6195,0
1.0422,3.189136E-05,15.633,0,1.0422,-6.814679E-05,15.633,0
1.0431,5.874724E-05,15.6465,0,1.0431,-3.457694E-05,15.6465,0
1.044,1.577783E-05,15.66,0,1.044,-7.721065E-05,15.66,0
1.0449,5.035477E-05,15.6735,0,1.0449,-0.0001010452,15.6735,0
1.0458,0.0001144732,15.687,0,1.0458,-5.471885E-05,15.687,0
1.0467,0.0001070878,15.7005,0,1.0467,-4.901198E-05,15.7005,0
1.0476,0.0001198444,15.714,0,1.0476,-7.016098E-05,15.714,0
1.0485,6.915389E-05,15.7275,0,1.0485,-3.121996E-05,15.7275,0
1.0494,2.584878E-05,15.741,0,1.0494,-5.169757E-05,15.741,0
1.0503,-2.517739E-05,15.7545,0,1.0503,-6.143282E-05,15.7545,0
1.0512,-9.198138E-05,15.768,0,1.0512,-3.189136E-05,15.768,0
1.0521,-0.0001168231,15.7815,0,1.0521,-1.309224E-05,15.7815,0
1.053,-8.89601E-05,15.795,0,1.053,-3.591974E-05,15.795,0
1.0539,-5.001907E-05,15.8085,0,1.0539,-3.189136E-05,15.8085,0
1.0548,-4.901198E-05,15.822,0,1.0548,-2.920577E-05,15.822,0
1.0557,-6.411841E-05,15.8355,0,1.0557,2.584878E-05,15.8355,0
1.0566,-5.774014E-05,15.849,0,1.0566,2.081331E-05,15.849,0
1.0575,-3.860533E-05,15.8625,0,1.0575,-2.853437E-05,15.8625,0
1.0584,-3.189136E-05,15.876,0,1.0584,-4.129091E-05,15.876,0
1.0593,-4.39765E-05,15.8895,0,1.0593,3.356985E-07,15.8895,0
1.0602,-8.728161E-06,15.903,0,1.0602,-3.021286E-06,15.903,0
1.0611,3.692683E-05,15.9165,0,1.0611,-6.61326E-05,15.9165,0
1.062,4.39765E-05,15.93,0,1.062,-3.088426E-05,15.93,0
1.0629,5.874724E-05,15.9435,0,1.0629,-2.383459E-05,15.9435,0
1.0638,3.558404E-05,15.957,0,1.0638,-6.143282E-05,15.957,0
1.0647,4.196231E-05,15.9705,0,1.0647,-6.042573E-06,15.9705,0
1.0656,5.203327E-05,15.984,0,1.0656,3.289845E-05,15.984,0
1.0665,6.54612E-05,15.9975,0,1.0665,-2.987716E-05,15.9975,0
1.0674,5.337606E-05,16.011,0,1.0674,-5.337606E-05,16.011,0
1.0683,7.318227E-05,16.0245,0,1.0683,-3.424125E-05,16.0245,0
1.0692,2.517739E-05,16.038,0,1.0692,1.947051E-05,16.038,0
1.0701,-2.887007E-05,16.0515,0,1.0701,-2.517739E-05,16.0515,0
1.071,-1.544213E-05,16.065,0,1.071,-2.652018E-05,16.065,0
1.0719,2.819867E-05,16.0785,0,1.0719,-3.054856E-05,16.0785,0
1.0728,-4.901198E-05,16.092,0,1.0728,-4.196231E-05,16.092,0
1.0737,-6.243992E-05,16.1055,0,1.0737,-5.606165E-05,16.1055,0
1.0746,-4.46479E-05,16.119,0,1.0746,-7.855344E-05,16.119,0
1.0755,-6.78111E-05,16.1325,0,1.0755,-2.1149E-05,16.1325,0
1.0764,-3.390555E-05,16.146,0,1.0764,2.450599E-05,16.146,0
1.0773,2.21561E-05,16.1595,0,1.0773,-2.14847E-05,16.1595,0
1.0782,-2.081331E-05,16.173,0,1.0782,-3.054856E-05,16.173,0
1.0791,-5.807584E-05,16.1865,0,1.0791,2.417029E-05,16.1865,0
1.08,-5.270466E-05,16.2,0,1.08,2.719158E-05,16.2,0
1.0809,-3.121996E-05,16.2135,0,1.0809,2.18204E-05,16.2135,0
1.0818,-5.136187E-05,16.227,0,1.0818,-3.356985E-07,16.227,0
1.0827,-6.948959E-05,16.2405,0,1.0827,1.678492E-06,16.2405,0
1.0836,-3.692683E-05,16.254,0,1.0836,-7.049668E-06,16.254,0
1.0845,3.356985E-07,16.2675,0,1.0845,-1.174945E-05,16.2675,0
1.0854,1.544213E-05,16.281,0,1.0854,-5.404745E-05,16.281,0
1.0863,3.692683E-05,16.2945,0,1.0863,-1.745632E-05,16.2945,0
1.0872,8.291753E-05,16.308,0,1.0872,2.417029E-05,16.308,0
1.0881,5.606165E-05,16.3215,0,1.0881,7.049668E-06,16.3215,0
1.089,-2.014191E-06,16.335,0,1.089,3.189136E-05,16.335,0
1.0899,-6.378271E-06,16.3485,0,1.0899,6.076142E-05,16.3485,0
1.0908,2.24918E-05,16.362,0,1.0908,1.779202E-05,16.362,0
1.0917,-6.378271E-06,16.3755,0,1.0917,-3.155566E-05,16.3755,0
1.0926,-2.652018E-05,16.389,0,1.0926,-2.987716E-05,16.389,0
1.0935,1.510643E-05,16.4025,0,1.0935,-6.009003E-05,16.4025,0
1.0944,3.021286E-05,16.416,0,1.0944,-6.411841E-05,16.416,0
1.0953,1.342794E-06,16.4295,0,1.0953,-7.049668E-05,16.4295,0
1.0962,-1.577783E-05,16.443,0,1.0962,-4.36408E-06,16.443,0
1.0971,-8.291753E-05,16.4565,0,1.0971,-1.174945E-05,16.4565,0
1.098,-3.054856E-05,16.47,0,1.098,-1.577783E-05,16.47,0
1.0989,9.063859E-06,16.4835,0,1.0989,-4.229801E-05,16.4835,0
1.0998,-4.33051E-05,16.497,0,1.0998,-1.678492E-05,16.497,0
1.1007,-4.196231E-05,16.5105,0,1.1007,1.779202E-05,16.5105,0
1.1016,-2.685588E-06,16.524,0,1.1016,-3.692683E-06,16.524,0
1.1025,-3.961242E-05,16.5375,0,1.1025,3.189136E-05,16.5375,0
1.1034,-6.881819E-05,16.551,0,1.1034,4.33051E-05,16.551,0
1.1043,-7.418937E-05,16.5645,0,1.1043,-3.793393E-05,16.5645,0
1.1052,-7.083238E-05,16.578,0,1.1052,-9.433127E-05,16.578,0
1.1061,-4.49836E-05,16.5915,0,1.1061,-2.383459E-05,16.5915,0
1.107,1.342794E-06,16.605,0,1.107,3.591974E-05,16.605,0
1.1079,-3.256275E-05,16.6185,0,1.1079,-2.081331E-05,16.6185,0
1.1088,3.591974E-05,16.632,0,1.1088,-5.807584E-05,16.632,0
1.1097,8.89601E-05,16.6455,0,1.1097,-4.028382E-06,16.6455,0
1.1106,5.404745E-05,16.659,0,1.1106,8.392462E-06,16.659,0
1.1115,7.418937E-05,16.6725,0,1.1115,-2.14847E-05,16.6725,0
1.1124,0.0001040665,16.686,0,1.1124,-4.162661E-05,16.686,0
1.1133,3.894102E-05,16.6995,0,1.1133,-5.236896E-05,16.6995,0
1.1142,-6.713969E-07,16.713,0,1.1142,-5.203327E-05,16.713,0
1.1151,4.666209E-05,16.7265,0,1.1151,-7.217517E-05,16.7265,0
1.116,-2.24918E-05,16.74,0,1.116,-5.169757E-05,16.74,0
1.1169,-0.0001238727,16.7535,0,1.1169,-3.457694E-05,16.7535,0
1.1178,-7.989624E-05,16.767,0,1.1178,-2.719158E-05,16.767,0
1.1187,-4.666209E-05,16.7805,0,1.1187,-2.786297E-05,16.7805,0
1.1196,-5.740444E-05,16.794,0,1.1196,1.376364E-05,16.794,0
1.1205,-4.766919E-05,16.8075,0,1.1205,1.846342E-05,16.8075,0
1.1214,-4.162661E-05,16.821,0,1.1214,-1.678492E-06,16.821,0
1.1223,-8.392462E-06,16.8345,0,1.1223,-4.095522E-05,16.8345,0
1.1232,-1.040665E-05,16.848,0,1.1232,-2.14847E-05,16.848,0
1.1241,-3.961242E-05,16.8615,0,1.1241,-4.36408E-06,16.8615,0
1.125,-8.023193E-05,16.875,0,1.125,-4.39765E-05,16.875,0
1.1259,-7.922484E-05,16.8885,0,1.1259,-6.176852E-05,16.8885,0
1.1268,-7.687495E-05,16.902,0,1.1268,-3.121996E-05,16.902,0
1.1277,-5.438316E-05,16.9155,0,1.1277,-4.968337E-05,16.9155,0
1.1286,-4.36408E-06,16.929,0,1.1286,-3.457694E-05,16.929,0
1.1295,7.016098E-05,16.9425,0,1.1295,6.6804E-05,16.9425,0
1.1304,0.0001554284,16.956,0,1.1304,0.0001554284,16.956,0
1.1313,0.0001245441,16.9695,0,1.1313,6.076142E-05,16.9695,0
1.1322,4.196231E-05,16.983,0,1.1322,-6.881819E-05,16.983,0
1.1331,3.860533E-05,16.9965,0,1.1331,-6.78111E-05,16.9965,0
1.134,2.517739E-05,17.01,0,1.134,-4.263371E-05,17.01,0
1.1349,2.484169E-05,17.0235,0,1.1349,-6.713969E-06,17.0235,0
1.1358,5.807584E-05,17.037,0,1.1358,-2.450599E-05,17.037,0
1.1367,4.53193E-05,17.0505,0,1.1367,-1.577783E-05,17.0505,0
1.1376,-3.625543E-05,17.064,0,1.1376,-4.53193E-05,17.064,0
1.1385,-1.779202E-05,17.0775,0,1.1385,-7.049668E-05,17.0775,0
1.1394,2.1149E-05,17.091,0,1.1394,-7.486076E-05,17.091,0
1.1403,7.049668E-06,17.1045,0,1.1403,-4.36408E-05,17.1045,0
1.1412,-5.102617E-05,17.118,0,1.1412,-7.754635E-05,17.118,0
1.1421,-9.433127E-05,17.1315,0,1.1421,-8.258183E-05,17.1315,0
1.143,-5.606165E-05,17.145,0,1.143,9.063859E-06,17.145,0
1.1439,1.174945E-05,17.1585,0,1.1439,4.162661E-05,17.1585,0
1.1448,-1.947051E-05,17.172,0,1.1448,1.477073E-05,17.172,0
1.1457,-7.016098E-05,17.1855,0,1.1457,1.107805E-05,17.1855,0
1.1466,-5.807584E-05,17.199,0,1.1466,3.625543E-05,17.199,0
1.1475,-1.644922E-05,17.2125,0,1.1475,1.745632E-05,17.2125,0
1.1484,-4.061952E-05,17.226,0,1.1484,4.028382E-06,17.226,0
1.1493,-4.39765E-05,17.2395,0,1.1493,-3.088426E-05,17.2395,0
1.1502,1.913481E-05,17.253,0,1.1502,-1.879912E-05,17.253,0
1.1511,2.047761E-05,17.2665,0,1.1511,-4.36408E-06,17.2665,0
1.152,2.047761E-05,17.28,0,1.152,-2.853437E-05,17.28,0
1.1529,3.726253E-05,17.2935,0,1.1529,-4.061952E-05,17.2935,0
1.1538,4.263371E-05,17.307,0,1.1538,1.812772E-05,17.307,0
1.1547,2.652018E-05,17.3205,0,1.1547,6.042573E-06,17.3205,0
1.1556,4.263371E-05,17.334,0,1.1556,-3.054856E-05,17.334,0
1.1565,9.399558E-06,17.3475,0,1.1565,1.510643E-05,17.3475,0
1.1574,-9.063859E-06,17.361,0,1.1574,1.779202E-05,17.361,0
1.1583,3.021286E-05,17.3745,0,1.1583,1.678492E-05,17.3745,0
1.1592,-1.611353E-05,17.388,0,1.1592,-9.063859E-06,17.388,0
1.1601,-5.740444E-05,17.4015,0,1.1601,-4.061952E-05,17.4015,0
1.161,-4.968337E-05,17.415,0,1.161,-7.284657E-05,17.415,0
1.1619,-1.242084E-05,17.4285,0,1.1619,-3.155566E-05,17.4285,0
1.1628,3.726253E-05,17.442,0,1.1628,-2.652018E-05,17.442,0
1.1637,1.275654E-05,17.4555,0,1.1637,-2.786297E-05,17.4555,0
1.1646,-7.721065E-06,17.469,0,1.1646,-4.196231E-05,17.469,0
1.1655,-2.18204E-05,17.4825,0,1.1655,-5.304036E-05,17.4825,0
1.1664,-1.342794E-06,17.496,0,1.1664,-5.471885E-05,17.496,0
1.1673,3.692683E-06,17.5095,0,1.1673,-1.712062E-05,17.5095,0
1.1682,-3.726253E-05,17.523,0,1.1682,3.356985E-07,17.523,0
1.1691,-4.33051E-05,17.5365,0,1.1691,-3.289845E-05,17.5365,0
1.17,-5.539025E-05,17.55,0,1.17,7.049668E-06,17.55,0
1.1709,-7.217517E-05,17.5635,0,1.1709,3.390555E-05,17.5635,0
1.1718,-4.196231E-05,17.577,0,1.1718,3.692683E-06,17.577,0
1.1727,1.913481E-05,17.5905,0,1.1727,1.007095E-05,17.5905,0
1.1736,4.53193E-05,17.604,0,1.1736,3.659113E-05,17.604,0
1.1745,7.418937E-05,17.6175,0,1.1745,4.263371E-05,17.6175,0
1.1754,7.888914E-05,17.631,0,1.1754,-1.644922E-05,17.631,0
1.1763,4.800488E-05,17.6445,0,1.1763,-9.768826E-05,17.6445,0
1.1772,-3.356985E-07,17.658,0,1.1772,-2.1149E-05,17.658,0
1.1781,-5.706874E-06,17.6715,0,1.1781,-2.014191E-06,17.6715,0
1.179,-1.779202E-05,17.685,0,1.179,-6.848249E-05,17.685,0
1.1799,-4.162661E-05,17.6985,0,1.1799,-7.183947E-05,17.6985,0
1.1808,-4.867628E-05,17.712,0,1.1808,-2.853437E-05,17.712,0
1.1817,7.049668E-06,17.7255,0,1.1817,-5.304036E-05,17.7255,0
1.1826,1.309224E-05,17.739,0,1.1826,-8.560311E-05,17.739,0
1.1835,7.721065E-06,17.7525,0,1.1835,-5.706874E-05,17.7525,0
1.1844,6.6804E-05,17.766,0,1.1844,-2.517739E-05,17.766,0
1.1853,8.82887E-05,17.7795,0,1.1853,-3.021286E-05,17.7795,0
1.1862,-4.46479E-05,17.793,0,1.1862,-2.014191E-06,17.793,0
1.1871,-0.0001628138,17.8065,0,1.1871,2.786297E-05,17.8065,0
1.188,-0.0001201801,17.82,0,1.188,1.846342E-05,17.82,0
1.1889,-8.258183E-05,17.8335,0,1.1889,-3.927672E-05,17.8335,0
1.1898,-7.620356E-05,17.847,0,1.1898,-7.284657E-05,17.847,0
1.1907,-2.081331E-05,17.8605,0,1.1907,-1.443504E-05,17.8605,0
1.1916,-3.390555E-05,17.874,0,1.1916,-5.337606E-05,17.874,0
1.1925,-3.994812E-05,17.8875,0,1.1925,-8.258183E-05,17.8875,0
1.1934,-1.510643E-05,17.901,0,1.1934,-7.318227E-05,17.901,0
1.1943,1.510643E-05,17.9145,0,1.1943,2.887007E-05,17.9145,0
1.1952,2.920577E-05,17.928,0,1.1952,2.1149E-05,17.928,0
1.1961,4.196231E-05,17.9415,0,1.1961,-4.867628E-05,17.9415,0
1.197,5.035477E-06,17.955,0,1.197,2.014191E-05,17.955,0
1.1979,-1.309224E-05,17.9685,0,1.1979,6.881819E-05,17.9685,0
1.1988,-9.063859E-06,17.982,0,1.1988,-1.007095E-06,17.982,0
1.1997,-1.107805E-05,17.9955,0,1.1997,-4.901198E-05,17.9955,0
1.2006,-4.061952E-05,18.009,0,1.2006,-1.947051E-05,18.009,0
1.2015,-3.692683E-06,18.0225,0,1.2015,-1.712062E-05,18.0225,0
1.2024,3.121996E-05,18.036,0,1.2024,-4.36408E-06,18.036,0
1.2033,-7.721065E-06,18.0495,0,1.2033,-3.524834E-05,18.0495,0
1.2042,2.786297E-05,18.063,0,1.2042,6.713969E-07,18.063,0
1.2051,5.471885E-05,18.0765,0,1.2051,1.745632E-05,18.0765,0
1.206,4.46479E-05,18.09,0,1.206,-1.342794E-05,18.09,0
1.2069,3.189136E-05,18.1035,0,1.2069,-3.289845E-05,18.1035,0
1.2078,-1.644922E-05,18.117,0,1.2078,1.309224E-05,18.117,0
1.2087,2.920577E-05,18.1305,0,1.2087,1.208515E-05,18.1305,0
1.2096,0.0001077592,18.144,0,1.2096,-3.726253E-05,18.144,0
1.2105,2.349889E-06,18.1575,0,1.2105,-6.042573E-06,18.1575,0
1.2114,-3.591974E-05,18.171,0,1.2114,-2.685588E-06,18.171,0
1.2123,-7.956054E-05,18.1845,0,1.2123,-5.169757E-05,18.1845,0
1.2132,-0.0001010452,18.198,0,1.2132,-3.558404E-05,18.198,0
1.2141,-7.418937E-05,18.2115,0,1.2141,6.713969E-07,18.2115,0
1.215,-7.351797E-05,18.225,0,1.215,-2.920577E-05,18.225,0
1.2159,-9.030289E-05,18.2385,0,1.2159,-4.968337E-05,18.2385,0
1.2168,-6.57969E-05,18.252,0,1.2168,-7.083238E-05,18.252,0
1.2177,-4.33051E-05,18.2655,0,1.2177,-4.699779E-05,18.2655,0
1.2186,-4.39765E-05,18.279,0,1.2186,1.644922E-05,18.279,0
1.2195,2.349889E-06,18.2925,0,1.2195,2.349889E-05,18.2925,0
1.2204,7.788205E-05,18.306,0,1.2204,8.728161E-06,18.306,0
1.2213,6.143282E-05,18.3195,0,1.2213,2.047761E-05,18.3195,0
1.2222,7.620356E-05,18.333,0,1.2222,-7.049668E-06,18.333,0
1.2231,0.0001070878,18.3465,0,1.2231,-2.18204E-05,18.3465,0
1.224,4.39765E-05,18.36,0,1.224,2.517739E-05,18.36,0
1.2249,1.040665E-05,18.3735,0,1.2249,2.28275E-05,18.3735,0
1.2258,5.035477E-06,18.387,0,1.2258,-1.544213E-05,18.387,0
1.2267,-3.591974E-05,18.4005,0,1.2267,-1.040665E-05,18.4005,0
1.2276,-5.941863E-05,18.414,0,1.2276,2.081331E-05,18.414,0
1.2285,-2.014191E-06,18.4275,0,1.2285,2.484169E-05,18.4275,0
1.2294,9.063859E-06,18.441,0,1.2294,-1.678492E-05,18.441,0
1.2303,-2.18204E-05,18.4545,0,1.2303,-6.210422E-05,18.4545,0
1.2312,-8.392462E-06,18.468,0,1.2312,-5.706874E-05,18.468,0
1.2321,-3.054856E-05,18.4815,0,1.2321,-2.417029E-05,18.4815,0
1.233,-2.987716E-05,18.495,0,1.233,-9.433127E-05,18.495,0
1.2339,-1.007095E-06,18.5085,0,1.2339,-0.0001396506,18.5085,0
1.2348,-2.316319E-05,18.522,0,1.2348,-4.867628E-05,18.522,0
1.2357,-2.853437E-05,18.5355,0,1.2357,2.047761E-05,18.5355,0
1.2366,-2.584878E-05,18.549,0,1.2366,-1.040665E-05,18.549,0
1.2375,-2.24918E-05,18.5625,0,1.2375,1.913481E-05,18.5625,0
1.2384,-2.887007E-05,18.576,0,1.2384,6.713969E-06,18.576,0
1.2393,-1.107805E-05,18.5895,0,1.2393,-4.901198E-05,18.5895,0
1.2402,-6.54612E-05,18.603,0,1.2402,-1.745632E-05,18.603,0
1.2411,-5.404745E-05,18.6165,0,1.2411,-1.342794E-06,18.6165,0
1.242,-7.721065E-06,18.63,0,1.242,6.378271E-06,18.63,0
1.2429,-1.712062E-05,18.6435,0,1.2429,1.443504E-05,18.6435,0
1.2438,7.385367E-06,18.657,0,1.2438,-3.390555E-05,18.657,0
1.2447,4.46479E-05,18.6705,0,1.2447,-2.349889E-05,18.6705,0
1.2456,8.82887E-05,18.684,0,1.2456,-3.021286E-06,18.684,0
1.2465,9.768826E-05,18.6975,0,1.2465,-7.385367E-06,18.6975,0
1.2474,3.054856E-05,18.711,0,1.2474,-3.927672E-05,18.711,0
1.2483,-8.056763E-06,18.7245,0,1.2483,-2.517739E-05,18.7245,0
1.2492,-1.678492E-06,18.738,0,1.2492,-1.309224E-05,18.738,0
1.2501,-3.256275E-05,18.7515,0,1.2501,-6.210422E-05,18.7515,0
1.251,-5.706874E-05,18.765,0,1.251,-1.913481E-05,18.765,0
1.2519,-5.169757E-05,18.7785,0,1.2519,-4.028382E-06,18.7785,0
1.2528,-5.438316E-05,18.792,0,1.2528,-5.136187E-05,18.792,0
1.2537,3.356985E-07,18.8055,0,1.2537,-8.056763E-06,18.8055,0
1.2546,2.349889E-06,18.819,0,1.2546,1.678492E-05,18.819,0
1.2555,3.591974E-05,18.8325,0,1.2555,-1.947051E-05,18.8325,0
1.2564,-2.685588E-06,18.846,0,1.2564,-3.591974E-05,18.846,0
1.2573,3.457694E-05,18.8595,0,1.2573,-3.558404E-05,18.8595,0
1.2582,4.263371E-05,18.873,0,1.2582,9.063859E-06,18.873,0
1.2591,-4.867628E-05,18.8865,0,1.2591,3.155566E-05,18.8865,0
1.26,-7.016098E-05,18.9,0,1.26,-2.584878E-05,18.9,0
1.2609,-9.701686E-05,18.9135,0,1.2609,-7.183947E-05,18.9135,0
1.2618,-7.351797E-05,18.927,0,1.2618,9.399558E-06,18.927,0
1.2627,-7.553216E-05,18.9405,0,1.2627,1.577783E-05,18.9405,0
1.2636,-8.92958E-05,18.954,0,1.2636,-4.632639E-05,18.954,0
1.2645,-3.625543E-05,18.9675,0,1.2645,-4.061952E-05,18.9675,0
1.2654,2.853437E-05,18.981,0,1.2654,-1.107805E-05,18.981,0
1.2663,0.000126894,18.9945,0,1.2663,-1.107805E-05,18.9945,0
1.2672,0.0001537499,19.008,0,1.2672,9.399558E-06,19.008,0
1.2681,7.083238E-05,19.0215,0,1.2681,1.309224E-05,19.0215,0
1.269,7.351797E-05,19.035,0,1.269,-2.517739E-05,19.035,0
1.2699,6.6804E-05,19.0485,0,1.2699,-3.457694E-05,19.0485,0
1.2708,2.786297E-05,19.062,0,1.2708,-3.524834E-05,19.062,0
1.2717,-4.33051E-05,19.0755,0,1.2717,-7.821774E-05,19.0755,0
1.2726,-1.779202E-05,19.089,0,1.2726,-7.418937E-05,19.089,0
1.2735,1.779202E-05,19.1025,0,1.2735,-8.224613E-05,19.1025,0
1.2744,-2.584878E-05,19.116,0,1.2744,-5.673304E-05,19.116,0
1.2753,-6.344701E-05,19.1295,0,1.2753,2.719158E-05,19.1295,0
1.2762,-3.457694E-05,19.143,0,1.2762,1.846342E-05,19.143,0
1.2771,2.584878E-05,19.1565,0,1.2771,-4.666209E-05,19.1565,0
1.278,2.1149E-05,19.17,0,1.278,-6.042573E-06,19.17,0
1.2789,-2.417029E-05,19.1835,0,1.2789,-1.812772E-05,19.1835,0
1.2798,-3.994812E-05,19.197,0,1.2798,-4.565499E-05,19.197,0
1.2807,-1.510643E-05,19.2105,0,1.2807,-1.208515E-05,19.2105,0
1.2816,-4.129091E-05,19.224,0,1.2816,5.035477E-06,19.224,0
1.2825,-7.989624E-05,19.2375,0,1.2825,-1.644922E-05,19.2375,0
1.2834,-5.807584E-05,19.251,0,1.2834,-1.309224E-05,19.251,0
1.2843,-5.304036E-05,19.2645,0,1.2843,-2.450599E-05,19.2645,0
1.2852,-8.426032E-05,19.278,0,1.2852,4.36408E-06,19.278,0
1.2861,-7.821774E-05,19.2915,0,1.2861,2.1149E-05,19.2915,0
1.287,-2.652018E-05,19.305,0,1.287,-1.376364E-05,19.305,0
1.2879,-1.913481E-05,19.3185,0,1.2879,-8.426032E-05,19.3185,0
1.2888,-2.383459E-05,19.332,0,1.2888,-7.150377E-05,19.332,0
1.2897,-2.1149E-05,19.3455,0,1.2897,-8.459602E-05,19.3455,0
1.2906,-2.685588E-06,19.359,0,1.2906,-8.123904E-05,19.359,0
1.2915,3.726253E-05,19.3725,0,1.2915,-8.258183E-05,19.3725,0
1.2924,9.701686E-05,19.386,0,1.2924,-8.157473E-05,19.386,0
1.2933,0.0001003738,19.3995,0,1.2933,1.611353E-05,19.3995,0
1.2942,-1.242084E-05,19.413,0,1.2942,0.0001292439,19.413,0
1.2951,1.678492E-06,19.4265,0,1.2951,0.0001064164,19.4265,0
1.296,1.443504E-05,19.44,0,1.296,2.987716E-05,19.44,0
1.2969,-1.242084E-05,19.4535,0,1.2969,1.577783E-05,19.4535,0
1.2978,-9.735256E-06,19.467,0,1.2978,-4.800488E-05,19.467,0
1.2987,-2.517739E-05,19.4805,0,1.2987,-4.733349E-05,19.4805,0
1.2996,-2.584878E-05,19.494,0,1.2996,-8.728161E-06,19.494,0
1.3005,-2.819867E-05,19.5075,0,1.3005,-3.121996E-05,19.5075,0
1.3014,1.040665E-05,19.521,0,1.3014,-4.867628E-05,19.521,0
1.3023,5.706874E-06,19.5345,0,1.3023,1.040665E-05,19.5345,0
1.3032,-3.356985E-07,19.548,0,1.3032,-2.887007E-05,19.548,0
1.3041,5.706874E-06,19.5615,0,1.3041,-9.466698E-05,19.5615,0
1.305,1.174945E-05,19.575,0,1.305,-2.987716E-05,19.575,0
1.3059,2.752728E-05,19.5885,0,1.3059,2.316319E-05,19.5885,0
1.3068,1.007095E-06,19.602,0,1.3068,7.049668E-06,19.602,0
1.3077,9.399558E-06,19.6155,0,1.3077,-8.056763E-06,19.6155,0
1.3086,-8.392462E-06,19.629,0,1.3086,7.351797E-05,19.629,0
1.3095,7.721065E-06,19.6425,0,1.3095,8.123904E-05,19.6425,0
1.3104,2.887007E-05,19.656,0,1.3104,6.378271E-05,19.656,0
1.3113,2.28275E-05,19.6695,0,1.3113,-2.014191E-05,19.6695,0
1.3122,6.713969E-07,19.683,0,1.3122,1.678492E-06,19.683,0
1.3131,1.007095E-06,19.6965,0,1.3131,-5.706874E-06,19.6965,0
1.314,1.510643E-05,19.71,0,1.314,-4.968337E-05,19.71,0
1.3149,-3.692683E-06,19.7235,0,1.3149,-5.404745E-05,19.7235,0
1.3158,-3.457694E-05,19.737,0,1.3158,-1.577783E-05,19.737,0
1.3167,-3.726253E-05,19.7505,0,1.3167,-4.33051E-05,19.7505,0
1.3176,-2.853437E-05,19.764,0,1.3176,-8.69459E-05,19.764,0
1.3185,-8.056763E-06,19.7775,0,1.3185,-2.316319E-05,19.7775,0
1.3194,-3.222705E-05,19.791,0,1.3194,-1.678492E-06,19.791,0
1.3203,-6.54612E-05,19.8045,0,1.3203,-3.793393E-05,19.8045,0
1.3212,-1.443504E-05,19.818,0,1.3212,-2.450599E-05,19.818,0
1.3221,0,19.8315,0,1.3221,3.021286E-06,19.8315,0
1.323,-9.735256E-06,19.845,0,1.323,-1.309224E-05,19.845,0
1.3239,1.678492E-06,19.8585,0,1.3239,-2.786297E-05,19.8585,0
1.3248,2.349889E-06,19.872,0,1.3248,-5.740444E-05,19.872,0
1.3257,-3.356985E-06,19.8855,0,1.3257,-3.793393E-05,19.8855,0
1.3266,-8.728161E-06,19.899,0,1.3266,-1.208515E-05,19.899,0
1.3275,9.399558E-06,19.9125,0,1.3275,-3.390555E-05,19.9125,0
1.3284,1.980621E-05,19.926,0,1.3284,-4.33051E-05,19.926,0
1.3293,-6.64683E-05,19.9395,0,1.3293,-3.390555E-05,19.9395,0
1.3302,-4.33051E-05,19.953,0,1.3302,-3.457694E-05,19.953,0
1.3311,1.242084E-05,19.9665,0,1.3311,-5.673304E-05,19.9665,0
1.332,-1.846342E-05,19.98,0,1.332,-1.309224E-05,19.98,0
1.3329,-3.323415E-05,19.9935,0,1.3329,4.36408E-06,19.9935,0
1.3338,-5.203327E-05,20.007,0,1.3338,-2.786297E-05,20.007,0
1.3347,-4.061952E-05,20.0205,0,1.3347,-3.054856E-05,20.0205,0
1.3356,4.599069E-05,20.034,0,1.3356,9.063859E-06,20.034,0
1.3365,1.577783E-05,20.0475,0,1.3365,9.063859E-06,20.0475,0
1.3374,-5.270466E-05,20.061,0,1.3374,-2.450599E-05,20.061,0
1.3383,-5.539025E-05,20.0745,0,1.3383,-6.176852E-05,20.0745,0
1.3392,1.007095E-06,20.088,0,1.3392,-2.853437E-05,20.088,0
1.3401,1.510643E-05,20.1015,0,1.3401,2.1149E-05,20.1015,0
1.341,-2.349889E-06,20.115,0,1.341,-1.678492E-06,20.115,0
1.3419,-1.712062E-05,20.1285,0,1.3419,-2.652018E-05,20.1285,0
1.3428,3.356985E-07,20.142,0,1.3428,1.510643E-05,20.142,0
1.3437,5.035477E-06,20.1555,0,1.3437,-2.18204E-05,20.1555,0
1.3446,-5.706874E-06,20.169,0,1.3446,-6.143282E-05,20.169,0
1.3455,-1.812772E-05,20.1825,0,1.3455,-1.846342E-05,20.1825,0
1.3464,-1.577783E-05,20.196,0,1.3464,-1.208515E-05,20.196,0
1.3473,-1.510643E-05,20.2095,0,1.3473,-4.666209E-05,20.2095,0
1.3482,-4.632639E-05,20.223,0,1.3482,-5.035477E-06,20.223,0
1.3491,-6.478981E-05,20.2365,0,1.3491,1.409934E-05,20.2365,0
1.35,-6.042573E-06,20.25,0,1.35,1.678492E-06,20.25,0
1.3509,2.652018E-05,20.2635,0,1.3509,1.846342E-05,20.2635,0
1.3518,4.934768E-05,20.277,0,1.3518,1.846342E-05,20.277,0
1.3527,1.980621E-05,20.2905,0,1.3527,1.443504E-05,20.2905,0
1.3536,-1.913481E-05,20.304,0,1.3536,-2.786297E-05,20.304,0
1.3545,2.652018E-05,20.3175,0,1.3545,-6.076142E-05,20.3175,0
1.3554,2.014191E-06,20.331,0,1.3554,-9.433127E-05,20.331,0
1.3563,-1.007095E-06,20.3445,0,1.3563,-3.121996E-05,20.3445,0
1.3572,1.007095E-06,20.358,0,1.3572,2.349889E-06,20.358,0
1.3581,-2.014191E-06,20.3715,0,1.3581,-6.982528E-05,20.3715,0
1.359,2.014191E-06,20.385,0,1.359,-1.577783E-05,20.385,0
1.3599,4.934768E-05,20.3985,0,1.3599,3.457694E-05,20.3985,0
1.3608,4.263371E-05,20.412,0,1.3608,-1.510643E-05,20.412,0
1.3617,-1.443504E-05,20.4255,0,1.3617,-3.457694E-05,20.4255,0
1.3626,-5.706874E-06,20.439,0,1.3626,-2.24918E-05,20.439,0
1.3635,5.304036E-05,20.4525,0,1.3635,-9.735256E-06,20.4525,0
1.3644,-1.712062E-05,20.466,0,1.3644,-2.484169E-05,20.466,0
1.3653,-5.203327E-05,20.4795,0,1.3653,-2.584878E-05,20.4795,0
1.3662,-4.061952E-05,20.493,0,1.3662,-2.047761E-05,20.493,0
1.3671,-3.323415E-05,20.5065,0,1.3671,-4.632639E-05,20.5065,0
1.368,-1.107805E-05,20.52,0,1.368,-8.426032E-05,20.52,0
1.3689,6.378271E-06,20.5335,0,1.3689,-6.411841E-05,20.5335,0
1.3698,8.392462E-06,20.547,0,1.3698,-2.014191E-06,20.547,0
1.3707,1.678492E-06,20.5605,0,1.3707,3.793393E-05,20.5605,0
1.3716,4.43122E-05,20.574,0,1.3716,6.210422E-05,20.574,0
1.3725,-6.378271E-06,20.5875,0,1.3725,-1.174945E-05,20.5875,0
1.3734,-9.533837E-05,20.601,0,1.3734,-5.975433E-05,20.601,0
1.3743,-6.210422E-05,20.6145,0,1.3743,-5.203327E-05,20.6145,0
1.3752,-6.78111E-05,20.628,0,1.3752,-2.887007E-05,20.628,0
1.3761,-8.157473E-05,20.6415,0,1.3761,-1.275654E-05,20.6415,0
1.377,-3.491264E-05,20.655,0,1.377,-1.779202E-05,20.655,0
1.3779,-1.678492E-06,20.6685,0,1.3779,-4.36408E-06,20.6685,0
1.3788,5.706874E-05,20.682,0,1.3788,2.618448E-05,20.682,0
1.3797,9.198138E-05,20.6955,0,1.3797,6.076142E-05,20.6955,0
1.3806,9.332418E-05,20.709,0,1.3806,3.793393E-05,20.709,0
1.3815,3.659113E-05,20.7225,0,1.3815,-3.054856E-05,20.7225,0
1.3824,1.376364E-05,20.736,0,1.3824,-3.189136E-05,20.736,0
1.3833,-1.913481E-05,20.7495,0,1.3833,2.819867E-05,20.7495,0
1.3842,1.577783E-05,20.763,0,1.3842,2.28275E-05,20.763,0
1.3851,-1.846342E-05,20.7765,0,1.3851,-3.927672E-05,20.7765,0
1.386,-1.443504E-05,20.79,0,1.386,-1.376364E-05,20.79,0
1.3869,1.208515E-05,20.8035,0,1.3869,1.174945E-05,20.8035,0
1.3878,2.316319E-05,20.817,0,1.3878,-3.793393E-05,20.817,0
1.3887,4.699779E-06,20.8305,0,1.3887,-8.72816E-05,20.8305,0
1.3896,-4.666209E-05,20.844,0,1.3896,-5.874724E-05,20.844,0
1.3905,-6.210422E-05,20.8575,0,1.3905,-3.659113E-05,20.8575,0
1.3914,-3.558404E-05,20.871,0,1.3914,-2.383459E-05,20.871,0
1.3923,-3.054856E-05,20.8845,0,1.3923,-4.196231E-05,20.8845,0
1.3932,-6.64683E-05,20.898,0,1.3932,-4.934768E-05,20.898,0
1.3941,-3.894102E-05,20.9115,0,1.3941,-1.208515E-05,20.9115,0
1.395,-5.035477E-06,20.925,0,1.395,-2.819867E-05,20.925,0
1.3959,-2.18204E-05,20.9385,0,1.3959,-4.162661E-05,20.9385,0
1.3968,-3.457694E-05,20.952,0,1.3968,-2.551309E-05,20.952,0
1.3977,-1.242084E-05,20.9655,0,1.3977,-2.887007E-05,20.9655,0
1.3986,3.189136E-05,20.979,0,1.3986,-5.941863E-05,20.979,0
1.3995,3.189136E-05,20.9925,0,1.3995,-1.107805E-05,20.9925,0
1.4004,2.920577E-05,21.006,0,1.4004,-1.376364E-05,21.006,0
1.4013,3.021286E-06,21.0195,0,1.4013,-3.726253E-05,21.0195,0
1.4022,-3.692683E-05,21.033,0,1.4022,5.035477E-06,21.033,0
1.4031,-2.517739E-05,21.0465,0,1.4031,1.107805E-05,21.0465,0
1.404,5.606165E-05,21.06,0,1.404,-9.063859E-06,21.06,0
1.4049,4.666209E-05,21.0735,0,1.4049,-1.342794E-06,21.0735,0
1.4058,5.270466E-05,21.087,0,1.4058,-3.424125E-05,21.087,0
1.4067,3.826963E-05,21.1005,0,1.4067,-3.356985E-05,21.1005,0
1.4076,-2.316319E-05,21.114,0,1.4076,-2.349889E-06,21.114,0
1.4085,-1.913481E-05,21.1275,0,1.4085,-4.968337E-05,21.1275,0
1.4094,-2.24918E-05,21.141,0,1.4094,-9.433127E-05,21.141,0
1.4103,-5.740444E-05,21.1545,0,1.4103,-5.841154E-05,21.1545,0
1.4112,-6.54612E-05,21.168,0,1.4112,-2.18204E-05,21.168,0
1.4121,-7.049668E-06,21.1815,0,1.4121,-3.424125E-05,21.1815,0
1.413,-4.699779E-06,21.195,0,1.413,-4.36408E-06,21.195,0
1.4139,-6.109713E-05,21.2085,0,1.4139,3.524834E-05,21.2085,0
1.4148,-2.853437E-05,21.222,0,1.4148,1.443504E-05,21.222,0
1.4157,5.001907E-05,21.2355,0,1.4157,1.174945E-05,21.2355,0
1.4166,1.309224E-05,21.249,0,1.4166,8.728161E-06,21.249,0
1.4175,3.356985E-07,21.2625,0,1.4175,-3.356985E-07,21.2625,0
1.4184,-1.275654E-05,21.276,0,1.4184,1.678492E-06,21.276,0
1.4193,-1.242084E-05,21.2895,0,1.4193,-3.692683E-05,21.2895,0
1.4202,-4.36408E-06,21.303,0,1.4202,-3.659113E-05,21.303,0
1.4211,-2.887007E-05,21.3165,0,1.4211,-1.242084E-05,21.3165,0
1.422,3.356985E-07,21.33,0,1.422,-2.316319E-05,21.33,0
1.4229,2.517739E-05,21.3435,0,1.4229,-6.948959E-05,21.3435,0
1.4238,1.577783E-05,21.357,0,1.4238,5.706874E-06,21.357,0
1.4247,1.040665E-05,21.3705,0,1.4247,1.174945E-05,21.3705,0
1.4256,8.392462E-06,21.384,0,1.4256,-3.860533E-05,21.384,0
1.4265,-7.049668E-06,21.3975,0,1.4265,3.692683E-06,21.3975,0
1.4274,-3.121996E-05,21.411,0,1.4274,-8.392462E-06,21.411,0
1.4283,-2.18204E-05,21.4245,0,1.4283,-3.591974E-05,21.4245,0
1.4292,-6.378271E-06,21.438,0,1.4292,-5.001907E-05,21.438,0
1.4301,-6.042573E-06,21.4515,0,1.4301,-1.980621E-05,21.4515,0
1.431,-2.517739E-05,21.465,0,1.431,-1.913481E-05,21.465,0
1.4319,-2.517739E-05,21.4785,0,1.4319,-1.242084E-05,21.4785,0
1.4328,-1.007095E-06,21.492,0,1.4328,-3.927672E-05,21.492,0
1.4337,-1.846342E-05,21.5055,0,1.4337,-1.779202E-05,21.5055,0
1.4346,-2.887007E-05,21.519,0,1.4346,2.349889E-05,21.519,0
1.4355,2.349889E-06,21.5325,0,1.4355,3.692683E-06,21.5325,0
1.4364,1.376364E-05,21.546,0,1.4364,-2.18204E-05,21.546,0
1.4373,-2.987716E-05,21.5595,0,1.4373,1.007095E-05,21.5595,0
1.4382,-2.484169E-05,21.573,0,1.4382,4.36408E-06,21.573,0
1.4391,-1.040665E-05,21.5865,0,1.4391,-4.061952E-05,21.5865,0
1.44,-7.183947E-05,21.6,0,1.44,-4.36408E-06,21.6,0
1.4409,-9.231708E-05,21.6135,0,1.4409,-7.721065E-06,21.6135,0
1.4418,-6.009003E-05,21.627,0,1.4418,-5.606165E-05,21.627,0
1.4427,-2.887007E-05,21.6405,0,1.4427,-4.196231E-05,21.6405,0
1.4436,-4.53193E-05,21.654,0,1.4436,1.577783E-05,21.654,0
1.4445,-3.356985E-07,21.6675,0,1.4445,6.378271E-06,21.6675,0
1.4454,2.047761E-05,21.681,0,1.4454,-3.021286E-06,21.681,0
1.4463,1.040665E-05,21.6945,0,1.4463,-4.129091E-05,21.6945,0
1.4472,1.242084E-05,21.708,0,1.4472,-8.728161E-06,21.708,0
1.4481,-8.392462E-06,21.7215,0,1.4481,5.035477E-06,21.7215,0
1.449,-7.385367E-06,21.735,0,1.449,-8.728161E-06,21.735,0
1.4499,2.1149E-05,21.7485,0,1.4499,-3.524834E-05,21.7485,0
1.4508,-1.846342E-05,21.762,0,1.4508,2.014191E-06,21.762,0
1.4517,5.706874E-06,21.7755,0,1.4517,-9.735256E-06,21.7755,0
1.4526,5.572595E-05,21.789,0,1.4526,-4.46479E-05,21.789,0
1.4535,4.061952E-05,21.8025,0,1.4535,-6.378271E-06,21.8025,0
1.4544,5.270466E-05,21.816,0,1.4544,1.141375E-05,21.816,0
1.4553,7.049668E-05,21.8295,0,1.4553,-4.36408E-06,21.8295,0
1.4562,5.606165E-05,21.843,0,1.4562,-1.040665E-05,21.843,0
1.4571,1.007095E-06,21.8565,0,1.4571,-1.040665E-05,21.8565,0
1.458,-3.961242E-05,21.87,0,1.458,-2.584878E-05,21.87,0
1.4589,-5.706874E-06,21.8835,0,1.4589,-3.256275E-05,21.8835,0
1.4598,1.409934E-05,21.897,0,1.4598,-5.874724E-05,21.897,0
1.4607,5.035477E-06,21.9105,0,1.4607,-3.390555E-05,21.9105,0
1.4616,-3.054856E-05,21.924,0,1.4616,-2.18204E-05,21.924,0
1.4625,-2.786297E-05,21.9375,0,1.4625,-4.229801E-05,21.9375,0
1.4634,-7.049668E-06,21.951,0,1.4634,-4.53193E-05,21.951,0
1.4643,-8.392462E-06,21.9645,0,1.4643,-5.706874E-06,21.9645,0
1.4652,-1.107805E-05,21.978,0,1.4652,-1.947051E-05,21.978,0
1.4661,-1.712062E-05,21.9915,0,1.4661,-4.934768E-05,21.9915,0
1.467,-2.618448E-05,22.005,0,1.467,-1.846342E-05,22.005,0
1.4679,4.196231E-05,22.0185,0,1.4679,6.713969E-06,22.0185,0
1.4688,2.987716E-05,22.032,0,1.4688,-3.759823E-05,22.032,0
1.4697,-1.040665E-05,22.0455,0,1.4697,-2.18204E-05,22.0455,0
1.4706,-1.980621E-05,22.059,0,1.4706,1.409934E-05,22.059,0
1.4715,-1.040665E-05,22.0725,0,1.4715,5.069047E-05,22.0725,0
1.4724,-5.001907E-05,22.086,0,1.4724,-1.678492E-05,22.086,0
1.4733,-2.349889E-06,22.0995,0,1.4733,-3.860533E-05,22.0995,0
1.4742,9.735256E-06,22.113,0,1.4742,-2.18204E-05,22.113,0
1.4751,-1.107805E-05,22.1265,0,1.4751,-1.846342E-05,22.1265,0
1.476,1.846342E-05,22.14,0,1.476,-2.24918E-05,22.14,0
1.4769,2.21561E-05,22.1535,0,1.4769,-2.28275E-05,22.1535,0
1.4778,1.678492E-06,22.167,0,1.4778,-3.356985E-07,22.167,0
1.4787,-2.316319E-05,22.1805,0,1.4787,-2.18204E-05,22.1805,0
1.4796,-2.349889E-06,22.194,0,1.4796,-7.620356E-05,22.194,0
1.4805,-3.726253E-05,22.2075,0,1.4805,-5.874724E-05,22.2075,0
1.4814,-2.28275E-05,22.221,0,1.4814,-2.652018E-05,22.221,0
1.4823,-3.021286E-05,22.2345,0,1.4823,-4.666209E-05,22.2345,0
1.4832,-5.270466E-05,22.248,0,1.4832,1.678492E-05,22.248,0
1.4841,-2.383459E-05,22.2615,0,1.4841,4.095522E-05,22.2615,0
1.485,-3.155566E-05,22.275,0,1.485,-1.342794E-05,22.275,0
1.4859,-1.644922E-05,22.2885,0,1.4859,-1.779202E-05,22.2885,0
1.4868,-1.309224E-05,22.302,0,1.4868,-2.618448E-05,22.302,0
1.4877,1.779202E-05,22.3155,0,1.4877,-2.349889E-06,22.3155,0
1.4886,2.853437E-05,22.329,0,1.4886,2.987716E-05,22.329,0
1.4895,1.779202E-05,22.3425,0,1.4895,1.208515E-05,22.3425,0
1.4904,2.047761E-05,22.356,0,1.4904,-2.1149E-05,22.356,0
1.4913,-3.021286E-06,22.3695,0,1.4913,1.577783E-05,22.3695,0
1.4922,-2.18204E-05,22.383,0,1.4922,-3.726253E-05,22.383,0
1.4931,-7.721065E-06,22.3965,0,1.4931,-0.0001151446,22.3965,0
1.494,2.853437E-05,22.41,0,1.494,-3.927672E-05,22.41,0
1.4949,2.014191E-05,22.4235,0,1.4949,-9.399558E-06,22.4235,0
1.4958,-5.706874E-06,22.437,0,1.4958,-5.136187E-05,22.437,0
1.4967,-1.107805E-05,22.4505,0,1.4967,-3.659113E-05,22.4505,0
1.4976,-3.155566E-05,22.464,0,1.4976,2.014191E-06,22.464,0
1.4985,-4.162661E-05,22.4775,0,1.4985,-1.275654E-05,22.4775,0
1.4994,-4.129091E-05,22.491,0,1.4994,-2.920577E-05,22.491,0
1.5003,6.713969E-06,22.5045,0,1.5003,-3.323415E-05,22.5045,0
1.5012,-2.819867E-05,22.518,0,1.5012,1.040665E-05,22.518,0
1.5021,-4.867628E-05,22.5315,0,1.5021,3.994812E-05,22.5315,0
1.503,1.040665E-05,22.545,0,1.503,-1.712062E-05,22.545,0
1.5039,1.712062E-05,22.5585,0,1.5039,-3.692683E-05,22.5585,0
1.5048,-2.18204E-05,22.572,0,1.5048,1.678492E-06,22.572,0
1.5057,-2.081331E-05,22.5855,0,1.5057,-1.040665E-05,22.5855,0
1.5066,-7.385367E-06,22.599,0,1.5066,-7.620356E-05,22.599,0
1.5075,-3.692683E-05,22.6125,0,1.5075,-7.721065E-06,22.6125,0
1.5084,-1.376364E-05,22.626,0,1.5084,-7.049668E-06,22.626,0
1.5093,-1.913481E-05,22.6395,0,1.5093,-7.083238E-05,22.6395,0
1.5102,-4.565499E-05,22.653,0,1.5102,-2.920577E-05,22.653,0
1.5111,-4.867628E-05,22.6665,0,1.5111,-7.721065E-06,22.6665,0
1.512,-4.39765E-05,22.68,0,1.512,-3.021286E-05,22.68,0
1.5129,-8.392462E-06,22.6935,0,1.5129,-2.047761E-05,22.6935,0
1.5138,4.196231E-05,22.707,0,1.5138,-2.887007E-05,22.707,0
1.5147,3.826963E-05,22.7205,0,1.5147,-1.678492E-06,22.7205,0
1.5156,-3.961242E-05,22.734,0,1.5156,-1.510643E-05,22.734,0
1.5165,-3.961242E-05,22.7475,0,1.5165,-4.196231E-05,22.7475,0
1.5174,-9.063859E-06,22.761,0,1.5174,-8.627451E-05,22.761,0
1.5183,-3.256275E-05,22.7745,0,1.5183,-5.471885E-05,22.7745,0
1.5192,-5.706874E-06,22.788,0,1.5192,-4.196231E-05,22.788,0
1.5201,5.035477E-05,22.8015,0,1.5201,-6.881819E-05,22.8015,0
1.521,8.392462E-06,22.815,0,1.521,1.678492E-06,22.815,0
1.5219,5.035477E-06,22.8285,0,1.5219,3.524834E-05,22.8285,0
1.5228,1.141375E-05,22.842,0,1.5228,2.014191E-06,22.842,0
1.5237,5.035477E-06,22.8555,0,1.5237,2.719158E-05,22.8555,0
1.5246,1.544213E-05,22.869,0,1.5246,4.867628E-05,22.869,0
1.5255,1.846342E-05,22.8825,0,1.5255,2.383459E-05,22.8825,0
1.5264,2.752728E-05,22.896,0,1.5264,1.577783E-05,22.896,0
1.5273,4.666209E-05,22.9095,0,1.5273,-1.510643E-05,22.9095,0
1.5282,4.632639E-05,22.923,0,1.5282,3.356985E-06,22.923,0
1.5291,-1.376364E-05,22.9365,0,1.5291,-5.371176E-06,22.9365,0
1.53,-4.36408E-05,22.95,0,1.53,-2.18204E-05,22.95,0
1.5309,-8.392462E-06,22.9635,0,1.5309,-3.524834E-05,22.9635,0
1.5318,-2.349889E-06,22.977,0,1.5318,5.706874E-06,22.977,0
1.5327,5.035477E-06,22.9905,0,1.5327,-1.712062E-05,22.9905,0
1.5336,-1.007095E-05,23.004,0,1.5336,-4.934768E-05,23.004,0
1.5345,-1.980621E-05,23.0175,0,1.5345,6.378271E-06,23.0175,0
1.5354,-1.376364E-05,23.031,0,1.5354,-1.846342E-05,23.031,0
1.5363,-5.807584E-05,23.0445,0,1.5363,-6.277562E-05,23.0445,0
1.5372,-3.591974E-05,23.058,0,1.5372,-3.591974E-05,23.058,0
1.5381,-4.061952E-05,23.0715,0,1.5381,-2.383459E-05,23.0715,0
1.539,-3.390555E-05,23.085,0,1.539,-2.450599E-05,23.085,0
1.5399,-3.356985E-07,23.0985,0,1.5399,-2.081331E-05,23.0985,0
1.5408,3.591974E-05,23.112,0,1.5408,-3.927672E-05,23.112,0
1.5417,3.289845E-05,23.1255,0,1.5417,-1.376364E-05,23.1255,0
1.5426,4.36408E-05,23.139,0,1.5426,-3.692683E-06,23.139,0
1.5435,5.169757E-05,23.1525,0,1.5435,-6.378271E-06,23.1525,0
1.5444,3.692683E-06,23.166,0,1.5444,-1.174945E-05,23.166,0
1.5453,-6.948959E-05,23.1795,0,1.5453,-9.063859E-06,23.1795,0
1.5462,-4.934768E-05,23.193,0,1.5462,-3.289845E-05,23.193,0
1.5471,-3.021286E-05,23.2065,0,1.5471,-5.304036E-05,23.2065,0
1.548,-5.001907E-05,23.22,0,1.548,2.349889E-06,23.22,0
1.5489,-4.36408E-06,23.2335,0,1.5489,2.652018E-05,23.2335,0
1.5498,1.309224E-05,23.247,0,1.5498,-4.666209E-05,23.247,0
1.5507,2.752728E-05,23.2605,0,1.5507,-7.653925E-05,23.2605,0
1.5516,-2.047761E-05,23.274,0,1.5516,-2.920577E-05,23.274,0
1.5525,1.007095E-05,23.2875,0,1.5525,-5.438316E-05,23.2875,0
1.5534,8.392462E-06,23.301,0,1.5534,-9.735256E-06,23.301,0
1.5543,-9.735256E-06,23.3145,0,1.5543,2.047761E-05,23.3145,0
1.5552,-1.913481E-05,23.328,0,1.5552,-6.713969E-06,23.328,0
1.5561,-5.673304E-05,23.3415,0,1.5561,-4.061952E-05,23.3415,0
1.557,-6.64683E-05,23.355,0,1.557,-7.217517E-05,23.355,0
1.5579,-2.987716E-05,23.3685,0,1.5579,-6.411841E-05,23.3685,0
1.5588,-1.846342E-05,23.382,0,1.5588,-9.399558E-06,23.382,0
1.5597,1.443504E-05,23.3955,0,1.5597,-5.706874E-06,23.3955,0
1.5606,5.706874E-05,23.409,0,1.5606,-1.007095E-06,23.409,0
1.5615,1.577783E-05,23.4225,0,1.5615,4.061952E-05,23.4225,0
1.5624,8.056763E-06,23.436,0,1.5624,2.786297E-05,23.436,0
1.5633,4.095522E-05,23.4495,0,1.5633,-1.174945E-05,23.4495,0
1.5642,0,23.463,0,1.5642,-1.443504E-05,23.463,0
1.5651,-1.141375E-05,23.4765,0,1.5651,-6.378271E-06,23.4765,0
1.566,-3.021286E-06,23.49,0,1.566,-3.121996E-05,23.49,0
1.5669,-2.1149E-05,23.5035,0,1.5669,-3.591974E-05,23.5035,0
1.5678,-7.721065E-06,23.517,0,1.5678,-2.21561E-05,23.517,0
1.5687,2.014191E-05,23.5305,0,1.5687,3.356985E-07,23.5305,0
1.5696,7.721065E-06,23.544,0,1.5696,-1.376364E-05,23.544,0
1.5705,-2.786297E-05,23.5575,0,1.5705,-2.349889E-05,23.5575,0
1.5714,-1.376364E-05,23.571,0,1.5714,-5.069047E-05,23.571,0
1.5723,-1.174945E-05,23.5845,0,1.5723,-3.356985E-07,23.5845,0
1.5732,-3.256275E-05,23.598,0,1.5732,-7.721065E-06,23.598,0
1.5741,-2.887007E-05,23.6115,0,1.5741,-3.189136E-05,23.6115,0
1.575,-5.236896E-05,23.625,0,1.575,3.356985E-05,23.625,0
1.5759,-1.846342E-05,23.6385,0,1.5759,1.174945E-05,23.6385,0
1.5768,3.021286E-06,23.652,0,1.5768,-4.766919E-05,23.652,0
1.5777,4.129091E-05,23.6655,0,1.5777,-3.558404E-05,23.6655,0
1.5786,2.786297E-05,23.679,0,1.5786,2.349889E-06,23.679,0
1.5795,2.652018E-05,23.6925,0,1.5795,-1.242084E-05,23.6925,0
1.5804,4.43122E-05,23.706,0,1.5804,-2.987716E-05,23.706,0
1.5813,2.584878E-05,23.7195,0,1.5813,-4.800488E-05,23.7195,0
1.5822,-3.021286E-06,23.733,0,1.5822,-1.376364E-05,23.733,0
1.5831,-2.1149E-05,23.7465,0,1.5831,-1.779202E-05,23.7465,0
1.584,-1.644922E-05,23.76,0,1.584,-2.18204E-05,23.76,0
1.5849,-2.047761E-05,23.7735,0,1.5849,2.450599E-05,23.7735,0
1.5858,-3.323415E-05,23.787,0,1.5858,6.277562E-05,23.787,0
1.5867,-4.599069E-05,23.8005,0,1.5867,-3.692683E-06,23.8005,0
1.5876,2.450599E-05,23.814,0,1.5876,-5.639734E-05,23.814,0
1.5885,-2.987716E-05,23.8275,0,1.5885,-7.486076E-05,23.8275,0
1.5894,-4.229801E-05,23.841,0,1.5894,-7.150377E-05,23.841,0
1.5903,-9.735256E-06,23.8545,0,1.5903,-8.761731E-05,23.8545,0
1.5912,-4.196231E-05,23.868,0,1.5912,-2.450599E-05,23.868,0
1.5921,-5.606165E-05,23.8815,0,1.5921,1.107805E-05,23.8815,0
1.593,-3.356985E-07,23.895,0,1.593,-2.1149E-05,23.895,0
1.5939,1.745632E-05,23.9085,0,1.5939,-2.652018E-05,23.9085,0
1.5948,-1.040665E-05,23.922,0,1.5948,-6.009003E-05,23.922,0
1.5957,1.947051E-05,23.9355,0,1.5957,-4.934768E-05,23.9355,0
1.5966,1.275654E-05,23.949,0,1.5966,-6.042573E-06,23.949,0
1.5975,2.618448E-05,23.9625,0,1.5975,-1.174945E-05,23.9625,0
1.5984,3.524834E-05,23.976,0,1.5984,-2.786297E-05,23.976,0
1.5993,9.399558E-06,23.9895,0,1.5993,1.712062E-05,23.9895,0
1.6002,-1.007095E-06,24.003,0,1.6002,3.021286E-06,24.003,0
1.6011,-1.376364E-05,24.0165,0,1.6011,-3.726253E-05,24.0165,0
1.602,-5.606165E-05,24.03,0,1.602,-3.021286E-06,24.03,0
1.6029,-7.385367E-05,24.0435,0,1.6029,-3.692683E-06,24.0435,0
1.6038,-2.853437E-05,24.057,0,1.6038,-2.517739E-05,24.057,0
1.6047,9.063859E-06,24.0705,0,1.6047,-2.551309E-05,24.0705,0
1.6056,-7.385367E-05,24.084,0,1.6056,-1.007095E-06,24.084,0
1.6065,-6.478981E-05,24.0975,0,1.6065,-3.021286E-06,24.0975,0
1.6074,-3.524834E-05,24.111,0,1.6074,-1.510643E-05,24.111,0
1.6083,-2.450599E-05,24.1245,0,1.6083,-2.987716E-05,24.1245,0
1.6092,-4.196231E-05,24.138,0,1.6092,-1.107805E-05,24.138,0
1.6101,-4.196231E-05,24.1515,0,1.6101,-1.678492E-06,24.1515,0
1.611,4.028382E-06,24.165,0,1.611,-1.980621E-05,24.165,0
1.6119,1.007095E-05,24.1785,0,1.6119,-3.793393E-05,24.1785,0
1.6128,2.316319E-05,24.192,0,1.6128,4.699779E-06,24.192,0
1.6137,1.040665E-05,24.2055,0,1.6137,-1.779202E-05,24.2055,0
1.6146,-8.056763E-06,24.219,0,1.6146,-9.835965E-05,24.219,0
1.6155,-1.678492E-06,24.2325,0,1.6155,-3.860533E-05,24.2325,0
1.6164,1.409934E-05,24.246,0,1.6164,-1.644922E-05,24.246,0
1.6173,2.584878E-05,24.2595,0,1.6173,-3.390555E-05,24.2595,0
1.6182,2.484169E-05,24.273,0,1.6182,8.392462E-06,24.273,0
1.6191,3.692683E-06,24.2865,0,1.6191,1.947051E-05,24.2865,0
1.62,-1.644922E-05,24.3,0,1.62,-1.644922E-05,24.3,0
1.6209,-4.599069E-05,24.3135,0,1.6209,-3.457694E-05,24.3135,0
1.6218,-8.392462E-06,24.327,0,1.6218,-2.719158E-05,24.327,0
1.6227,1.644922E-05,24.3405,0,1.6227,1.678492E-06,24.3405,0
1.6236,-4.800488E-05,24.354,0,1.6236,3.054856E-05,24.354,0
1.6245,-3.927672E-05,24.3675,0,1.6245,-1.510643E-05,24.3675,0
1.6254,1.443504E-05,24.381,0,1.6254,-2.819867E-05,24.381,0
1.6263,-2.349889E-06,24.3945,0,1.6263,2.047761E-05,24.3945,0
1.6272,-2.349889E-05,24.408,0,1.6272,7.721065E-06,24.408,0
1.6281,-3.356985E-07,24.4215,0,1.6281,-5.471885E-05,24.4215,0
1.629,3.189136E-05,24.435,0,1.629,1.242084E-05,24.435,0
1.6299,5.706874E-05,24.4485,0,1.6299,3.189136E-05,24.4485,0
1.6308,6.378271E-05,24.462,0,1.6308,-4.968337E-05,24.462,0
1.6317,3.323415E-05,24.4755,0,1.6317,-6.54612E-05,24.4755,0
1.6326,1.376364E-05,24.489,0,1.6326,-3.826963E-05,24.489,0
1.6335,2.584878E-05,24.5025,0,1.6335,-4.196231E-05,24.5025,0
1.6344,2.047761E-05,24.516,0,1.6344,-2.047761E-05,24.516,0
1.6353,-1.510643E-05,24.5295,0,1.6353,1.980621E-05,24.5295,0
1.6362,-5.673304E-05,24.543,0,1.6362,2.014191E-05,24.543,0
1.6371,-2.450599E-05,24.5565,0,1.6371,-1.409934E-05,24.5565,0
1.638,1.309224E-05,24.57,0,1.638,-3.591974E-05,24.57,0
1.6389,3.390555E-05,24.5835,0,1.6389,-5.270466E-05,24.5835,0
1.6398,-2.450599E-05,24.597,0,1.6398,-1.443504E-05,24.597,0
1.6407,-3.860533E-05,24.6105,0,1.6407,-1.510643E-05,24.6105,0
1.6416,9.063859E-06,24.624,0,1.6416,-4.699779E-05,24.624,0
1.6425,-3.356985E-07,24.6375,0,1.6425,1.678492E-06,24.6375,0
1.6434,-2.584878E-05,24.651,0,1.6434,-1.007095E-06,24.651,0
1.6443,-2.719158E-05,24.6645,0,1.6443,-5.136187E-05,24.6645,0
1.6452,-2.719158E-05,24.678,0,1.6452,-2.551309E-05,24.678,0
1.6461,-4.968337E-05,24.6915,0,1.6461,-1.242084E-05,24.6915,0
1.647,-4.36408E-05,24.705,0,1.647,-3.121996E-05,24.705,0
1.6479,-5.706874E-06,24.7185,0,1.6479,-2.1149E-05,24.7185,0
1.6488,3.054856E-05,24.732,0,1.6488,-3.659113E-05,24.732,0
1.6497,9.735256E-06,24.7455,0,1.6497,-8.392462E-06,24.7455,0
1.6506,-1.376364E-05,24.759,0,1.6506,1.510643E-05,24.759,0
1.6515,-1.107805E-05,24.7725,0,1.6515,-1.644922E-05,24.7725,0
1.6524,1.577783E-05,24.786,0,1.6524,-4.599069E-05,24.786,0
1.6533,-3.356985E-06,24.7995,0,1.6533,-1.074235E-05,24.7995,0
1.6542,-1.174945E-05,24.813,0,1.6542,-7.049668E-06,24.813,0
1.6551,-1.678492E-06,24.8265,0,1.6551,-4.36408E-05,24.8265,0
1.656,-1.913481E-05,24.84,0,1.656,-5.706874E-06,24.84,0
1.6569,1.309224E-05,24.8535,0,1.6569,6.713969E-07,24.8535,0
1.6578,2.517739E-05,24.867,0,1.6578,-4.196231E-05,24.867,0
1.6587,-5.001907E-05,24.8805,0,1.6587,-2.584878E-05,24.8805,0
1.6596,-2.517739E-05,24.894,0,1.6596,4.699779E-06,24.894,0
1.6605,-1.678492E-06,24.9075,0,1.6605,9.735256E-06,24.9075,0
1.6614,-1.007095E-06,24.921,0,1.6614,-9.735256E-06,24.921,0
1.6623,8.728161E-06,24.9345,0,1.6623,-2.316319E-05,24.9345,0
1.6632,-1.242084E-05,24.948,0,1.6632,3.054856E-05,24.948,0
1.6641,-1.107805E-05,24.9615,0,1.6641,-1.678492E-06,24.9615,0
1.665,-3.021286E-06,24.975,0,1.665,-4.599069E-05,24.975,0
1.6659,1.678492E-06,24.9885,0,1.6659,-5.740444E-05,24.9885,0
1.6668,-2.517739E-05,25.002,0,1.6668,-1.577783E-05,25.002,0
1.6677,-2.316319E-05,25.0155,0,1.6677,-2.819867E-05,25.0155,0
1.6686,5.035477E-06,25.029,0,1.6686,-5.874724E-05,25.029,0
1.6695,-3.256275E-05,25.0425,0,1.6695,-1.678492E-06,25.0425,0
1.6704,-1.812772E-05,25.056,0,1.6704,-1.107805E-05,25.056,0
1.6713,4.229801E-05,25.0695,0,1.6713,-2.887007E-05,25.0695,0
1.6722,4.263371E-05,25.083,0,1.6722,-3.121996E-05,25.083,0
1.6731,2.853437E-05,25.0965,0,1.6731,1.107805E-05,25.0965,0
1.674,1.678492E-05,25.11,0,1.674,-2.685588E-06,25.11,0
1.6749,-2.1149E-05,25.1235,0,1.6749,-9.735256E-06,25.1235,0
1.6758,-3.927672E-05,25.137,0,1.6758,-4.766919E-05,25.137,0
1.6767,3.021286E-06,25.1505,0,1.6767,-4.36408E-06,25.1505,0
1.6776,-2.719158E-05,25.164,0,1.6776,5.706874E-06,25.164,0
1.6785,-8.996719E-05,25.1775,0,1.6785,-4.33051E-05,25.1775,0
1.6794,-5.539025E-05,25.191,0,1.6794,-6.61326E-05,25.191,0
1.6803,7.721065E-06,25.2045,0,1.6803,-3.356985E-07,25.2045,0
1.6812,-7.049668E-06,25.218,0,1.6812,-6.378271E-06,25.218,0
1.6821,-1.007095E-06,25.2315,0,1.6821,-5.001907E-05,25.2315,0
1.683,5.035477E-06,25.245,0,1.683,5.035477E-06,25.245,0
1.6839,2.652018E-05,25.2585,0,1.6839,2.014191E-05,25.2585,0
1.6848,-1.309224E-05,25.272,0,1.6848,-4.263371E-05,25.272,0
1.6857,-4.43122E-05,25.2855,0,1.6857,-4.196231E-05,25.2855,0
1.6866,-2.652018E-05,25.299,0,1.6866,-2.652018E-05,25.299,0
1.6875,1.678492E-06,25.3125,0,1.6875,-4.867628E-05,25.3125,0
1.6884,-1.107805E-05,25.326,0,1.6884,-6.009003E-05,25.326,0
1.6893,7.721065E-06,25.3395,0,1.6893,-7.452507E-05,25.3395,0
1.6902,2.551309E-05,25.353,0,1.6902,-1.980621E-05,25.353,0
1.6911,3.692683E-05,25.3665,0,1.6911,3.256275E-05,25.3665,0
1.692,3.994812E-05,25.38,0,1.692,5.706874E-06,25.38,0
1.6929,7.385367E-06,25.3935,0,1.6929,-5.706874E-06,25.3935,0
1.6938,-1.980621E-05,25.407,0,1.6938,6.210422E-05,25.407,0
1.6947,-5.035477E-06,25.4205,0,1.6947,3.323415E-05,25.4205,0
1.6956,7.721065E-06,25.434,0,1.6956,-3.155566E-05,25.434,0
1.6965,1.007095E-05,25.4475,0,1.6965,5.035477E-06,25.4475,0
1.6974,1.510643E-05,25.461,0,1.6974,-7.385367E-06,25.461,0
1.6983,-1.577783E-05,25.4745,0,1.6983,-3.591974E-05,25.4745,0
1.6992,-3.356985E-07,25.488,0,1.6992,-2.014191E-06,25.488,0
1.7001,4.699779E-06,25.5015,0,1.7001,1.745632E-05,25.5015,0
1.701,-2.18204E-05,25.515,0,1.701,-4.028382E-06,25.515,0
1.7019,-1.040665E-05,25.5285,0,1.7019,-6.713969E-07,25.5285,0
1.7028,1.678492E-06,25.542,0,1.7028,-2.383459E-05,25.542,0
1.7037,-1.107805E-05,25.5555,0,1.7037,-3.323415E-05,25.5555,0
1.7046,-6.143282E-05,25.569,0,1.7046,-2.719158E-05,25.569,0
1.7055,-4.632639E-05,25.5825,0,1.7055,-4.834058E-05,25.5825,0
1.7064,-2.18204E-05,25.596,0,1.7064,-0.0001077592,25.596,0
1.7073,-3.927672E-05,25.6095,0,1.7073,-4.901198E-05,25.6095,0
1.7082,-3.356985E-07,25.623,0,1.7082,-3.491264E-05,25.623,0
1.7091,3.961242E-05,25.6365,0,1.7091,-6.009003E-05,25.6365,0
1.71,-1.007095E-05,25.65,0,1.71,-2.484169E-05,25.65,0
1.7109,-1.846342E-05,25.6635,0,1.7109,1.510643E-05,25.6635,0
1.7118,-2.316319E-05,25.677,0,1.7118,-2.920577E-05,25.677,0
1.7127,1.510643E-05,25.6905,0,1.7127,-3.457694E-05,25.6905,0
1.7136,2.349889E-06,25.704,0,1.7136,3.692683E-05,25.704,0
1.7145,3.356985E-07,25.7175,0,1.7145,3.021286E-05,25.7175,0
1.7154,7.049668E-06,25.731,0,1.7154,-6.277562E-05,25.731,0
1.7163,1.242084E-05,25.7445,0,1.7163,-7.821774E-05,25.7445,0
1.7172,1.812772E-05,25.758,0,1.7172,-2.316319E-05,25.758,0
1.7181,1.678492E-06,25.7715,0,1.7181,-1.174945E-05,25.7715,0
1.719,-3.726253E-05,25.785,0,1.719,4.028382E-06,25.785,0
1.7199,-4.061952E-05,25.7985,0,1.7199,3.121996E-05,25.7985,0
1.7208,-5.774014E-05,25.812,0,1.7208,4.33051E-05,25.812,0
1.7217,-9.735256E-06,25.8255,0,1.7217,1.712062E-05,25.8255,0
1.7226,8.392462E-06,25.839,0,1.7226,-4.46479E-05,25.839,0
1.7235,3.659113E-05,25.8525,0,1.7235,5.035477E-06,25.8525,0
1.7244,3.356985E-05,25.866,0,1.7244,1.342794E-06,25.866,0
1.7253,-1.812772E-05,25.8795,0,1.7253,-4.867628E-05,25.8795,0
1.7262,1.040665E-05,25.893,0,1.7262,-1.074235E-05,25.893,0
1.7271,2.349889E-06,25.9065,0,1.7271,2.1149E-05,25.9065,0
1.728,-2.349889E-05,25.92,0,1.728,-2.349889E-06,25.92,0
1.7289,-2.987716E-05,25.9335,0,1.7289,-2.28275E-05,25.9335,0
1.7298,-7.721065E-06,25.947,0,1.7298,-4.733349E-05,25.947,0
1.7307,-2.652018E-05,25.9605,0,1.7307,-4.061952E-05,25.9605,0
1.7316,-9.433127E-05,25.974,0,1.7316,-1.846342E-05,25.974,0
1.7325,-7.553216E-05,25.9875,0,1.7325,-4.49836E-05,25.9875,0
1.7334,-4.46479E-05,26.001,0,1.7334,-5.169757E-05,26.001,0
1.7343,-3.457694E-05,26.0145,0,1.7343,3.356985E-06,26.0145,0
1.7352,6.713969E-06,26.028,0,1.7352,2.1149E-05,26.028,0
1.7361,2.920577E-05,26.0415,0,1.7361,-3.256275E-05,26.0415,0
1.737,5.203327E-05,26.055,0,1.737,-2.685588E-06,26.055,0
1.7379,7.922484E-05,26.0685,0,1.7379,-1.040665E-05,26.0685,0
1.7388,4.263371E-05,26.082,0,1.7388,-6.71397E-05,26.082,0
1.7397,4.028382E-06,26.0955,0,1.7397,-6.848249E-05,26.0955,0
1.7406,-8.056763E-06,26.109,0,1.7406,-5.706874E-05,26.109,0
1.7415,-3.021286E-06,26.1225,0,1.7415,-4.33051E-05,26.1225,0
1.7424,3.356985E-07,26.136,0,1.7424,-1.007095E-05,26.136,0
1.7433,2.719158E-05,26.1495,0,1.7433,-2.349889E-05,26.1495,0
1.7442,2.1149E-05,26.163,0,1.7442,-7.721065E-06,26.163,0
1.7451,1.141375E-05,26.1765,0,1.7451,1.644922E-05,26.1765,0
1.746,-4.028382E-06,26.19,0,1.746,-1.477073E-05,26.19,0
1.7469,-8.056763E-06,26.2035,0,1.7469,-1.846342E-05,26.2035,0
1.7478,-3.390555E-05,26.217,0,1.7478,1.443504E-05,26.217,0
1.7487,-3.390555E-05,26.2305,0,1.7487,5.035477E-06,26.2305,0
1.7496,-1.712062E-05,26.244,0,1.7496,-8.627451E-05,26.244,0
1.7505,-3.994812E-05,26.2575,0,1.7505,-6.814679E-05,26.2575,0
1.7514,-4.43122E-05,26.271,0,1.7514,-1.342794E-05,26.271,0
1.7523,-3.659113E-05,26.2845,0,1.7523,-3.894102E-05,26.2845,0
1.7532,-2.618448E-05,26.298,0,1.7532,-2.450599E-05,26.298,0
1.7541,-5.572595E-05,26.3115,0,1.7541,4.028382E-06,26.3115,0
1.755,-3.256275E-05,26.325,0,1.755,2.987716E-05,26.325,0
1.7559,1.040665E-05,26.3385,0,1.7559,-2.383459E-05,26.3385,0
1.7568,-1.409934E-05,26.352,0,1.7568,-7.620356E-05,26.352,0
1.7577,-2.21561E-05,26.3655,0,1.7577,-1.678492E-06,26.3655,0
1.7586,-3.356985E-07,26.379,0,1.7586,4.196231E-05,26.379,0
1.7595,3.356985E-07,26.3925,0,1.7595,5.706874E-06,26.3925,0
1.7604,-1.678492E-06,26.406,0,1.7604,-3.591974E-05,26.406,0
1.7613,1.376364E-05,26.4195,0,1.7613,3.356985E-07,26.4195,0
1.7622,-2.349889E-06,26.433,0,1.7622,-2.517739E-05,26.433,0
1.7631,4.36408E-06,26.4465,0,1.7631,-7.821774E-05,26.4465,0
1.764,1.107805E-05,26.46,0,1.764,-1.242084E-05,26.46,0
1.7649,3.323415E-05,26.4735,0,1.7649,-1.678492E-06,26.4735,0
1.7658,4.39765E-05,26.487,0,1.7658,-1.174945E-05,26.487,0
1.7667,5.304036E-05,26.5005,0,1.7667,-5.371176E-06,26.5005,0
1.7676,1.678492E-05,26.514,0,1.7676,1.007095E-05,26.514,0
1.7685,-1.644922E-05,26.5275,0,1.7685,-2.853437E-05,26.5275,0
1.7694,-1.242084E-05,26.541,0,1.7694,-3.927672E-05,26.541,0
1.7703,-5.035477E-06,26.5545,0,1.7703,-4.33051E-05,26.5545,0
1.7712,-1.107805E-05,26.568,0,1.7712,-5.035477E-06,26.568,0
1.7721,-1.242084E-05,26.5815,0,1.7721,-1.242084E-05,26.5815,0
1.773,1.309224E-05,26.595,0,1.773,-2.21561E-05,26.595,0
1.7739,2.349889E-06,26.6085,0,1.7739,-3.591974E-05,26.6085,0
1.7748,-4.53193E-05,26.622,0,1.7748,7.721065E-06,26.622,0
1.7757,-3.860533E-05,26.6355,0,1.7757,1.678492E-06,26.6355,0
1.7766,1.309224E-05,26.649,0,1.7766,-4.229801E-05,26.649,0
1.7775,-1.879912E-05,26.6625,0,1.7775,3.356985E-06,26.6625,0
1.7784,-2.987716E-05,26.676,0,1.7784,1.712062E-05,26.676,0
1.7793,3.356985E-07,26.6895,0,1.7793,-1.644922E-05,26.6895,0
1.7802,-1.577783E-05,26.703,0,1.7802,-1.846342E-05,26.703,0
1.7811,-2.786297E-05,26.7165,0,1.7811,3.021286E-06,26.7165,0
1.782,-2.081331E-05,26.73,0,1.782,-8.728161E-06,26.73,0
1.7829,-3.356985E-05,26.7435,0,1.7829,-1.577783E-05,26.7435,0
1.7838,-3.390555E-05,26.757,0,1.7838,-4.028382E-05,26.757,0
1.7847,-9.063859E-06,26.7705,0,1.7847,9.399558E-06,26.7705,0
1.7856,-7.284657E-05,26.784,0,1.7856,1.779202E-05,26.784,0
1.7865,-7.721065E-05,26.7975,0,1.7865,-4.867628E-05,26.7975,0
1.7874,-1.678492E-06,26.811,0,1.7874,-5.673304E-05,26.811,0
1.7883,1.779202E-05,26.8245,0,1.7883,-3.021286E-06,26.8245,0
1.7892,-1.007095E-05,26.838,0,1.7892,-1.913481E-05,26.838,0
1.7901,3.659113E-05,26.8515,0,1.7901,-7.351797E-05,26.8515,0
1.791,1.712062E-05,26.865,0,1.791,-2.316319E-05,26.865,0
1.7919,2.752728E-05,26.8785,0,1.7919,-7.049668E-06,26.8785,0
1.7928,4.43122E-05,26.892,0,1.7928,-4.162661E-05,26.892,0
1.7937,5.471885E-05,26.9055,0,1.7937,1.544213E-05,26.9055,0
1.7946,2.047761E-05,26.919,0,1.7946,6.411841E-05,26.919,0
1.7955,1.007095E-06,26.9325,0,1.7955,8.056763E-06,26.9325,0
1.7964,1.376364E-05,26.946,0,1.7964,-1.107805E-05,26.946,0
1.7973,-2.047761E-05,26.9595,0,1.7973,-5.069047E-05,26.9595,0
1.7982,-2.786297E-05,26.973,0,1.7982,-2.450599E-05,26.973,0
1.7991,-2.887007E-05,26.9865,0,1.7991,2.920577E-05,26.9865,0
1.8,2.349889E-06,27,0,1.8,-4.36408E-06,27,0
1.8009,-6.713969E-07,27.0135,0,1.8009,-7.016098E-05,27.0135,0
1.8018,-3.088426E-05,27.027,0,1.8018,-5.404745E-05,27.027,0
1.8027,-3.256275E-05,27.0405,0,1.8027,-2.417029E-05,27.0405,0
1.8036,-3.424125E-05,27.054,0,1.8036,-5.438316E-05,27.054,0
1.8045,-3.860533E-05,27.0675,0,1.8045,-1.141375E-05,27.0675,0
1.8054,-3.726253E-05,27.081,0,1.8054,-3.356985E-07,27.081,0
1.8063,-4.196231E-05,27.0945,0,1.8063,-3.088426E-05,27.0945,0
1.8072,1.644922E-05,27.108,0,1.8072,4.028382E-06,27.108,0
1.8081,-4.699779E-06,27.1215,0,1.8081,1.510643E-05,27.1215,0
1.809,8.728161E-06,27.135,0,1.809,-7.385367E-06,27.135,0
1.8099,2.316319E-05,27.1485,0,1.8099,-3.155566E-05,27.1485,0
1.8108,2.383459E-05,27.162,0,1.8108,-7.418937E-05,27.162,0
1.8117,1.040665E-05,27.1755,0,1.8117,-7.016098E-05,27.1755,0
1.8126,-9.063859E-06,27.189,0,1.8126,-3.692683E-05,27.189,0
1.8135,4.36408E-06,27.2025,0,1.8135,-1.208515E-05,27.2025,0
1.8144,1.275654E-05,27.216,0,1.8144,2.047761E-05,27.216,0
1.8153,-2.954147E-05,27.2295,0,1.8153,4.33051E-05,27.2295,0
1.8162,-4.49836E-05,27.243,0,1.8162,-1.577783E-05,27.243,0
1.8171,-3.457694E-05,27.2565,0,1.8171,-4.968337E-05,27.2565,0
1.818,-7.083238E-05,27.27,0,1.818,-8.728161E-06,27.27,0
1.8189,-6.74754E-05,27.2835,0,1.8189,6.042573E-06,27.2835,0
