X[s],"Trigno IM sensor 3: EMG 3 (IM)",X[s],"Trigno IM sensor 3: Mag 3.Z (IM)",X[s],"Trigno IM sensor 4: EMG 4 (IM)",X[s],"Trigno IM sensor 4: Mag 4.Z (IM)"
0.000000,-3.155566E-05,0.000000,119,0.000000,-4.666209E-05,0.000000,0
0.0009,-5.673304E-05,0.0135,120,0.0009,-3.524834E-05,0.0135,-1
0.0018,-0.0001033951,0.027,121,0.0018,5.706874E-06,0.027,-1
0.0027,-5.035477E-06,0.0405,122,0.0027,-1.040665E-05,0.0405,0
0.0036,0.0001567712,0.054,121,0.0036,-3.222705E-05,0.054,-3
0.0045,0.000164828,0.0675,120,0.0045,-4.834058E-05,0.0675,0
0.0054,0.0002437171,0.081,122,0.0054,-2.719158E-05,0.081,0
0.0063,0.0003387198,0.0945,120,0.0063,-2.417029E-05,0.0945,-1
0.0072,9.433127E-05,0.108,121,0.0072,-7.217517E-05,0.108,-2
0.0081,-0.0001963836,0.1215,121,0.0081,-0.0001050736,0.1215,-2
0.009000001,-0.0002735943,0.135,120,0.009000001,-0.0001238727,0.135,-2
0.0099,-0.0003501335,0.1485,120,0.0099,-0.0001017166,0.1485,-1
0.0108,-0.0004817273,0.162,121,0.0108,-5.673304E-05,0.162,-4
0.0117,-0.0001708705,0.1755,120,0.0117,-1.712062E-05,0.1755,-2
0.0126,-4.666209E-05,0.189,121,0.0126,-2.551309E-05,0.189,-2
0.0135,-4.565499E-05,0.2025,120,0.0135,2.349889E-06,0.2025,0
0.0144,-5.001907E-05,0.216,121,0.0144,6.713969E-06,0.216,0
0.0153,9.735256E-06,0.2295,119,0.0153,1.040665E-05,0.2295,-1
0.0162,7.418937E-05,0.243,119,0.0162,2.551309E-05,0.243,-2
0.0171,9.903105E-05,0.2565,121,0.0171,3.625543E-05,0.2565,-4
0.018,5.505455E-05,0.27,119,0.018,1.275654E-05,0.27,-2
0.0189,-2.28275E-05,0.2835,119,0.0189,-2.450599E-05,0.2835,-2
0.0198,7.385367E-06,0.297,121,0.0198,-1.913481E-05,0.297,-3
0.0207,4.129091E-05,0.3105,119,0.0207,-1.174945E-05,0.3105,-1
0.0216,1.443504E-05,0.324,119,0.0216,-2.18204E-05,0.324,-1
0.0225,3.155566E-05,0.3375,120,0.0225,-3.088426E-05,0.3375,0
0.0234,1.174945E-05,0.351,121,0.0234,-1.980621E-05,0.351,-2
0.0243,2.014191E-06,0.3645,121,0.0243,-5.001907E-05,0.3645,0
0.0252,3.189136E-05,0.378,121,0.0252,-5.740444E-05,0.378,-1
0.0261,4.49836E-05,0.3915,120,0.0261,-4.229801E-05,0.3915,0
0.027,3.390555E-05,0.405,120,0.027,-4.46479E-05,0.405,0
0.0279,6.61326E-05,0.4185,121,0.0279,-5.035477E-05,0.4185,-1
0.0288,7.553216E-05,0.432,121,0.0288,-5.304036E-05,0.432,-1
0.0297,9.701686E-05,0.4455,121,0.0297,-5.236896E-05,0.4455,-1
0.0306,0.0002601663,0.459,122,0.0306,-7.284657E-05,0.459,0
0.0315,0.0003588617,0.4725,121,0.0315,-0.0001117876,0.4725,0
0.0324,0.0002353246,0.486,122,0.0324,-0.0001185016,0.486,-2
0.0333,6.109713E-05,0.4995,121,0.0333,-4.666209E-05,0.4995,0
0.0342,-0.000224918,0.513,120,0.0342,-0.0001205158,0.513,1
0.0351,-0.0004525215,0.5265,121,0.0351,-0.0001131304,0.5265,-1
0.036,-0.0004166018,0.54,122,0.036,6.378271E-06,0.54,-2
0.0369,-0.0001329366,0.5535,122,0.0369,4.53193E-05,0.5535,-2
0.0378,-4.33051E-05,0.567,121,0.0378,6.57969E-05,0.567,-1
0.0387,-0.0001373007,0.5805,120,0.0387,0.0001460288,0.5805,-2
0.0396,-0.0001111162,0.594,121,0.0396,0.0002118257,0.594,0
0.0405,-5.270466E-05,0.6075,121,0.0405,7.687495E-05,0.6075,-1
0.0414,-3.625543E-05,0.621,121,0.0414,7.721065E-06,0.621,-1
0.0423,-5.035477E-06,0.6345,121,0.0423,-8.392462E-06,0.6345,0
0.0432,7.385367E-06,0.648,122,0.0432,-1.913481E-05,0.648,0
0.0441,-6.378271E-06,0.6615,120,0.0441,1.342794E-05,0.6615,-1
0.045,-1.107805E-05,0.675,121,0.045,-1.678492E-06,0.675,-2
0.0459,1.208515E-05,0.6885,120,0.0459,-4.196231E-05,0.6885,-1
0.0468,2.349889E-06,0.702,119,0.0468,-5.035477E-06,0.702,-1
0.0477,1.040665E-05,0.7155,120,0.0477,-1.409934E-05,0.7155,-2
0.0486,3.927672E-05,0.729,119,0.0486,-3.726253E-05,0.729,-3
0.0495,3.927672E-05,0.7425,121,0.0495,-7.721065E-06,0.7425,-1
0.0504,4.666209E-05,0.756,121,0.0504,-4.699779E-06,0.756,-2
0.0513,6.814679E-05,0.7695,120,0.0513,-8.459602E-05,0.7695,-1
0.0522,8.258183E-05,0.783,121,0.0522,-0.0001030594,0.783,-3
0.0531,5.471885E-05,0.7965,120,0.0531,-0.0001010452,0.7965,-5
0.054,5.874724E-05,0.81,120,0.054,-0.0001080949,0.81,-2
0.0549,-8.728161E-06,0.8235,121,0.0549,-8.661021E-05,0.8235,-1
0.0558,-1.913481E-05,0.837,121,0.0558,-1.611353E-05,0.837,-1
0.0567,3.323415E-05,0.8505,121,0.0567,5.337606E-05,0.8505,0
0.0576,1.007095E-05,0.864,121,0.0576,0.0001171588,0.864,-2
0.0585,1.309224E-05,0.8775,122,0.0585,7.183947E-05,0.8775,-1
0.0594,3.323415E-05,0.891,120,0.0594,-5.270466E-05,0.891,-1
0.0603,3.054856E-05,0.9045,121,0.0603,-9.433127E-05,0.9045,-2
0.0612,-1.913481E-05,0.918,122,0.0612,-0.0001584497,0.918,0
0.0621,-2.517739E-05,0.9315,121,0.0621,-0.0001621424,0.9315,-2
0.063,-4.33051E-05,0.945,121,0.063,-8.526741E-05,0.945,-2
0.0639,-0.000102388,0.9585,121,0.0639,-3.994812E-05,0.9585,-2
0.0648,-5.035477E-05,0.972,121,0.0648,2.1149E-05,0.972,-2
0.0657,-2.383459E-05,0.9855,121,0.0657,0.0001010452,0.9855,-2
0.0666,2.349889E-06,0.999,121,0.0666,0.0001628138,0.999,0
0.0675,5.203327E-05,1.0125,122,0.0675,8.493171E-05,1.0125,-1
0.0684,3.121996E-05,1.026,121,0.0684,5.001907E-05,1.026,0
0.0693,-2.24918E-05,1.0395,122,0.0693,2.047761E-05,1.0395,-3
0.0702,-4.33051E-05,1.053,122,0.0702,4.699779E-06,1.053,-1
0.0711,-6.378271E-06,1.0665,121,0.0711,5.404745E-05,1.0665,-1
0.072,4.028382E-06,1.08,121,0.072,2.047761E-05,1.08,-2
0.0729,4.49836E-05,1.0935,121,0.0729,1.510643E-05,1.0935,0
0.07380001,3.524834E-05,1.107,122,0.07380001,6.814679E-05,1.107,-1
0.07470001,8.157473E-05,1.1205,118,0.07470001,3.088426E-05,1.1205,-3
0.0756,0.0001164874,1.134,119,0.0756,-5.236896E-05,1.134,-1
0.0765,0.0001010452,1.1475,119,0.0765,-1.208515E-05,1.1475,0
0.0774,6.6804E-05,1.161,118,0.0774,-2.551309E-05,1.161,-1
0.0783,-3.189136E-05,1.1745,119,0.0783,-0.0001084306,1.1745,-5
0.0792,-0.0001453574,1.188,118,0.0792,-0.000140322,1.188,0
0.0801,-0.0002255894,1.2015,118,0.0801,-9.936675E-05,1.2015,-4
0.081,-0.0001641566,1.215,117,0.081,-9.298848E-05,1.215,-1
0.0819,-4.53193E-05,1.2285,116,0.0819,-6.411841E-05,1.2285,0
0.0828,0.0001117876,1.242,116,0.0828,-4.095522E-05,1.242,-5
0.0837,0.0002064546,1.2555,116,0.0837,-3.793393E-05,1.2555,0
0.0846,0.000190341,1.269,116,0.0846,-4.33051E-05,1.269,-1
0.0855,8.96315E-05,1.2825,117,0.0855,-3.994812E-05,1.2825,0
0.0864,-5.706874E-06,1.296,116,0.0864,-5.606165E-05,1.296,-2
0.0873,-0.0002192111,1.3095,116,0.0873,1.141375E-05,1.3095,-1
0.0882,-0.0002511025,1.323,116,0.0882,-8.392462E-06,1.323,-3
0.0891,-0.0002074617,1.3365,116,0.0891,-5.304036E-05,1.3365,-1
0.09,-0.0002453956,1.35,116,0.09,1.577783E-05,1.35,-2
0.0909,-0.000189334,1.3635,117,0.0909,2.551309E-05,1.3635,-4
0.0918,-8.493171E-05,1.377,117,0.0918,-9.735256E-06,1.377,-1
0.0927,-0.0001010452,1.3905,118,0.0927,-6.109713E-05,1.3905,-2
0.0936,-7.083238E-05,1.404,118,0.0936,-7.452507E-05,1.404,-2
0.09450001,-1.644922E-05,1.4175,117,0.09450001,-0.0001003738,1.4175,-2
0.09540001,2.18204E-05,1.431,118,0.09540001,-0.0001211871,1.431,-1
0.09630001,3.256275E-05,1.4445,117,0.09630001,-0.0001000381,1.4445,0
0.0972,5.673304E-05,1.458,117,0.0972,-3.659113E-05,1.458,0
0.0981,4.263371E-05,1.4715,116,0.0981,3.189136E-05,1.4715,0
0.099,3.323415E-05,1.485,116,0.099,8.89601E-05,1.485,-1
0.0999,3.189136E-05,1.4985,117,0.0999,6.6804E-05,1.4985,0
0.1008,-4.36408E-06,1.512,116,0.1008,0.0001205158,1.512,-1
0.1017,-5.706874E-06,1.5255,117,0.1017,7.888914E-05,1.5255,-3
0.1026,8.090334E-05,1.539,117,0.1026,7.385367E-06,1.539,0
0.1035,0.0001426719,1.5525,115,0.1035,2.517739E-05,1.5525,0
0.1044,0.0001386435,1.566,116,0.1044,1.376364E-05,1.566,-2
0.1053,9.634547E-05,1.5795,117,0.1053,-3.289845E-05,1.5795,1
0.1062,0.0001030594,1.593,117,0.1062,-5.706874E-05,1.593,1
0.1071,0.0001161517,1.6065,116,0.1071,-4.162661E-05,1.6065,-1
0.108,9.433127E-05,1.62,117,0.108,-4.699779E-05,1.62,-5
0.1089,7.486076E-05,1.6335,116,0.1089,-3.793393E-05,1.6335,0
0.1098,6.6804E-05,1.647,116,0.1098,-4.733349E-05,1.647,-2
0.1107,-0.0001849699,1.6605,118,0.1107,-1.644922E-05,1.6605,-2
0.1116,-0.0003890745,1.674,117,0.1116,-1.107805E-05,1.674,-1
0.1125,-6.74754E-05,1.6875,116,0.1125,-4.129091E-05,1.6875,-1
0.1134,1.745632E-05,1.701,116,0.1134,-5.236896E-05,1.701,0
0.1143,-1.678492E-05,1.7145,117,0.1143,-2.24918E-05,1.7145,0
0.1152,-2.21561E-05,1.728,117,0.1152,-4.666209E-05,1.728,-1
0.1161,-6.277562E-05,1.7415,115,0.1161,-0.000105745,1.7415,1
0.117,-3.457694E-05,1.755,116,0.117,-8.89601E-05,1.755,-3
0.1179,2.014191E-06,1.7685,116,0.1179,-6.54612E-05,1.7685,1
0.1188,2.316319E-05,1.782,116,0.1188,-5.304036E-05,1.782,0
0.1197,-1.544213E-05,1.7955,117,0.1197,-6.143282E-05,1.7955,0
0.1206,-8.728161E-06,1.809,116,0.1206,-6.713969E-06,1.809,0
0.1215,0.0001114519,1.8225,118,0.1215,4.733349E-05,1.8225,-1
0.1224,5.505455E-05,1.836,118,0.1224,9.466698E-05,1.836,-5
0.1233,4.49836E-05,1.8495,117,0.1233,5.203327E-05,1.8495,0
0.1242,8.560311E-05,1.863,116,0.1242,2.1149E-05,1.863,-2
0.1251,6.61326E-05,1.8765,117,0.1251,3.927672E-05,1.8765,-3
0.126,-2.853437E-05,1.89,117,0.126,4.867628E-05,1.89,-4
0.1269,-7.721065E-06,1.9035,117,0.1269,-7.721065E-06,1.9035,-2
0.1278,6.210422E-05,1.917,116,0.1278,-1.208515E-05,1.917,0
0.1287,0.0001926909,1.9305,116,0.1287,-4.36408E-06,1.9305,0
0.1296,0.0001272297,1.944,117,0.1296,-2.685588E-05,1.944,-1
0.1305,-6.71397E-05,1.9575,116,0.1305,-3.356985E-06,1.9575,0
0.1314,-0.0001695277,1.971,114,0.1314,8.728161E-06,1.971,0
0.1323,-0.0002218967,1.9845,116,0.1323,-2.618448E-05,1.9845,0
0.1332,-0.0001795987,1.998,116,0.1332,-2.584878E-05,1.998,0
0.1341,-9.030289E-05,2.0115,116,0.1341,-3.021286E-06,2.0115,1
0.135,-3.793393E-05,2.025,117,0.135,-3.524834E-05,2.025,-1
0.1359,-2.349889E-06,2.0385,117,0.1359,-5.404745E-05,2.0385,-1
0.1368,-2.014191E-06,2.052,116,0.1368,-5.471885E-05,2.052,-2
0.1377,-9.063859E-06,2.0655,116,0.1377,-2.517739E-05,2.0655,1
0.1386,1.980621E-05,2.079,117,0.1386,-6.982528E-05,2.079,-1
0.1395,-2.18204E-05,2.0925,116,0.1395,-9.399557E-05,2.0925,-1
0.1404,-6.881819E-05,2.106,117,0.1404,-0.0001003738,2.106,-5
0.1413,-1.107805E-05,2.1195,116,0.1413,-3.524834E-05,2.1195,-1
0.1422,-7.721065E-06,2.133,116,0.1422,-2.081331E-05,2.133,-2
0.1431,4.33051E-05,2.1465,117,0.1431,-7.217517E-05,2.1465,0
0.144,9.298848E-05,2.16,117,0.144,-1.510643E-05,2.16,-2
0.1449,7.821774E-05,2.1735,118,0.1449,4.028382E-06,2.1735,-6
0.1458,3.994812E-05,2.187,117,0.1458,-3.289845E-05,2.187,-3
0.1467,-1.309224E-05,2.2005,119,0.1467,4.263371E-05,2.2005,-3
0.1476,-1.007095E-05,2.214,117,0.1476,9.097429E-05,2.214,1
0.1485,-7.888914E-05,2.2275,117,0.1485,0.0001111162,2.2275,-2
0.1494,-6.210422E-05,2.241,118,0.1494,4.061952E-05,2.241,-5
0.1503,1.309224E-05,2.2545,118,0.1503,-3.424125E-05,2.2545,-1
0.1512,-4.162661E-05,2.268,118,0.1512,-3.189136E-05,2.268,-1
0.1521,-4.666209E-05,2.2815,118,0.1521,-7.721065E-06,2.2815,-2
0.153,4.699779E-06,2.295,119,0.153,-2.047761E-05,2.295,-3
0.1539,2.014191E-06,2.3085,119,0.1539,-4.43122E-05,2.3085,-2
0.1548,6.378271E-06,2.322,119,0.1548,2.047761E-05,2.322,-5
0.1557,1.544213E-05,2.3355,118,0.1557,3.558404E-05,2.3355,-3
0.1566,5.539025E-05,2.349,118,0.1566,3.323415E-05,2.349,-3
0.1575,1.409934E-05,2.3625,118,0.1575,3.189136E-05,2.3625,-2
0.1584,1.577783E-05,2.376,120,0.1584,3.692683E-06,2.376,-1
0.1593,9.903105E-05,2.3895,120,0.1593,-2.819867E-05,2.3895,-2
0.1602,8.258183E-05,2.403,119,0.1602,-4.867628E-05,2.403,-2
0.1611,2.685588E-05,2.4165,120,0.1611,-3.860533E-05,2.4165,-4
0.162,0.0001000381,2.43,119,0.162,-3.021286E-05,2.43,-4
0.1629,2.920577E-05,2.4435,120,0.1629,-4.49836E-05,2.4435,-4
0.1638,-6.076142E-05,2.457,120,0.1638,-5.169757E-05,2.457,-3
0.1647,-0.0001185016,2.4705,119,0.1647,-4.196231E-05,2.4705,-2
0.1656,-0.0001765774,2.484,120,0.1656,-2.685588E-05,2.484,-2
0.1665,-0.0001248798,2.4975,120,0.1665,-4.196231E-05,2.4975,-4
0.1674,-0.0001067521,2.511,121,0.1674,-6.344701E-05,2.511,-1
0.1683,-5.270466E-05,2.5245,119,0.1683,-5.136187E-05,2.5245,-3
0.1692,-3.289845E-05,2.538,120,0.1692,-9.634547E-05,2.538,-4
0.1701,0,2.5515,121,0.1701,-0.0001215228,2.5515,-4
0.171,-4.666209E-05,2.565,120,0.171,-5.606165E-05,2.565,-5
0.1719,-3.860533E-05,2.5785,121,0.1719,-3.726253E-05,2.5785,-1
0.1728,3.256275E-05,2.592,120,0.1728,-1.107805E-05,2.592,-4
0.1737,-1.141375E-05,2.6055,120,0.1737,3.323415E-05,2.6055,0
0.1746,-3.256275E-05,2.619,119,0.1746,6.51255E-05,2.619,-2
0.1755,4.599069E-05,2.6325,122,0.1755,3.591974E-05,2.6325,0
0.1764,5.874724E-05,2.646,121,0.1764,-7.385367E-06,2.646,-3
0.1773,-5.706874E-06,2.6595,119,0.1773,-4.39765E-05,2.6595,-1
0.1782,4.666209E-05,2.673,120,0.1782,-4.36408E-05,2.673,-1
0.1791,0.0001272297,2.6865,119,0.1791,-2.652018E-05,2.6865,-5
0.18,-1.678492E-05,2.7,121,0.18,-3.524834E-05,2.7,-2
0.1809,-7.653925E-05,2.7135,120,0.1809,-3.927672E-05,2.7135,-2
0.1818,-1.007095E-05,2.727,121,0.1818,-4.028382E-06,2.727,-2
0.1827,-9.735256E-06,2.7405,120,0.1827,-4.699779E-06,2.7405,-2
0.1836,-2.719158E-05,2.754,121,0.1836,-7.821774E-05,2.754,-4
0.1845,-0.0001050736,2.7675,120,0.1845,-4.46479E-05,2.7675,-6
0.1854,-8.89601E-05,2.781,120,0.1854,-5.404745E-05,2.781,-6
0.1863,-2.316319E-05,2.7945,119,0.1863,-7.183947E-05,2.7945,-3
0.1872,-5.404745E-05,2.808,120,0.1872,-5.606165E-05,2.808,-4
0.1881,-5.539025E-05,2.8215,120,0.1881,-5.706874E-05,2.8215,-3
0.189,-9.063859E-06,2.835,121,0.189,-2.719158E-05,2.835,-5
0.1899,2.316319E-05,2.8485,119,0.1899,-3.021286E-06,2.8485,-2
0.1908,1.577783E-05,2.862,119,0.1908,9.063859E-06,2.862,-5
0.1917,2.551309E-05,2.8755,120,0.1917,3.289845E-05,2.8755,-2
0.1926,2.047761E-05,2.889,119,0.1926,4.53193E-05,2.889,0
0.1935,8.291753E-05,2.9025,118,0.1935,4.934768E-05,2.9025,-1
0.1944,9.970245E-05,2.916,117,0.1944,3.659113E-05,2.916,-2
0.1953,8.426032E-05,2.9295,120,0.1953,6.143282E-05,2.9295,-3
0.1962,0.000140322,2.943,119,0.1962,3.021286E-05,2.943,-2
0.1971,6.344701E-05,2.9565,121,0.1971,-3.256275E-05,2.9565,-3
0.198,-7.586786E-05,2.97,121,0.198,-2.349889E-06,2.97,-1
0.1989,-1.779202E-05,2.9835,119,0.1989,-5.035477E-06,2.9835,-2
0.1998,-2.920577E-05,2.997,118,0.1998,-3.659113E-05,2.997,-1
0.2007,1.309224E-05,3.0105,118,0.2007,-3.222705E-05,3.0105,-2
0.2016,0.0001373007,3.024,119,0.2016,-1.544213E-05,3.024,0
0.2025,0.0001836271,3.0375,120,0.2025,-3.961242E-05,3.0375,-4
0.2034,0.000112459,3.051,119,0.2034,-0.000109102,3.051,-1
0.2043,3.390555E-05,3.0645,119,0.2043,-0.0001346151,3.0645,-2
0.2052,-8.358892E-05,3.078,0,0.2052,-9.164568E-05,3.078,0
0.2061,-0.000203769,3.0915,0,0.2061,-8.459602E-05,3.0915,0
0.207,-0.0002547952,3.105,0,0.207,-7.956054E-05,3.105,0
0.2079,-0.0003743038,3.1185,0,0.2079,-5.740444E-05,3.1185,0
0.2088,-0.0001990692,3.132,0,0.2088,9.332418E-05,3.132,0
0.2097,-2.450599E-05,3.1455,0,0.2097,0.0001232013,3.1455,0
0.2106,-5.035477E-06,3.159,0,0.2106,3.189136E-05,3.159,0
0.2115,5.035477E-06,3.1725,0,0.2115,5.706874E-05,3.1725,0
0.2124,3.457694E-05,3.186,0,0.2124,5.807584E-05,3.186,0
0.2133,5.471885E-05,3.1995,0,0.2133,-6.378271E-06,3.1995,0
0.2142,3.323415E-05,3.213,0,0.2142,-3.356985E-06,3.213,0
0.2151,2.1149E-05,3.2265,0,0.2151,0,3.2265,0
0.216,3.793393E-05,3.24,0,0.216,-2.954147E-05,3.24,0
0.2169,-5.706874E-06,3.2535,0,0.2169,-5.841154E-05,3.2535,0
0.2178,-3.659113E-05,3.267,0,0.2178,-7.788205E-05,3.267,0
0.2187,3.021286E-06,3.2805,0,0.2187,-4.699779E-05,3.2805,0
0.2196,1.577783E-05,3.294,0,0.2196,0,3.294,0
0.2205,8.291753E-05,3.3075,0,0.2205,2.24918E-05,3.3075,0
0.2214,8.560311E-05,3.321,0,0.2214,-6.042573E-06,3.321,0
0.2223,4.263371E-05,3.3345,0,0.2223,1.712062E-05,3.3345,0
0.2232,1.779202E-05,3.348,0,0.2232,1.477073E-05,3.348,0
0.2241,-1.879912E-05,3.3615,0,0.2241,-4.53193E-05,3.3615,0
0.225,-4.129091E-05,3.375,0,0.225,-6.042573E-06,3.375,0
0.2259,-5.270466E-05,3.3885,0,0.2259,6.378271E-06,3.3885,0
0.2268,-4.129091E-05,3.402,0,0.2268,5.035477E-06,3.402,0
0.2277,-5.203327E-05,3.4155,0,0.2277,-4.028382E-06,3.4155,0
0.2286,-7.553216E-05,3.429,0,0.2286,4.028382E-06,3.429,0
0.2295,-9.399558E-06,3.4425,0,0.2295,-1.644922E-05,3.4425,0
0.2304,-3.256275E-05,3.456,0,0.2304,-3.054856E-05,3.456,0
0.2313,-5.035477E-06,3.4695,0,0.2313,-5.505455E-05,3.4695,0
0.2322,7.888914E-05,3.483,0,0.2322,-1.913481E-05,3.483,0
0.2331,4.263371E-05,3.4965,0,0.2331,-1.644922E-05,3.4965,0
0.234,2.014191E-05,3.51,0,0.234,-4.834058E-05,3.51,0
0.2349,2.786297E-05,3.5235,0,0.2349,-6.61326E-05,3.5235,0
0.2358,1.846342E-05,3.537,0,0.2358,-1.342794E-05,3.537,0
0.2367,5.102617E-05,3.5505,0,0.2367,-2.316319E-05,3.5505,0
0.2376,0.0001346151,3.564,0,0.2376,-6.51255E-05,3.564,0
0.2385,0.0001205158,3.5775,0,0.2385,-1.443504E-05,3.5775,0
0.2394,8.493171E-05,3.591,0,0.2394,-2.18204E-05,3.591,0
0.2403,0.0001205158,3.6045,0,0.2403,-8.157473E-05,3.6045,0
0.2412,1.309224E-05,3.618,0,0.2412,-8.82887E-05,3.618,0
0.2421,-0.0001309224,3.6315,0,0.2421,-7.385367E-05,3.6315,0
0.243,-0.0002380102,3.645,0,0.243,-5.404745E-05,3.645,0
0.2439,-0.0002641947,3.6585,0,0.2439,-4.867628E-05,3.6585,0
0.2448,-0.0002054475,3.672,0,0.2448,-4.733349E-05,3.672,0
0.2457,-0.0001305867,3.6855,0,0.2457,4.733349E-05,3.6855,0
0.2466,-2.24918E-05,3.699,0,0.2466,8.459602E-05,3.699,0
0.2475,6.042573E-06,3.7125,0,0.2475,5.874724E-05,3.7125,0
0.2484,9.433127E-05,3.726,0,0.2484,4.162661E-05,3.726,0
0.2493,0.0001164874,3.7395,0,0.2493,1.678492E-05,3.7395,0
0.2502,7.083238E-05,3.753,0,0.2502,-4.766919E-05,3.753,0
0.2511,9.332418E-05,3.7665,0,0.2511,-8.123904E-05,3.7665,0
0.252,8.291753E-05,3.78,0,0.252,-2.853437E-05,3.78,0
0.2529,-5.404745E-05,3.7935,0,0.2529,-2.14847E-05,3.7935,0
0.2538,-4.196231E-05,3.807,0,0.2538,-4.632639E-05,3.807,0
0.2547,6.814679E-05,3.8205,0,0.2547,1.678492E-06,3.8205,0
0.2556,5.774014E-05,3.834,0,0.2556,5.404745E-05,3.834,0
0.2565,4.263371E-05,3.8475,0,0.2565,2.517739E-05,3.8475,0
0.2574,-4.733349E-05,3.861,0,0.2574,-2.28275E-05,3.861,0
0.2583,-8.69459E-05,3.8745,0,0.2583,-5.606165E-05,3.8745,0
0.2592,-6.74754E-05,3.888,0,0.2592,-2.618448E-05,3.888,0
0.2601,-0.0001607996,3.9015,0,0.2601,-9.063859E-06,3.9015,0
0.261,-0.0001104448,3.915,0,0.261,-5.136187E-05,3.915,0
0.2619,6.378271E-06,3.9285,0,0.2619,-7.855344E-05,3.9285,0
0.2628,-1.309224E-05,3.942,0,0.2628,-3.021286E-05,3.942,0
0.2637,1.779202E-05,3.9555,0,0.2637,-1.577783E-05,3.9555,0
0.2646,8.493171E-05,3.969,0,0.2646,-4.061952E-05,3.969,0
0.2655,5.874724E-05,3.9825,0,0.2655,-6.378271E-05,3.9825,0
0.2664,-4.36408E-06,3.996,0,0.2664,-8.627451E-05,3.996,0
0.2673,-5.673304E-05,4.0095,0,0.2673,-0.0001285725,4.0095,0
0.2682,-1.443504E-05,4.023,0,0.2682,-7.553216E-05,4.023,0
0.2691,-1.007095E-05,4.0365,0,0.2691,1.477073E-05,4.0365,0
0.27,-4.699779E-05,4.05,0,0.27,0.0001054093,4.05,0
0.2709,-3.021286E-06,4.0635,0,0.2709,0.0001698634,4.0635,0
0.2718,-3.457694E-05,4.077,0,0.2718,8.526741E-05,4.077,0
0.2727,9.164568E-05,4.0905,0,0.2727,7.754635E-05,4.0905,0
0.2736,7.553216E-05,4.104,0,0.2736,7.284657E-05,4.104,0
0.2745,-7.049668E-06,4.1175,0,0.2745,1.174945E-05,4.1175,0
0.2754,-3.927672E-05,4.131,0,0.2754,-4.028382E-05,4.131,0
0.2763,-0.0001272297,4.1445,0,0.2763,2.349889E-06,4.1445,0
0.2772,-0.000164828,4.158,0,0.2772,-5.203327E-05,4.158,0
0.2781,-0.0001050736,4.1715,0,0.2781,-0.0001399863,4.1715,0
0.279,-1.644922E-05,4.185,0,0.279,-0.0001326009,4.185,0
0.2799,7.754635E-05,4.1985,0,0.2799,-0.0001621424,4.1985,0
0.2808,0.0001017166,4.212,0,0.2808,-0.0001769131,4.212,0
0.2817,8.560311E-05,4.2255,0,0.2817,-0.0001305867,4.2255,0
0.2826,0.000102388,4.239,0,0.2826,-1.007095E-05,4.239,0
0.2835,0.0001151446,4.2525,0,0.2835,0.0001238727,4.2525,0
0.2844,0.0001111162,4.266,0,0.2844,0.0001285725,4.266,0
0.2853,7.721065E-06,4.2795,0,0.2853,8.627451E-05,4.2795,0
0.2862,-0.0001752346,4.293,0,0.2862,8.191043E-05,4.293,0
0.2871,-0.0001728847,4.3065,0,0.2871,2.752728E-05,4.3065,0
0.288,-8.795301E-05,4.32,0,0.288,1.107805E-05,4.32,0
0.2889,-5.136187E-05,4.3335,0,0.2889,-4.699779E-06,4.3335,0
0.2898,1.309224E-05,4.347,0,0.2898,3.356985E-07,4.347,0
0.2907,2.349889E-06,4.3605,0,0.2907,-2.652018E-05,4.3605,0
0.2916,3.961242E-05,4.374,0,0.2916,-8.86244E-05,4.374,0
0.2925,7.049668E-06,4.3875,0,0.2925,-7.788205E-05,4.3875,0
0.2934,2.920577E-05,4.401,0,0.2934,-6.277562E-05,4.401,0
0.2943,5.740444E-05,4.4145,0,0.2943,-9.063859E-05,4.4145,0
0.2952,7.452507E-05,4.428,0,0.2952,-3.289845E-05,4.428,0
0.2961,7.217517E-05,4.4415,0,0.2961,1.779202E-05,4.4415,0
0.297,4.028382E-05,4.455,0,0.297,2.752728E-05,4.455,0
0.2979,1.040665E-05,4.4685,0,0.2979,-1.913481E-05,4.4685,0
0.2988,2.920577E-05,4.482,0,0.2988,-6.143282E-05,4.482,0
0.2997,5.706874E-05,4.4955,0,0.2997,-5.169757E-05,4.4955,0
0.3006,5.270466E-05,4.509,0,0.3006,-4.129091E-05,4.509,0
0.3015,9.097429E-05,4.5225,0,0.3015,-4.800488E-05,4.5225,0
0.3024,7.418937E-05,4.536,0,0.3024,-1.275654E-05,4.536,0
0.3033,-4.39765E-05,4.5495,0,0.3033,4.229801E-05,4.5495,0
0.3042,-0.0001409934,4.563,0,0.3042,-9.063859E-06,4.563,0
0.3051,-0.000186984,4.5765,0,0.3051,-4.39765E-05,4.5765,0
0.306,-8.627451E-05,4.59,0,0.306,1.947051E-05,4.59,0
0.3069,-5.706874E-05,4.6035,0,0.3069,1.846342E-05,4.6035,0
0.3078,-0.0001735561,4.617,0,0.3078,-6.51255E-05,4.617,0
0.3087,-0.0002124971,4.6305,0,0.3087,-8.69459E-05,4.6305,0
0.3096,-0.0001537499,4.644,0,0.3096,-5.035477E-05,4.644,0
0.3105,-3.994812E-05,4.6575,0,0.3105,-2.685588E-05,4.6575,0
0.3114,1.242084E-05,4.671,0,0.3114,-3.625543E-05,4.671,0
0.3123,5.001907E-05,4.6845,0,0.3123,-1.846342E-05,4.6845,0
0.3132,0.000109102,4.698,0,0.3132,4.733349E-05,4.698,0
0.3141,5.337606E-05,4.7115,0,0.3141,5.505455E-05,4.7115,0
0.315,1.510643E-05,4.725,0,0.315,3.356985E-07,4.725,0
0.3159,1.947051E-05,4.7385,0,0.3159,-8.89601E-05,4.7385,0
0.3168,-0.0001540856,4.752,0,0.3168,-3.826963E-05,4.752,0
0.3177,-6.948959E-05,4.7655,0,0.3177,3.356985E-07,4.7655,0
0.3186,5.304036E-05,4.779,0,0.3186,-5.236896E-05,4.779,0
0.3195,2.450599E-05,4.7925,0,0.3195,-1.007095E-05,4.7925,0
0.3204,-2.014191E-06,4.806,0,0.3204,1.510643E-05,4.806,0
0.3213,-6.042573E-06,4.8195,0,0.3213,-2.853437E-05,4.8195,0
0.3222,9.735256E-06,4.833,0,0.3222,-1.812772E-05,4.833,0
0.3231,-1.409934E-05,4.8465,0,0.3231,6.378271E-06,4.8465,0
0.324,3.793393E-05,4.86,0,0.324,-2.786297E-05,4.86,0
0.3249,3.860533E-05,4.8735,0,0.3249,-4.129091E-05,4.8735,0
0.3258,-2.618448E-05,4.887,0,0.3258,-4.196231E-05,4.887,0
0.3267,-1.712062E-05,4.9005,0,0.3267,1.141375E-05,4.9005,0
0.3276,-8.728161E-06,4.914,0,0.3276,3.860533E-05,4.914,0
0.3285,1.879912E-05,4.9275,0,0.3285,1.678492E-05,4.9275,0
0.3294,3.054856E-05,4.941,0,0.3294,-3.894102E-05,4.941,0
0.3303,6.009003E-05,4.9545,0,0.3303,-6.210422E-05,4.9545,0
0.3312,5.606165E-05,4.968,0,0.3312,-8.89601E-05,4.968,0
0.3321,0.0001816129,4.9815,0,0.3321,-0.0001117876,4.9815,0
0.333,0.0002205539,4.995,0,0.333,-5.740444E-05,4.995,0
0.3339,0.0001641566,5.0085,0,0.3339,-2.18204E-05,5.0085,0
0.3348,3.860533E-05,5.022,0,0.3348,-1.913481E-05,5.022,0
0.3357,-3.424125E-05,5.0355,0,0.3357,-2.853437E-05,5.0355,0
0.3366,-0.0001178302,5.049,0,0.3366,-3.692683E-05,5.049,0
0.3375,-0.0003528191,5.0625,0,0.3375,-1.242084E-05,5.0625,0
0.3384,-0.0002544594,5.076,0,0.3384,5.740444E-05,5.076,0
0.3393,-3.524834E-05,5.0895,0,0.3393,7.754635E-05,5.0895,0
0.3402,4.36408E-06,5.103,0,0.3402,9.600977E-05,5.103,0
0.3411,3.021286E-05,5.1165,0,0.3411,3.625543E-05,5.1165,0
0.342,3.894102E-05,5.13,0,0.342,-3.424125E-05,5.13,0
0.3429,-1.510643E-05,5.1435,0,0.3429,-4.733349E-05,5.1435,0
0.3438,-2.987716E-05,5.157,0,0.3438,1.577783E-05,5.157,0
0.3447,-2.047761E-05,5.1705,0,0.3447,2.349889E-05,5.1705,0
0.3456,-5.236896E-05,5.184,0,0.3456,-9.600977E-05,5.184,0
0.3465,-1.678492E-06,5.1975,0,0.3465,-0.0001326009,5.1975,0
0.3474,2.450599E-05,5.211,0,0.3474,-0.0001641566,5.211,0
0.3483,3.189136E-05,5.2245,0,0.3483,-0.0002098116,5.2245,0
0.3492,-1.913481E-05,5.238,0,0.3492,-0.0001426719,5.238,0
0.3501,-7.620356E-05,5.2515,0,0.3501,-4.061952E-05,5.2515,0
0.351,-1.174945E-05,5.265,0,0.351,7.016098E-05,5.265,0
0.3519,4.36408E-06,5.2785,0,0.3519,0.0001628138,5.2785,0
0.3528,5.169757E-05,5.292,0,0.3528,0.0001654994,5.292,0
0.3537,3.457694E-05,5.3055,0,0.3537,0.0001701991,5.3055,0
0.3546,1.644922E-05,5.319,0,0.3546,8.291753E-05,5.319,0
0.3555,6.814679E-05,5.3325,0,0.3555,3.558404E-05,5.3325,0
0.3564,0.0001534142,5.346,0,0.3564,2.1149E-05,5.346,0
0.3573,-3.021286E-06,5.3595,0,0.3573,-6.042573E-06,5.3595,0
0.3582,-0.0001399863,5.373,0,0.3582,-0.0001218585,5.373,0
0.3591,-0.0001305867,5.3865,0,0.3591,-0.000172549,5.3865,0
0.36,-9.433127E-05,5.4,0,0.36,-0.0001185016,5.4,0
0.3609,-5.471885E-05,5.4135,0,0.3609,-6.6804E-05,5.4135,0
0.3618,7.150377E-05,5.427,0,0.3618,-1.846342E-05,5.427,0
0.3627,0.0001947051,5.4405,0,0.3627,5.404745E-05,5.4405,0
0.3636,0.0002252537,5.454,0,0.3636,0.0001151446,5.454,0
0.3645,0.0001624781,5.4675,0,0.3645,2.517739E-05,5.4675,0
0.3654,-8.69459E-05,5.481,0,0.3654,-1.644922E-05,5.481,0
0.3663,-0.0002400244,5.4945,0,0.3663,-4.699779E-05,5.4945,0
0.3672,-0.0002292821,5.508,0,0.3672,-2.652018E-05,5.508,0
0.3681,-0.0001453574,5.5215,0,0.3681,1.309224E-05,5.5215,0
0.369,-6.076142E-05,5.535,0,0.369,2.618448E-05,5.535,0
0.3699,-7.385367E-05,5.5485,0,0.3699,-1.107805E-05,5.5485,0
0.3708,-2.752728E-05,5.562,0,0.3708,2.450599E-05,5.562,0
0.3717,7.049668E-06,5.5755,0,0.3717,-1.980621E-05,5.5755,0
0.3726,8.224613E-05,5.589,0,0.3726,-0.0001315938,5.589,0
0.3735,0.0001084306,5.6025,0,0.3735,-0.0001017166,5.6025,0
0.3744,0.0001077592,5.616,0,0.3744,-0.0001117876,5.616,0
0.3753,7.217517E-05,5.6295,0,0.3753,-9.634547E-05,5.6295,0
0.3762,-5.706874E-06,5.643,0,0.3762,3.726253E-05,5.643,0
0.3771,-7.754635E-05,5.6565,0,0.3771,0.0001420005,5.6565,0
0.378,-8.761731E-05,5.67,0,0.378,0.0001443503,5.67,0
0.3789,-0.0001735561,5.6835,0,0.3789,4.263371E-05,5.6835,0
0.3798,-7.284657E-05,5.697,0,0.3798,-1.443504E-05,5.697,0
0.3807,-1.242084E-05,5.7105,0,0.3807,6.713969E-07,5.7105,0
0.3816,-1.712062E-05,5.724,0,0.3816,-8.392462E-06,5.724,0
0.3825,1.913481E-05,5.7375,0,0.3825,-5.673304E-05,5.7375,0
0.3834,3.860533E-05,5.751,0,0.3834,-9.298848E-05,5.751,0
0.3843,8.560311E-05,5.7645,0,0.3843,-2.484169E-05,5.7645,0
0.3852,8.761731E-05,5.778,0,0.3852,-4.33051E-05,5.778,0
0.3861,5.673304E-05,5.7915,0,0.3861,-0.0001218585,5.7915,0
0.387,6.411841E-05,5.805,0,0.387,-8.358892E-05,5.805,0
0.3879,8.661021E-05,5.8185,0,0.3879,-5.169757E-05,5.8185,0
0.3888,9.466698E-05,5.832,0,0.3888,-6.109713E-05,5.832,0
0.3897,7.754635E-05,5.8455,0,0.3897,-3.121996E-05,5.8455,0
0.3906,7.150377E-05,5.859,0,0.3906,5.371176E-06,5.859,0
0.3915,1.242084E-05,5.8725,0,0.3915,7.049668E-06,5.8725,0
0.3924,-8.627451E-05,5.886,0,0.3924,3.692683E-05,5.886,0
0.3933,-0.0001185016,5.8995,0,0.3933,1.678492E-06,5.8995,0
0.3942,-5.774014E-05,5.913,0,0.3942,-3.692683E-06,5.913,0
0.3951,-9.768826E-05,5.9265,0,0.3951,-1.846342E-05,5.9265,0
0.396,-0.0001003738,5.94,0,0.396,-4.29694E-05,5.94,0
0.3969,-9.164568E-05,5.9535,0,0.3969,-6.61326E-05,5.9535,0
0.3978,-0.0001238727,5.967,0,0.3978,-4.565499E-05,5.967,0
0.3987,-0.0001641566,5.9805,0,0.3987,-7.922484E-05,5.9805,0
0.3996,-6.076142E-05,5.994,0,0.3996,-0.0001262226,5.994,0
0.4005,-1.376364E-05,6.0075,0,0.4005,-5.539025E-05,6.0075,0
0.4014,-2.618448E-05,6.021,0,0.4014,-4.699779E-06,6.021,0
0.4023,-3.390555E-05,6.0345,0,0.4023,-2.786297E-05,6.0345,0
0.4032,2.484169E-05,6.048,0,0.4032,-9.063859E-06,6.048,0
0.4041,-9.063859E-06,6.0615,0,0.4041,3.793393E-05,6.0615,0
0.405,1.779202E-05,6.075,0,0.405,4.263371E-05,6.075,0
0.4059,5.069047E-05,6.0885,0,0.4059,1.443504E-05,6.0885,0
0.4068,7.083238E-05,6.102,0,0.4068,-9.600977E-05,6.102,0
0.4077,5.203327E-05,6.1155,0,0.4077,-0.0001148089,6.1155,0
0.4086,-1.242084E-05,6.129,0,0.4086,-0.0001037308,6.129,0
0.4095,3.692683E-06,6.1425,0,0.4095,-0.0001346151,6.1425,0
0.4104,4.699779E-05,6.156,0,0.4104,-8.627451E-05,6.156,0
0.4113,4.901198E-05,6.1695,0,0.4113,2.652018E-05,6.1695,0
0.4122,3.524834E-05,6.183,0,0.4122,7.687495E-05,6.183,0
0.4131,7.721065E-06,6.1965,0,0.4131,-2.719158E-05,6.1965,0
0.414,-1.409934E-05,6.21,0,0.414,-9.835965E-05,6.21,0
0.4149,1.846342E-05,6.2235,0,0.4149,-0.0001080949,6.2235,0
0.4158,-2.786297E-05,6.237,0,0.4158,-0.0001275654,6.237,0
0.4167,-2.28275E-05,6.2505,0,0.4167,-3.457694E-05,6.2505,0
0.4176,3.692683E-05,6.264,0,0.4176,0.000102388,6.264,0
0.4185,0.0001460288,6.2775,0,0.4185,0.000235996,6.2775,0
0.4194,0.0001218585,6.291,0,0.4194,0.0002017548,6.291,0
0.4203,7.888914E-05,6.3045,0,0.4203,0.0001292439,6.3045,0
0.4212,2.24918E-05,6.318,0,0.4212,7.083238E-05,6.318,0
0.4221,-0.0001037308,6.3315,0,0.4221,5.169757E-05,6.3315,0
0.423,-6.076142E-05,6.345,0,0.423,-2.383459E-05,6.345,0
0.4239,-3.524834E-05,6.3585,0,0.4239,-7.754635E-05,6.3585,0
0.4248,5.941863E-05,6.372,0,0.4248,1.611353E-05,6.372,0
0.4257,-5.203327E-05,6.3855,0,0.4257,1.443504E-05,6.3855,0
0.4266,-0.0001863127,6.399,0,0.4266,-6.277562E-05,6.399,0
0.4275,-0.0001534142,6.4125,0,0.4275,-2.685588E-06,6.4125,0
0.4284,-0.0001467002,6.426,0,0.4284,6.713969E-06,6.426,0
0.4293,-0.0001292439,6.4395,0,0.4293,-4.867628E-05,6.4395,0
0.4302,-8.728161E-06,6.453,0,0.4302,-3.256275E-05,6.453,0
0.4311,4.36408E-05,6.4665,0,0.4311,-4.36408E-06,6.4665,0
0.432,6.009003E-05,6.48,0,0.432,-1.678492E-05,6.48,0
0.4329,0.0001567712,6.4935,0,0.4329,-3.591974E-05,6.4935,0
0.4338,0.0001748989,6.507,0,0.4338,-3.692683E-05,6.507,0
0.4347,0.0001077592,6.5205,0,0.4347,7.049668E-06,6.5205,0
0.4356,-2.28275E-05,6.534,0,0.4356,-1.208515E-05,6.534,0
0.4365,-0.0002020905,6.5475,0,0.4365,-4.229801E-05,6.5475,0
0.4374,-0.0002098116,6.561,0,0.4374,-5.941863E-05,6.561,0
0.4383,-9.835965E-05,6.5745,0,0.4383,-1.040665E-05,6.5745,0
0.4392,-2.987716E-05,6.588,0,0.4392,-7.049668E-06,6.588,0
0.4401,-5.371176E-06,6.6015,0,0.4401,-7.486076E-05,6.6015,0
0.441,4.095522E-05,6.615,0,0.441,-5.035477E-05,6.615,0
0.4419,9.835965E-05,6.6285,0,0.4419,-5.404745E-05,6.6285,0
0.4428,6.881819E-05,6.642,0,0.4428,-9.164568E-05,6.642,0
0.4437,1.745632E-05,6.6555,0,0.4437,-0.0001346151,6.6555,0
0.4446,7.049668E-06,6.669,0,0.4446,-0.0001144732,6.669,0
0.4455,-1.007095E-06,6.6825,0,0.4455,-0.0001101091,6.6825,0
0.4464,-7.049668E-06,6.696,0,0.4464,-7.721065E-05,6.696,0
0.4473,-9.332418E-05,6.7095,0,0.4473,-6.881819E-05,6.7095,0
0.4482,-9.835965E-05,6.723,0,0.4482,-5.371176E-06,6.723,0
0.4491,-6.54612E-05,6.7365,0,0.4491,8.82887E-05,6.7365,0
0.45,-2.047761E-05,6.75,0,0.45,2.987716E-05,6.75,0
0.4509,4.699779E-06,6.7635,0,0.4509,-4.834058E-05,6.7635,0
0.4518,-4.867628E-05,6.777,0,0.4518,3.155566E-05,6.777,0
0.4527,3.356985E-07,6.7905,0,0.4527,8.560311E-05,6.7905,0
0.4536,7.049668E-05,6.804,0,0.4536,5.203327E-05,6.804,0
0.4545,-1.242084E-05,6.8175,0,0.4545,8.258183E-05,6.8175,0
0.4554,-2.21561E-05,6.831,0,0.4554,5.404745E-05,6.831,0
0.4563,3.726253E-05,6.8445,0,0.4563,3.625543E-05,6.8445,0
0.4572,6.176852E-05,6.858,0,0.4572,2.316319E-05,6.858,0
0.4581,3.927672E-05,6.8715,0,0.4581,1.174945E-05,6.8715,0
0.459,3.860533E-05,6.885,0,0.459,-1.107805E-05,6.885,0
0.4599,2.719158E-05,6.8985,0,0.4599,-4.061952E-05,6.8985,0
0.4608,2.081331E-05,6.912,0,0.4608,-9.433127E-05,6.912,0
0.4617,4.53193E-05,6.9255,0,0.4617,-7.620356E-05,6.9255,0
0.4626,4.733349E-05,6.939,0,0.4626,-9.600977E-05,6.939,0
0.4635,3.994812E-05,6.9525,0,0.4635,-0.0001520714,6.9525,0
0.4644,5.136187E-05,6.966,0,0.4644,-0.0001483787,6.966,0
0.4653,1.678492E-05,6.9795,0,0.4653,-6.344701E-05,6.9795,0
0.4662,1.107805E-05,6.993,0,0.4662,1.779202E-05,6.993,0
0.4671,-4.263371E-05,7.0065,0,0.4671,4.599069E-05,7.0065,0
0.468,-0.0001174945,7.02,0,0.468,0.0001524071,7.02,0
0.4689,1.409934E-05,7.0335,0,0.4689,0.0001312581,7.0335,0
0.4698,6.076142E-05,7.047,0,0.4698,3.021286E-06,7.047,0
0.4707,5.035477E-06,7.0605,0,0.4707,-2.752728E-05,7.0605,0
0.4716,-3.726253E-05,7.074,0,0.4716,1.342794E-06,7.074,0
0.4725,-3.256275E-05,7.0875,0,0.4725,-1.107805E-05,7.0875,0
0.4734,3.424125E-05,7.101,0,0.4734,-2.316319E-05,7.101,0
0.4743,2.652018E-05,7.1145,0,0.4743,-7.418937E-05,7.1145,0
0.4752,3.121996E-05,7.128,0,0.4752,-3.659113E-05,7.128,0
0.4761,3.860533E-05,7.1415,0,0.4761,-2.450599E-05,7.1415,0
0.477,6.378271E-06,7.155,0,0.477,-0.0001037308,7.155,0
0.4779,-0.0001040665,7.1685,0,0.4779,-8.224613E-05,7.1685,0
0.4788,-0.0001013809,7.182,0,0.4788,-3.021286E-06,7.182,0
0.4797,-4.196231E-05,7.1955,0,0.4797,-8.392462E-06,7.1955,0
0.4806,-3.524834E-05,7.209,0,0.4806,-2.316319E-05,7.209,0
0.4815,-0.0001416648,7.2225,0,0.4815,3.994812E-05,7.2225,0
0.4824,-8.526741E-05,7.236,0,0.4824,7.284657E-05,7.236,0
0.4833,-3.088426E-05,7.2495,0,0.4833,-6.042573E-06,7.2495,0
0.4842,-4.599069E-05,7.263,0,0.4842,-1.544213E-05,7.263,0
0.4851,-5.606165E-05,7.2765,0,0.4851,7.049668E-06,7.2765,0
0.486,-4.632639E-05,7.29,0,0.486,-2.18204E-05,7.29,0
0.4869,-7.721065E-06,7.3035,0,0.4869,-2.786297E-05,7.3035,0
0.4878,1.040665E-05,7.317,0,0.4878,-4.867628E-05,7.317,0
0.4887,3.591974E-05,7.3305,0,0.4887,-7.754635E-05,7.3305,0
0.4896,0.0001121233,7.344,0,0.4896,-0.0001426719,7.344,0
0.4905,0.0001262226,7.3575,0,0.4905,-0.000154757,7.3575,0
0.4914,0.0002591592,7.371,0,0.4914,-0.0001416648,7.371,0
0.4923,0.000207126,7.3845,0,0.4923,-3.659113E-05,7.3845,0
0.4932,-3.390555E-05,7.398,0,0.4932,3.961242E-05,7.398,0
0.4941,-0.0001359579,7.4115,0,0.4941,0.0001097734,7.4115,0
0.495,-0.0001752346,7.425,0,0.495,0.0001154803,7.425,0
0.4959,-0.0002232395,7.4385,0,0.4959,4.53193E-05,7.4385,0
0.4968,-9.500267E-05,7.452,0,0.4968,2.584878E-05,7.452,0
0.4977,-3.726253E-05,7.4655,0,0.4977,3.021286E-06,7.4655,0
0.4986,-5.975433E-05,7.479,0,0.4986,3.692683E-06,7.479,0
0.4995,-1.644922E-05,7.4925,0,0.4995,-3.356985E-07,7.4925,0
0.5004,-1.141375E-05,7.506,0,0.5004,1.678492E-06,7.506,0
0.5013,6.61326E-05,7.5195,0,0.5013,-2.349889E-05,7.5195,0
0.5022,-2.719158E-05,7.533,0,0.5022,-1.712062E-05,7.533,0
0.5031,-5.236896E-05,7.5465,0,0.5031,-1.577783E-05,7.5465,0
0.504,-4.196231E-05,7.56,0,0.504,-4.39765E-05,7.56,0
0.5049,-1.376364E-05,7.5735,0,0.5049,-5.270466E-05,7.5735,0
0.5058,-9.735256E-06,7.587,0,0.5058,-3.021286E-06,7.587,0
0.5067,-1.376364E-05,7.6005,0,0.5067,-2.584878E-05,7.6005,0
0.5076,7.049668E-06,7.614,0,0.5076,-7.821774E-05,7.614,0
0.5085,1.510643E-05,7.6275,0,0.5085,-1.913481E-05,7.6275,0
0.5094,1.443504E-05,7.641,0,0.5094,1.040665E-05,7.641,0
0.5103,2.652018E-05,7.6545,0,0.5103,-4.46479E-05,7.6545,0
0.5112,1.846342E-05,7.668,0,0.5112,-3.289845E-05,7.668,0
0.5121,1.477073E-05,7.6815,0,0.5121,-1.779202E-05,7.6815,0
0.513,5.203327E-05,7.695,0,0.513,-3.088426E-05,7.695,0
0.5139,6.6804E-05,7.7085,0,0.5139,-1.208515E-05,7.7085,0
0.5148,7.855344E-05,7.722,0,0.5148,-4.33051E-05,7.722,0
0.5157,3.289845E-05,7.7355,0,0.5157,-2.920577E-05,7.7355,0
0.5166,-6.076142E-05,7.749,0,0.5166,-1.913481E-05,7.749,0
0.5175,-8.86244E-05,7.7625,0,0.5175,-5.001907E-05,7.7625,0
0.5184,-8.82887E-05,7.776,0,0.5184,-3.860533E-05,7.776,0
0.5193,-7.385367E-05,7.7895,0,0.5193,-1.141375E-05,7.7895,0
0.5202,1.342794E-06,7.803,0,0.5202,-2.719158E-05,7.803,0
0.5211,-1.745632E-05,7.8165,0,0.5211,-5.203327E-05,7.8165,0
0.522,-4.229801E-05,7.83,0,0.522,-1.242084E-05,7.83,0
0.5229,2.349889E-05,7.8435,0,0.5229,-6.378271E-06,7.8435,0
0.5238,6.64683E-05,7.857,0,0.5238,-2.551309E-05,7.857,0
0.5247,2.786297E-05,7.8705,0,0.5247,-5.706874E-06,7.8705,0
0.5256,8.728161E-06,7.884,0,0.5256,3.021286E-06,7.884,0
0.5265,-8.728161E-06,7.8975,0,0.5265,-1.141375E-05,7.8975,0
0.5274,-2.047761E-05,7.911,0,0.5274,-2.719158E-05,7.911,0
0.5283,1.141375E-05,7.9245,0,0.5283,-3.189136E-05,7.9245,0
0.5292,1.846342E-05,7.938,0,0.5292,-1.678492E-05,7.938,0
0.5301,3.692683E-06,7.9515,0,0.5301,-1.107805E-05,7.9515,0
0.531,4.36408E-06,7.965,0,0.531,-3.961242E-05,7.965,0
0.5319,2.484169E-05,7.9785,0,0.5319,-5.438316E-05,7.9785,0
0.5328,-1.242084E-05,7.992,0,0.5328,-1.644922E-05,7.992,0
0.5337,1.678492E-06,8.0055,0,0.5337,-2.014191E-05,8.0055,0
0.5346,2.786297E-05,8.019,0,0.5346,-6.109713E-05,8.019,0
0.5355,1.443504E-05,8.0325,0,0.5355,-3.692683E-06,8.0325,0
0.5364,-3.390555E-05,8.046,0,0.5364,1.443504E-05,8.046,0
0.5373,-1.309224E-05,8.0595,0,0.5373,-2.853437E-05,8.0595,0
0.5382,-1.644922E-05,8.073,0,0.5382,1.409934E-05,8.073,0
0.5391,-6.210422E-05,8.0865,0,0.5391,3.726253E-05,8.0865,0
0.54,-3.692683E-05,8.1,0,0.54,1.644922E-05,8.1,0
0.5409,6.042573E-06,8.1135,0,0.5409,5.035477E-06,8.1135,0
0.5418,2.652018E-05,8.127,0,0.5418,-1.678492E-06,8.127,0
0.5427,-5.035477E-06,8.1405,0,0.5427,-5.706874E-06,8.1405,0
0.5436,-3.659113E-05,8.154,0,0.5436,-2.1149E-05,8.154,0
0.5445,-1.678492E-05,8.1675,0,0.5445,-3.424125E-05,8.1675,0
0.5454,-2.685588E-06,8.181,0,0.5454,-4.53193E-05,8.181,0
0.5463,-3.894102E-05,8.1945,0,0.5463,-9.735256E-06,8.1945,0
0.5472,-1.712062E-05,8.208,0,0.5472,-3.692683E-06,8.208,0
0.5481,3.356985E-06,8.2215,0,0.5481,-4.934768E-05,8.2215,0
0.549,-1.510643E-05,8.235,0,0.549,-1.477073E-05,8.235,0
0.5499,3.021286E-05,8.2485,0,0.5499,1.510643E-05,8.2485,0
0.5508,1.174945E-05,8.262,0,0.5508,-2.819867E-05,8.262,0
0.5517,-3.021286E-06,8.2755,0,0.5517,-4.095522E-05,8.2755,0
0.5526,-1.174945E-05,8.289,0,0.5526,7.385367E-06,8.289,0
0.5535,-1.544213E-05,8.3025,0,0.5535,1.376364E-05,8.3025,0
0.5544,-1.913481E-05,8.316,0,0.5544,-1.107805E-05,8.316,0
0.5553,-1.779202E-05,8.3295,0,0.5553,-4.39765E-05,8.3295,0
0.5562,-6.042573E-06,8.343,0,0.5562,-1.779202E-05,8.343,0
0.5571,-1.779202E-05,8.3565,0,0.5571,1.913481E-05,8.3565,0
0.558,-1.174945E-05,8.37,0,0.558,-2.551309E-05,8.37,0
0.5589,-2.786297E-05,8.3835,0,0.5589,-7.217517E-05,8.3835,0
0.5598,-4.49836E-05,8.397,0,0.5598,-3.826963E-05,8.397,0
0.5607,-2.719158E-05,8.4105,0,0.5607,-3.961242E-05,8.4105,0
0.5616,-3.323415E-05,8.424,0,0.5616,-7.418937E-05,8.424,0
0.5625,-5.404745E-05,8.4375,0,0.5625,-3.121996E-05,8.4375,0
0.5634,-2.18204E-05,8.451,0,0.5634,-2.383459E-05,8.451,0
0.5643,-2.719158E-05,8.4645,0,0.5643,-1.846342E-05,8.4645,0
0.5652,-1.779202E-05,8.478,0,0.5652,1.040665E-05,8.478,0
0.5661,-5.035477E-06,8.4915,0,0.5661,3.189136E-05,8.4915,0
0.567,-1.611353E-05,8.505,0,0.567,-1.409934E-05,8.505,0
0.5679,-2.685588E-06,8.5185,0,0.5679,-7.049668E-06,8.5185,0
0.5688,7.284657E-05,8.532,0,0.5688,1.309224E-05,8.532,0
0.5697,8.426032E-05,8.5455,0,0.5697,6.042573E-06,8.5455,0
0.5706,8.96315E-05,8.559,0,0.5706,-5.035477E-06,8.559,0
0.5715,7.922484E-05,8.5725,0,0.5715,-2.21561E-05,8.5725,0
0.5724,6.344701E-05,8.586,0,0.5724,-3.894102E-05,8.586,0
0.5733,2.081331E-05,8.5995,0,0.5733,-4.36408E-06,8.5995,0
0.5742,-3.659113E-05,8.613,0,0.5742,-3.189136E-05,8.613,0
0.5751,-2.484169E-05,8.6265,0,0.5751,-8.627451E-05,8.6265,0
0.576,-9.735256E-06,8.64,0,0.576,-1.510643E-05,8.64,0
0.5769,-2.18204E-05,8.6535,0,0.5769,1.376364E-05,8.6535,0
0.5778,-1.510643E-05,8.667,0,0.5778,-2.18204E-05,8.667,0
0.5787,1.745632E-05,8.6805,0,0.5787,-2.316319E-05,8.6805,0
0.5796,-4.36408E-06,8.694,0,0.5796,-3.356985E-06,8.694,0
0.5805,-2.517739E-05,8.7075,0,0.5805,-3.558404E-05,8.7075,0
0.5814,-2.887007E-05,8.721,0,0.5814,-2.719158E-05,8.721,0
0.5823,-7.385367E-06,8.7345,0,0.5823,7.721065E-06,8.7345,0
0.5832,-1.846342E-05,8.748,0,0.5832,6.848249E-05,8.748,0
0.5841,-5.404745E-05,8.7615,0,0.5841,4.666209E-05,8.7615,0
0.585,-1.913481E-05,8.775,0,0.585,-2.014191E-06,8.775,0
0.5859,-8.392462E-06,8.7885,0,0.5859,-2.18204E-05,8.7885,0
0.5868,-9.735256E-06,8.802,0,0.5868,4.36408E-06,8.802,0
0.5877,8.392462E-06,8.8155,0,0.5877,-1.846342E-05,8.8155,0
0.5886,1.443504E-05,8.829,0,0.5886,-9.768826E-05,8.829,0
0.5895,-9.735256E-06,8.8425,0,0.5895,-4.33051E-05,8.8425,0
0.5904,-4.666209E-05,8.856,0,0.5904,-1.107805E-05,8.856,0
0.5913,-1.947051E-05,8.8695,0,0.5913,-3.390555E-05,8.8695,0
0.5922,-5.471885E-05,8.883,0,0.5922,-6.210422E-05,8.883,0
0.5931,-6.848249E-05,8.8965,0,0.5931,-3.558404E-05,8.8965,0
0.594,-1.443504E-05,8.91,0,0.594,-2.987716E-05,8.91,0
0.5949,-2.652018E-05,8.9235,0,0.5949,-1.477073E-05,8.9235,0
0.5958,2.24918E-05,8.937,0,0.5958,-4.766919E-05,8.937,0
0.5967,3.390555E-05,8.9505,0,0.5967,-3.894102E-05,8.9505,0
0.5976,2.21561E-05,8.964,0,0.5976,-1.779202E-05,8.964,0
0.5985,2.920577E-05,8.9775,0,0.5985,-5.069047E-05,8.9775,0
0.5994,6.713969E-07,8.991,0,0.5994,-7.418937E-05,8.991,0
0.6003,-4.061952E-05,9.0045,0,0.6003,-1.712062E-05,9.0045,0
0.6012,-5.001907E-05,9.018,0,0.6012,0,9.018,0
0.6021,-2.383459E-05,9.0315,0,0.6021,-3.121996E-05,9.0315,0
0.603,-7.452507E-05,9.045,0,0.603,-2.24918E-05,9.045,0
0.6039,-5.236896E-05,9.0585,0,0.6039,-8.392462E-06,9.0585,0
0.6048,-2.349889E-05,9.072001,0,0.6048,-6.210422E-05,9.072001,0
0.6057,-2.551309E-05,9.0855,0,0.6057,-4.129091E-05,9.0855,0
0.6066,1.846342E-05,9.099,0,0.6066,3.894102E-05,9.099,0
0.6075,4.39765E-05,9.1125,0,0.6075,4.766919E-05,9.1125,0
0.6084,2.887007E-05,9.126,0,0.6084,2.349889E-05,9.126,0
0.6093,3.323415E-05,9.1395,0,0.6093,-1.342794E-06,9.1395,0
0.6102,6.378271E-05,9.153,0,0.6102,1.712062E-05,9.153,0
0.6111,6.411841E-05,9.1665,0,0.6111,-4.028382E-06,9.1665,0
0.612,4.162661E-05,9.18,0,0.612,-2.484169E-05,9.18,0
0.6129,4.53193E-05,9.1935,0,0.6129,-5.136187E-05,9.1935,0
0.6138,-1.745632E-05,9.207,0,0.6138,2.349889E-05,9.207,0
0.6147,-2.047761E-05,9.2205,0,0.6147,1.409934E-05,9.2205,0
0.6156,2.383459E-05,9.234,0,0.6156,2.014191E-06,9.234,0
0.6165,-3.088426E-05,9.2475,0,0.6165,5.035477E-06,9.2475,0
0.6174,-6.210422E-05,9.261,0,0.6174,-1.644922E-05,9.261,0
0.6183,-5.337606E-05,9.2745,0,0.6183,-6.478981E-05,9.2745,0
0.6192,-5.471885E-05,9.288,0,0.6192,-5.069047E-05,9.288,0
0.6201,-6.61326E-05,9.3015,0,0.6201,-3.424125E-05,9.3015,0
0.621,-3.457694E-05,9.315,0,0.621,-6.311131E-05,9.315,0
0.6219,7.721065E-06,9.3285,0,0.6219,-5.304036E-05,9.3285,0
0.6228,-1.007095E-05,9.342,0,0.6228,-4.061952E-05,9.342,0
0.6237,-1.846342E-05,9.3555,0,0.6237,-8.392462E-06,9.3555,0
0.6246,7.721065E-06,9.369,0,0.6246,1.409934E-05,9.369,0
0.6255,-1.846342E-05,9.3825,0,0.6255,-2.383459E-05,9.3825,0
0.6264,7.049668E-06,9.396,0,0.6264,-4.666209E-05,9.396,0
0.6273,-1.510643E-05,9.4095,0,0.6273,5.035477E-06,9.4095,0
0.6282,-7.721065E-06,9.423,0,0.6282,-4.800488E-05,9.423,0
0.6291,1.913481E-05,9.4365,0,0.6291,-0.0001148089,9.4365,0
0.63,4.699779E-06,9.45,0,0.63,-6.009003E-05,9.45,0
0.6309,-2.383459E-05,9.4635,0,0.6309,-3.524834E-05,9.4635,0
0.6318,3.021286E-06,9.477,0,0.6318,-7.351797E-05,9.477,0
0.6327,-1.913481E-05,9.4905,0,0.6327,-5.572595E-05,9.4905,0
0.6336,-1.342794E-06,9.504,0,0.6336,3.994812E-05,9.504,0
0.6345,2.383459E-05,9.5175,0,0.6345,5.706874E-05,9.5175,0
0.6354,3.189136E-05,9.531,0,0.6354,7.486076E-05,9.531,0
0.6363,6.109713E-05,9.5445,0,0.6363,1.409934E-05,9.5445,0
0.6372,4.599069E-05,9.558,0,0.6372,-2.383459E-05,9.558,0
0.6381,3.692683E-06,9.5715,0,0.6381,-1.745632E-05,9.5715,0
0.639,-7.385367E-06,9.585,0,0.639,-6.311131E-05,9.585,0
0.6399,-2.014191E-05,9.5985,0,0.6399,-7.016098E-05,9.5985,0
0.6408,-2.383459E-05,9.612,0,0.6408,-1.040665E-05,9.612,0
0.6417,6.042573E-06,9.6255,0,0.6417,-1.007095E-06,9.6255,0
0.6426,-1.544213E-05,9.639,0,0.6426,-4.196231E-05,9.639,0
0.6435,-1.980621E-05,9.6525,0,0.6435,1.007095E-06,9.6525,0
0.6444,-9.399558E-06,9.666,0,0.6444,-8.392462E-06,9.666,0
0.6453,-1.745632E-05,9.6795,0,0.6453,-5.673304E-05,9.6795,0
0.6462,-8.191043E-05,9.693,0,0.6462,-1.577783E-05,9.693,0
0.6471,-8.627451E-05,9.7065,0,0.6471,9.063859E-06,9.7065,0
0.648,-6.78111E-05,9.72,0,0.648,1.779202E-05,9.72,0
0.6489,-3.289845E-05,9.7335,0,0.6489,9.735256E-06,9.7335,0
0.6498,-9.399558E-06,9.747,0,0.6498,-2.316319E-05,9.747,0
0.6507,7.721065E-06,9.7605,0,0.6507,-9.735256E-06,9.7605,0
0.6516,4.129091E-05,9.774,0,0.6516,2.349889E-06,9.774,0
0.6525,5.337606E-05,9.7875,0,0.6525,-1.812772E-05,9.7875,0
0.6534,3.625543E-05,9.801,0,0.6534,-3.524834E-05,9.801,0
0.6543,-3.692683E-06,9.8145,0,0.6543,3.054856E-05,9.8145,0
0.6552,3.356985E-06,9.828,0,0.6552,4.129091E-05,9.828,0
0.6561,2.450599E-05,9.8415,0,0.6561,1.779202E-05,9.8415,0
0.657,2.752728E-05,9.855,0,0.657,2.24918E-05,9.855,0
0.6579,1.812772E-05,9.8685,0,0.6579,-4.028382E-06,9.8685,0
0.6588,2.014191E-06,9.882,0,0.6588,-6.54612E-05,9.882,0
0.6597,3.356985E-07,9.8955,0,0.6597,-5.673304E-05,9.8955,0
0.6606,-3.524834E-05,9.909,0,0.6606,-1.712062E-05,9.909,0
0.6615,-2.719158E-05,9.9225,0,0.6615,-1.074235E-05,9.9225,0
0.6624,2.652018E-05,9.936,0,0.6624,-8.392462E-06,9.936,0
0.6633,3.356985E-05,9.9495,0,0.6633,-4.33051E-05,9.9495,0
0.6642,4.733349E-05,9.963,0,0.6642,-3.860533E-05,9.963,0
0.6651,2.417029E-05,9.976501,0,0.6651,-7.049668E-06,9.976501,0
0.666,6.713969E-07,9.99,0,0.666,-3.625543E-05,9.99,0
0.6669,2.584878E-05,10.0035,0,0.6669,-3.424125E-05,10.0035,0
0.6678,-4.39765E-05,10.017,0,0.6678,-3.356985E-06,10.017,0
0.6687,-6.210422E-05,10.0305,0,0.6687,-3.927672E-05,10.0305,0
0.6696,-1.779202E-05,10.044,0,0.6696,-7.418937E-05,10.044,0
0.6705,-5.069047E-05,10.0575,0,0.6705,-3.323415E-05,10.0575,0
0.6714,-4.061952E-05,10.071,0,0.6714,-3.659113E-05,10.071,0
0.6723,-8.761731E-05,10.0845,0,0.6723,-5.740444E-05,10.0845,0
0.6732,-0.0001054093,10.098,0,0.6732,-5.001907E-05,10.098,0
0.6741,-4.800488E-05,10.1115,0,0.6741,6.713969E-06,10.1115,0
0.675,-2.719158E-05,10.125,0,0.675,-1.678492E-06,10.125,0
0.6759,-2.18204E-05,10.1385,0,0.6759,-6.378271E-06,10.1385,0
0.6768,1.040665E-05,10.152,0,0.6768,-1.577783E-05,10.152,0
0.6777,-3.021286E-06,10.1655,0,0.6777,8.728161E-06,10.1655,0
0.6786,-4.599069E-05,10.179,0,0.6786,3.121996E-05,10.179,0
0.6795,-4.33051E-05,10.1925,0,0.6795,1.947051E-05,10.1925,0
0.6804,4.666209E-05,10.206,0,0.6804,-1.376364E-05,10.206,0
0.6813,2.383459E-05,10.2195,0,0.6813,-3.424125E-05,10.2195,0
0.6822,1.242084E-05,10.233,0,0.6822,-0.0001064164,10.233,0
0.6831,4.666209E-05,10.2465,0,0.6831,-0.0001923552,10.2465,0
0.684,8.526741E-05,10.26,0,0.684,-0.0001292439,10.26,0
0.6849,7.989624E-05,10.2735,0,0.6849,-0.0001044022,10.2735,0
0.6858,5.169757E-05,10.287,0,0.6858,-9.533837E-05,10.287,0
0.6867,-9.970245E-05,10.3005,0,0.6867,-5.236896E-05,10.3005,0
0.6876,-0.0001658351,10.314,0,0.6876,7.821774E-05,10.314,0
0.6885,-0.0001084306,10.3275,0,0.6885,0.000179263,10.3275,0
0.6894,-8.89601E-05,10.341,0,0.6894,0.0001896696,10.341,0
0.6903,-3.390555E-05,10.3545,0,0.6903,8.493171E-05,10.3545,0
0.6912,9.063859E-06,10.368,0,0.6912,6.64683E-05,10.368,0
0.6921,-3.021286E-06,10.3815,0,0.6921,5.874724E-05,10.3815,0
0.693,-1.913481E-05,10.395,0,0.693,7.721065E-06,10.395,0
0.6939,-1.208515E-05,10.4085,0,0.6939,-2.652018E-05,10.4085,0
0.6948,-2.685588E-06,10.422,0,0.6948,-8.392462E-06,10.422,0
0.6957,-1.208515E-05,10.4355,0,0.6957,-1.644922E-05,10.4355,0
0.6966,3.054856E-05,10.449,0,0.6966,-4.061952E-05,10.449,0
0.6975,5.304036E-05,10.4625,0,0.6975,1.107805E-05,10.4625,0
0.6984,5.673304E-05,10.476,0,0.6984,3.021286E-06,10.476,0
0.6993,6.948959E-05,10.4895,0,0.6993,-8.86244E-05,10.4895,0
0.7002,7.989624E-05,10.503,0,0.7002,-0.000123537,10.503,0
0.7011,3.189136E-05,10.5165,0,0.7011,-9.634547E-05,10.5165,0
0.702,-1.913481E-05,10.53,0,0.702,-8.627451E-05,10.53,0
0.7029,4.36408E-06,10.5435,0,0.7029,-5.069047E-05,10.5435,0
0.7038,0,10.557,0,0.7038,-4.53193E-05,10.557,0
0.7047,-5.102617E-05,10.5705,0,0.7047,4.36408E-06,10.5705,0
0.7056,-5.471885E-05,10.584,0,0.7056,8.023193E-05,10.584,0
0.7065,3.289845E-05,10.5975,0,0.7065,7.821774E-05,10.5975,0
0.7074,1.913481E-05,10.611,0,0.7074,1.846342E-05,10.611,0
0.7083,1.074235E-05,10.6245,0,0.7083,3.692683E-05,10.6245,0
0.7092,1.577783E-05,10.638,0,0.7092,9.063859E-06,10.638,0
0.7101,1.577783E-05,10.6515,0,0.7101,-4.666209E-05,10.6515,0
0.711,4.028382E-06,10.665,0,0.711,-2.887007E-05,10.665,0
0.7119,-1.376364E-05,10.6785,0,0.7119,5.035477E-06,10.6785,0
0.7128,-1.577783E-05,10.692,0,0.7128,-1.947051E-05,10.692,0
0.7137,-1.913481E-05,10.7055,0,0.7137,-6.71397E-05,10.7055,0
0.7146,3.894102E-05,10.719,0,0.7146,-8.023193E-05,10.719,0
0.7155,0.0001433432,10.7325,0,0.7155,-9.903105E-05,10.7325,0
0.7164,0.0001990692,10.746,0,0.7164,-0.0001238727,10.746,0
0.7173,0.0001487144,10.7595,0,0.7173,-0.0001312581,10.7595,0
0.7182,0.0001003738,10.773,0,0.7182,-0.0001040665,10.773,0
0.7191,-1.242084E-05,10.7865,0,0.7191,-0.0001064164,10.7865,0
0.72,-0.0002836652,10.8,0,0.72,-4.599069E-05,10.8,0
0.7209,-0.0002907149,10.8135,0,0.7209,3.054856E-05,10.8135,0
0.7218,-0.000115816,10.827,0,0.7218,0.0001178302,10.827,0
0.7227,-5.404745E-05,10.8405,0,0.7227,8.090334E-05,10.8405,0
0.7236,-5.639734E-05,10.854,0,0.7236,1.544213E-05,10.854,0
0.7245,-8.358892E-05,10.8675,0,0.7245,6.948959E-05,10.8675,0
0.7254,-9.164568E-05,10.881,0,0.7254,6.54612E-05,10.881,0
0.7263,-4.733349E-05,10.8945,0,0.7263,1.242084E-05,10.8945,0
0.7272,-6.478981E-05,10.908,0,0.7272,-1.040665E-05,10.908,0
0.7281,-5.001907E-05,10.9215,0,0.7281,-2.987716E-05,10.9215,0
0.729,7.049668E-06,10.935,0,0.729,-0.0001460288,10.935,0
0.7299,0.000158114,10.9485,0,0.7299,-0.0002057832,10.9485,0
0.7308,0.0003481193,10.962,0,0.7308,-0.0002333104,10.962,0
0.7317,0.0004387579,10.9755,0,0.7317,-0.0001940337,10.9755,0
0.7326,0.0002954147,10.989,0,0.7326,-0.0001514,10.989,0
0.7335,2.752728E-05,11.0025,0,0.7335,-0.0001399863,11.0025,0
0.7344,-0.0002735943,11.016,0,0.7344,-6.042573E-05,11.016,0
0.7353,-0.0006015717,11.0295,0,0.7353,0.0001339437,11.0295,0
0.7362,-0.0005357748,11.043,0,0.7362,0.0002652018,11.043,0
0.7371,-7.586786E-05,11.0565,0,0.7371,0.0002155184,11.0565,0
0.738,-6.57969E-05,11.07,0,0.738,0.0001987335,11.07,0
0.7389,-7.821774E-05,11.0835,0,0.7389,0.0001634852,11.0835,0
0.7398,2.450599E-05,11.097,0,0.7398,7.418937E-05,11.097,0
0.7407,6.143282E-05,11.1105,0,0.7407,2.1149E-05,11.1105,0
0.7416,9.970245E-05,11.124,0,0.7416,1.980621E-05,11.124,0
0.7425,0.0003148852,11.1375,0,0.7425,-6.344701E-05,11.1375,0
0.7434,0.0005998932,11.151,0,0.7434,-0.0002235752,11.151,0
0.7443,0.0006804608,11.1645,0,0.7443,-0.0003608759,11.1645,0
0.7452,0.0002840009,11.178,0,0.7452,-0.0004011597,11.178,0
0.7461,-0.0002279393,11.1915,0,0.7461,-0.000345098,11.1915,0
0.747,-0.0002960861,11.205,0,0.747,-0.0002615091,11.205,0
0.7479,-0.0004451362,11.2185,0,0.7479,-0.0001161517,11.2185,0
0.7488,-0.0008342107,11.232,0,0.7488,0.0001732204,11.232,0
0.7497,-0.0005918364,11.2455,0,0.7497,0.0004001526,11.2455,0
0.7506,-0.0002061189,11.259,0,0.7506,0.0004360723,11.259,0
0.7515,2.484169E-05,11.2725,0,0.7515,0.0004750133,11.2725,0
0.7524,0.0001050736,11.286,0,0.7524,0.0004031739,11.286,0
0.7533,0.000285008,11.2995,0,0.7533,0.0002406958,11.2995,0
0.7542,0.0003138781,11.313,0,0.7542,0.0001742275,11.313,0
0.7551,0.0001010452,11.3265,0,0.7551,0.0001577783,11.3265,0
0.756,-3.256275E-05,11.34,0,0.756,0.0001040665,11.34,0
0.7569,-0.0001977264,11.3535,0,0.7569,1.242084E-05,11.3535,0
0.7578,1.577783E-05,11.367,0,0.7578,-0.0001178302,11.367,0
0.7587,0.0004568856,11.3805,0,0.7587,-0.0001560998,11.3805,0
0.7596,0.0003487907,11.394,0,0.7596,-0.00024271,11.394,0
0.7605,0.0001426719,11.4075,0,0.7605,-0.0003699397,11.4075,0
0.7614,8.560311E-05,11.421,0,0.7614,-0.0003645686,11.421,0
0.7623,-0.0002373388,11.4345,0,0.7623,-0.0002363317,11.4345,0
0.7632,-0.0005861296,11.448,0,0.7632,-8.358892E-05,11.448,0
0.7641,-0.0004182803,11.4615,0,0.7641,3.289845E-05,11.4615,0
0.765,-0.0001389792,11.475,0,0.765,0.0001856413,11.475,0
0.7659,-2.954147E-05,11.4885,0,0.7659,0.000186984,11.4885,0
0.7668,9.768826E-05,11.502,0,0.7668,1.577783E-05,11.502,0
0.7677,0.0001983978,11.5155,0,0.7677,-0.0001896696,11.5155,0
0.7686,0.0001027237,11.529,0,0.7686,-0.000358526,11.529,0
0.7695,5.001907E-05,11.5425,0,0.7695,-0.0004343938,11.5425,0
0.7704,2.618448E-05,11.556,0,0.7704,-0.0004380865,11.556,0
0.7713,-0.0001178302,11.5695,0,0.7713,-0.0004367437,11.5695,0
0.7722,-0.000148043,11.583,0,0.7722,-0.0002252537,11.583,0
0.7731,-2.21561E-05,11.5965,0,0.7731,0.0001305867,11.5965,0
0.774,-5.337606E-05,11.61,0,0.774,0.0003702754,11.61,0
0.7749,1.007095E-06,11.6235,0,0.7749,0.0004508431,11.6235,0
0.7758,-2.18204E-05,11.637,0,0.7758,0.0005152972,11.637,0
0.7767,2.316319E-05,11.6505,0,0.7767,0.0004192874,11.6505,0
0.7776,9.768826E-05,11.664,0,0.7776,0.0001574426,11.664,0
0.7785,5.841154E-05,11.6775,0,0.7785,9.231708E-05,11.6775,0
0.7794,6.210422E-05,11.691,0,0.7794,3.088426E-05,11.691,0
0.7803,6.411841E-05,11.7045,0,0.7803,-3.591974E-05,11.7045,0
0.7812,8.291753E-05,11.718,0,0.7812,-9.030289E-05,11.718,0
0.7821,7.217517E-05,11.7315,0,0.7821,-0.0001185016,11.7315,0
0.783,5.673304E-05,11.745,0,0.783,-0.0001507286,11.745,0
0.7839,0.0001389792,11.7585,0,0.7839,-0.0001245441,11.7585,0
0.7848,0.0001346151,11.772,0,0.7848,-0.0001171588,11.772,0
0.7857,0.0001668421,11.7855,0,0.7857,-0.000148043,11.7855,0
0.7866,0.0002262608,11.799,0,0.7866,-0.0001987335,11.799,0
0.7875,0.0003179065,11.8125,0,0.7875,-0.0002876936,11.8125,0
0.7884,0.0003837034,11.826,0,0.7884,-0.0003326772,11.826,0
0.7893,0.0003471122,11.8395,0,0.7893,-0.0003860533,11.8395,0
0.7902,7.486076E-05,11.853,0,0.7902,-0.00033402,11.853,0
0.7911,-0.0002809796,11.8665,0,0.7911,-0.0002625162,11.8665,0
0.792,-0.000478706,11.88,0,0.792,-0.0001154803,11.88,0
0.7929,-0.0006623331,11.8935,0,0.7929,3.826963E-05,11.8935,0
0.7938,-0.0005528954,11.907,0,0.7938,0.0002212253,11.907,0
0.7947,-0.0003266346,11.9205,0,0.7947,0.0003138781,11.9205,0
0.7956,7.721065E-06,11.934,0,0.7956,0.0004501717,11.934,0
0.7965,0.0003038071,11.9475,0,0.7965,0.0004357366,11.9475,0
0.7974,0.0002279393,11.961,0,0.7974,0.0002373388,11.961,0
0.7983,9.231708E-05,11.9745,0,0.7983,-4.699779E-06,11.9745,0
0.7992,7.956054E-05,11.988,0,0.7992,-2.18204E-05,11.988,0
0.8001,-6.915389E-05,12.0015,0,0.8001,4.934768E-05,12.0015,0
0.801,-0.0003514763,12.015,0,0.801,6.210422E-05,12.015,0
0.8019,-0.0003226062,12.0285,0,0.8019,3.558404E-05,12.0285,0
0.8028,-6.78111E-05,12.042,0,0.8028,0.0001232013,12.042,0
0.8037,0.0002574807,12.0555,0,0.8037,0.0001728847,12.0555,0
0.8046,0.0004256657,12.069,0,0.8046,6.915389E-05,12.069,0
0.8055,0.0004199588,12.0825,0,0.8055,-0.0002366674,12.0825,0
0.8064,0.0004743419,12.096,0,0.8064,-0.0005139544,12.096,0
0.8073,0.0005119402,12.1095,0,0.8073,-0.0005532311,12.1095,0
0.8082,0.0002829938,12.123,0,0.8082,-0.0006418555,12.123,0
0.8091,0.0001366293,12.1365,0,0.8091,-0.0007613642,12.1365,0
0.81,7.888914E-05,12.15,0,0.81,-0.0005931792,12.15,0
0.8109,-0.0002648661,12.1635,0,0.8109,-9.433127E-05,12.1635,0
0.8118,-0.0008614023,12.177,0,0.8118,0.0003333486,12.177,0
0.8127,-0.001127947,12.1905,0,0.8127,0.000477699,12.1905,0
0.8136,-0.0008113832,12.204,0,0.8136,0.0005864652,12.204,0
0.8145,-0.0004518502,12.2175,0,0.8145,0.000679118,12.2175,0
0.8154,-0.0004508431,12.231,0,0.8154,0.0006932174,12.231,0
0.8163,-0.0003414054,12.2445,0,0.8163,0.0005213398,12.2445,0
0.8172,-0.0001836271,12.258,0,0.8172,0.0003380484,12.258,0
0.8181,-5.404745E-05,12.2715,0,0.8181,0.0001876554,12.2715,0
0.819,1.678492E-05,12.285,0,0.819,0.000102388,12.285,0
0.8199,3.591974E-05,12.2985,0,0.8199,5.136187E-05,12.2985,0
0.8208,2.887007E-05,12.312,0,0.8208,-3.524834E-05,12.312,0
0.8217,-1.242084E-05,12.3255,0,0.8217,-8.761731E-05,12.3255,0
0.8226,0.0001732204,12.339,0,0.8226,-9.298848E-05,12.339,0
0.8235,0.0003031357,12.3525,0,0.8235,-0.0001315938,12.3525,0
0.8244,0.0002601663,12.366,0,0.8244,-0.0002077974,12.366,0
0.8253,0.0001930266,12.3795,0,0.8253,-0.0002722515,12.3795,0
0.8262,0.0002165255,12.393,0,0.8262,-0.0002017548,12.393,0
0.8271,0.0001930266,12.4065,0,0.8271,-0.0001524071,12.4065,0
0.828,1.510643E-05,12.42,0,0.828,-0.0001560998,12.42,0
0.8289,-9.097429E-05,12.4335,0,0.8289,-0.0001426719,12.4335,0
0.8298,2.987716E-05,12.447,0,0.8298,-8.023193E-05,12.447,0
0.8307,0.000105745,12.4605,0,0.8307,-8.69459E-05,12.4605,0
0.8316,0.0001258869,12.474,0,0.8316,-0.0001423362,12.474,0
0.8325,0.0001809415,12.4875,0,0.8325,-0.0001195087,12.4875,0
0.8334,0.0002453956,12.501,0,0.8334,-0.0001117876,12.501,0
0.8343,0.000221561,12.5145,0,0.8343,-0.0001463645,12.5145,0
0.8352,0.0001245441,12.528,0,0.8352,-0.0001782559,12.528,0
0.8361,2.584878E-05,12.5415,0,0.8361,-0.000278294,12.5415,0
0.837,-0.0001238727,12.555,0,0.837,-0.0004145876,12.555,0
0.8379,-0.0001279011,12.5685,0,0.8379,-0.0003712825,12.5685,0
0.8388,2.786297E-05,12.582,0,0.8388,-0.0003001145,12.582,0
0.8397,2.081331E-05,12.5955,0,0.8397,-0.0001560998,12.5955,0
0.8406,3.189136E-05,12.609,0,0.8406,8.291753E-05,12.609,0
0.8415,1.376364E-05,12.6225,0,0.8415,0.0003158923,12.6225,0
0.8424,9.433127E-05,12.636,0,0.8424,0.0003612116,12.636,0
0.8433,7.385367E-05,12.6495,0,0.8433,0.000257145,12.6495,0
0.8442,7.620356E-05,12.663,0,0.8442,0.0001728847,12.663,0
0.8451,0.0001064164,12.6765,0,0.8451,0.0001050736,12.6765,0
0.846,0.000102388,12.69,0,0.846,9.097429E-05,12.69,0
0.8469,2.652018E-05,12.7035,0,0.8469,8.69459E-05,12.7035,0
0.8478,-3.021286E-06,12.717,0,0.8478,-1.678492E-06,12.717,0
0.8487,-1.577783E-05,12.7305,0,0.8487,-6.6804E-05,12.7305,0
0.8496,-5.001907E-05,12.744,0,0.8496,-0.0001359579,12.744,0
0.8505,-2.618448E-05,12.7575,0,0.8505,-0.0003692683,12.7575,0
0.8514,-9.735256E-06,12.771,0,0.8514,-0.0005475243,12.771,0
0.8523,-1.712062E-05,12.7845,0,0.8523,-0.0004884413,12.7845,0
0.8532,2.383459E-05,12.798,0,0.8532,-0.000249424,12.798,0
0.8541,4.196231E-05,12.8115,0,0.8541,1.309224E-05,12.8115,0
0.855,9.735256E-06,12.825,0,0.855,0.0002547952,12.825,0
0.8559,-2.014191E-05,12.8385,0,0.8559,0.0003246204,12.8385,0
0.8568,-5.471885E-05,12.852,0,0.8568,0.0004763562,12.852,0
0.8577,-8.69459E-05,12.8655,0,0.8577,0.0004340581,12.8655,0
0.8586,-4.39765E-05,12.879,0,0.8586,0.0003531548,12.879,0
0.8595001,-2.316319E-05,12.8925,0,0.8595001,0.000369604,12.8925,0
0.8604,-2.047761E-05,12.906,0,0.8604,0.0002171969,12.906,0
0.8613,-3.390555E-05,12.9195,0,0.8613,0.0001094377,12.9195,0
0.8622,-4.263371E-05,12.933,0,0.8622,6.009003E-05,12.933,0
0.8631,3.457694E-05,12.9465,0,0.8631,5.203327E-05,12.9465,0
0.864,0.000186984,12.96,0,0.864,-6.881819E-05,12.96,0
0.8649,0.0003232776,12.9735,0,0.8649,-0.0001661708,12.9735,0
0.8658,0.0003041428,12.987,0,0.8658,-0.0003078355,12.987,0
0.8667,0.0001326009,13.0005,0,0.8667,-0.0003837034,13.0005,0
0.8676,-0.0001832914,13.014,0,0.8676,-0.0002729229,13.014,0
0.8685,-0.000193698,13.0275,0,0.8685,-0.0001168231,13.0275,0
0.8694,-0.0003011215,13.041,0,0.8694,2.383459E-05,13.041,0
0.8703,-0.0005035477,13.0545,0,0.8703,7.116808E-05,13.0545,0
0.8712,-0.0002668803,13.068,0,0.8712,0.0001225299,13.068,0
0.8721,-0.0002376745,13.0815,0,0.8721,0.0001218585,13.0815,0
0.873,-0.0002937362,13.095,0,0.873,7.721065E-05,13.095,0
0.8739,-0.0001373007,13.1085,0,0.8739,7.351797E-05,13.1085,0
0.8748,-7.452507E-05,13.122,0,0.8748,1.779202E-05,13.122,0
0.8757,-6.74754E-05,13.1355,0,0.8757,4.766919E-05,13.1355,0
0.8766,-2.18204E-05,13.149,0,0.8766,8.728161E-06,13.149,0
0.8775,-5.371176E-06,13.1625,0,0.8775,-5.471885E-05,13.1625,0
0.8784,2.719158E-05,13.176,0,0.8784,-4.29694E-05,13.176,0
0.8793,6.54612E-05,13.1895,0,0.8793,-8.996719E-05,13.1895,0
0.8802,7.486076E-05,13.203,0,0.8802,-6.814679E-05,13.203,0
0.8811,0.000112459,13.2165,0,0.8811,-6.277562E-05,13.2165,0
0.882,0.0003904173,13.23,0,0.882,-0.0001000381,13.23,0
0.8829,0.0005085832,13.2435,0,0.8829,-0.0001164874,13.2435,0
0.8838,0.000408545,13.257,0,0.8838,-8.72816E-05,13.257,0
0.8847,0.000288365,13.2705,0,0.8847,-7.821774E-05,13.2705,0
0.8856,1.947051E-05,13.284,0,0.8856,-0.0001389792,13.284,0
0.8865,-0.0005082475,13.2975,0,0.8865,-0.0001594568,13.2975,0
0.8874,-0.000573373,13.311,0,0.8874,-0.0002165255,13.311,0
0.8883,-0.0001896696,13.3245,0,0.8883,-0.0003044785,13.3245,0
0.8892,-5.740444E-05,13.338,0,0.8892,-0.0002406958,13.338,0
0.8901,-0.0001631495,13.3515,0,0.8901,-0.0001141375,13.3515,0
0.891,-9.298848E-05,13.365,0,0.891,7.183947E-05,13.365,0
0.8919,-5.673304E-05,13.3785,0,0.8919,0.0001977264,13.3785,0
0.8928,1.879912E-05,13.392,0,0.8928,0.0001836271,13.392,0
0.8937,-6.713969E-07,13.4055,0,0.8937,0.0001755703,13.4055,0
0.8946,-0.0001107805,13.419,0,0.8946,0.0001607996,13.419,0
0.8955,-0.000278294,13.4325,0,0.8955,1.275654E-05,13.4325,0
0.8964,-0.0001279011,13.446,0,0.8964,8.392462E-06,13.446,0
0.8973,-3.088426E-05,13.4595,0,0.8973,0.0002111543,13.4595,0
0.8982,7.922484E-05,13.473,0,0.8982,0.0001748989,13.473,0
0.8991,0.0002722515,13.4865,0,0.8991,5.706874E-06,13.4865,0
0.9,0.0003215991,13.5,0,0.9,-8.661021E-05,13.5,0
0.9009,0.0003014572,13.5135,0,0.9009,-0.0002796368,13.5135,0
0.9018,0.0004763562,13.527,0,0.9018,-0.0004300298,13.527,0
0.9027,0.0006052644,13.5405,0,0.9027,-0.0004202945,13.5405,0
0.9036,0.0001983978,13.554,0,0.9036,-0.0001943694,13.554,0
0.9045,0.0002138399,13.5675,0,0.9045,4.934768E-05,13.5675,0
0.9054,-5.337606E-05,13.581,0,0.9054,0.0002024262,13.581,0
0.9063,-0.0004914626,13.5945,0,0.9063,0.0003971313,13.5945,0
0.9072,-0.0006562905,13.608,0,0.9072,0.0004495003,13.608,0
0.9081,-0.0008644236,13.6215,0,0.9081,0.0003313344,13.6215,0
0.909,-0.0008274968,13.635,0,0.909,0.0001003738,13.635,0
0.9099,-0.0004602426,13.6485,0,0.9099,-7.150377E-05,13.6485,0
0.9108,-0.000148043,13.662,0,0.9108,-3.323415E-05,13.662,0
0.9117,-3.860533E-05,13.6755,0,0.9117,-0.0001164874,13.6755,0
0.9126,5.069047E-05,13.689,0,0.9126,-0.0002601663,13.689,0
0.9135,0.0002353246,13.7025,0,0.9135,-0.0001889983,13.7025,0
0.9144,0.0001990692,13.716,0,0.9144,-0.0001423362,13.716,0
0.9153,9.097429E-05,13.7295,0,0.9153,-0.0001430075,13.7295,0
0.9162,6.277562E-05,13.743,0,0.9162,-8.69459E-05,13.743,0
0.9171,1.309224E-05,13.7565,0,0.9171,0.0001544213,13.7565,0
0.918,3.692683E-06,13.77,0,0.918,0.0002030976,13.77,0
0.9189,-6.378271E-06,13.7835,0,0.9189,0.0001624781,13.7835,0
0.9198,0.0001084306,13.797,0,0.9198,8.86244E-05,13.797,0
0.9207,0.0001601282,13.8105,0,0.9207,4.599069E-05,13.8105,0
0.9216,0.0001567712,13.824,0,0.9216,3.625543E-05,13.824,0
0.9225,0.0001164874,13.8375,0,0.9225,-1.913481E-05,13.8375,0
0.9234,0.0001346151,13.851,0,0.9234,-5.706874E-05,13.851,0
0.9243,0.0001218585,13.8645,0,0.9243,-5.505455E-05,13.8645,0
0.9252,9.365987E-05,13.878,0,0.9252,-8.157473E-05,13.878,0
0.9261,7.620356E-05,13.8915,0,0.9261,-0.0001292439,13.8915,0
0.927,0.0001117876,13.905,0,0.927,-0.0001104448,13.905,0
0.9279,0.0001514,13.9185,0,0.9279,-7.217517E-05,13.9185,0
0.9288,0.0001900053,13.932,0,0.9288,-8.426032E-05,13.932,0
0.9297,0.0001621424,13.9455,0,0.9297,-8.325322E-05,13.9455,0
0.9306,0.0001514,13.959,0,0.9306,-3.088426E-05,13.959,0
0.9315,0.0001366293,13.9725,0,0.9315,-4.263371E-05,13.9725,0
0.9324,-0.0001171588,13.986,0,0.9324,-0.0001195087,13.986,0
0.9333,-0.0001359579,13.9995,0,0.9333,-0.0001477073,13.9995,0
0.9342,-0.0001131304,14.013,0,0.9342,-0.000105745,14.013,0
0.9351,-0.0001550927,14.0265,0,0.9351,-5.841154E-05,14.0265,0
0.936,-5.404745E-05,14.04,0,0.936,-0.0001064164,14.04,0
0.9369,2.853437E-05,14.0535,0,0.9369,-0.0001963836,14.0535,0
0.9378,8.82887E-05,14.067,0,0.9378,-0.0001111162,14.067,0
0.9387,0.0001097734,14.0805,0,0.9387,-2.517739E-05,14.0805,0
0.9396001,2.517739E-05,14.094,0,0.9396001,-0.0001121233,14.094,0
0.9405,-3.692683E-05,14.1075,0,0.9405,1.242084E-05,14.1075,0
0.9414001,-8.526741E-05,14.121,0,0.9414001,0.0001420005,14.121,0
0.9423,-3.591974E-05,14.1345,0,0.9423,0.0001510643,14.1345,0
0.9432001,-9.399558E-06,14.148,0,0.9432001,0.0001997406,14.148,0
0.9441,3.356985E-07,14.1615,0,0.9441,0.0001856413,14.1615,0
0.9450001,-3.021286E-06,14.175,0,0.9450001,0.0001178302,14.175,0
0.9459,-2.014191E-05,14.1885,0,0.9459,1.107805E-05,14.1885,0
0.9468,-5.874724E-05,14.202,0,0.9468,-8.291753E-05,14.202,0
0.9477,-8.358892E-05,14.2155,0,0.9477,-0.0001121233,14.2155,0
0.9486,-6.478981E-05,14.229,0,0.9486,-0.0002124971,14.229,0
0.9495,-4.36408E-06,14.2425,0,0.9495,-0.0002500954,14.2425,0
0.9504,0.0001238727,14.256,0,0.9504,-0.0002151827,14.256,0
0.9513,0.0001443503,14.2695,0,0.9513,-5.539025E-05,14.2695,0
0.9522,0.0001755703,14.283,0,0.9522,6.54612E-05,14.283,0
0.9531,0.0001930266,14.2965,0,0.9531,7.083238E-05,14.2965,0
0.954,0.0002517739,14.31,0,0.954,8.392462E-06,14.31,0
0.9549,8.291753E-05,14.3235,0,0.9549,-1.678492E-06,14.3235,0
0.9558,2.652018E-05,14.337,0,0.9558,-8.123904E-05,14.337,0
0.9567,3.860533E-05,14.3505,0,0.9567,-3.726253E-05,14.3505,0
0.9576,-0.0002088045,14.364,0,0.9576,0.000112459,14.364,0
0.9585,-0.0003857175,14.3775,0,0.9585,0.0001003738,14.3775,0
0.9594,-0.0003917601,14.391,0,0.9594,0.0001601282,14.391,0
0.9603,-0.0002887007,14.4045,0,0.9603,9.634547E-05,14.4045,0
0.9612,-0.0001517357,14.418,0,0.9612,3.021286E-05,14.418,0
0.9621,-9.500267E-05,14.4315,0,0.9621,1.745632E-05,14.4315,0
0.963,-5.203327E-05,14.445,0,0.963,1.040665E-05,14.445,0
0.9639,-4.901198E-05,14.4585,0,0.9639,4.699779E-06,14.4585,0
0.9648,-3.927672E-05,14.472,0,0.9648,-0.0001138018,14.472,0
0.9657,-2.18204E-05,14.4855,0,0.9657,-0.0003111925,14.4855,0
0.9666,7.687495E-05,14.499,0,0.9666,-0.0002840009,14.499,0
0.9675,0.000263859,14.5125,0,0.9675,-0.000154757,14.5125,0
0.9684,0.0003138781,14.526,0,0.9684,-2.417029E-05,14.526,0
0.9693,0.0002185397,14.5395,0,0.9693,0.0002474098,14.5395,0
0.9702,2.18204E-05,14.553,0,0.9702,0.0005092546,14.553,0
0.9711,-0.000249424,14.5665,0,0.9711,0.0005314107,14.5665,0
0.972,-0.0007821774,14.58,0,0.972,0.0002823224,14.58,0
0.9729,-0.0005092546,14.5935,0,0.9729,2.920577E-05,14.5935,0
0.9738,-6.076142E-05,14.607,0,0.9738,-6.411841E-05,14.607,0
0.9747,6.54612E-05,14.6205,0,0.9747,-3.961242E-05,14.6205,0
0.9756,1.712062E-05,14.634,0,0.9756,-1.007095E-06,14.634,0
0.9765,-5.941863E-05,14.6475,0,0.9765,-2.920577E-05,14.6475,0
0.9774,-8.560311E-05,14.661,0,0.9774,-3.994812E-05,14.661,0
0.9783,-3.994812E-05,14.6745,0,0.9783,-3.356985E-06,14.6745,0
0.9792,-1.275654E-05,14.688,0,0.9792,-6.344701E-05,14.688,0
0.9801,3.189136E-05,14.7015,0,0.9801,-0.0001171588,14.7015,0
0.981,4.129091E-05,14.715,0,0.981,-8.627451E-05,14.715,0
0.9819,1.040665E-05,14.7285,0,0.9819,-0.0001101091,14.7285,0
0.9828,5.069047E-05,14.742,0,0.9828,-0.0001477073,14.742,0
0.9837,8.291753E-05,14.7555,0,0.9837,-0.0001379721,14.7555,0
0.9846,9.097429E-05,14.769,0,0.9846,-9.903105E-05,14.769,0
0.9855,0.0001030594,14.7825,0,0.9855,-8.224613E-05,14.7825,0
0.9864,6.411841E-05,14.796,0,0.9864,-9.768826E-05,14.796,0
0.9873,9.097429E-05,14.8095,0,0.9873,-0.000102388,14.8095,0
0.9882,6.78111E-05,14.823,0,0.9882,-7.855344E-05,14.823,0
0.9891,7.721065E-06,14.8365,0,0.9891,-0.0001030594,14.8365,0
0.99,0.0001245441,14.85,0,0.99,-0.0001195087,14.85,0
0.9909,0.0002480812,14.8635,0,0.9909,-0.000105745,14.8635,0
0.9918,0.0001963836,14.877,0,0.9918,-5.706874E-05,14.877,0
0.9927,0.0001514,14.8905,0,0.9927,-4.766919E-05,14.8905,0
0.9936,0.0001943694,14.904,0,0.9936,-4.699779E-05,14.904,0
0.9945,9.298848E-05,14.9175,0,0.9945,6.378271E-06,14.9175,0
0.9954,-0.0001003738,14.931,0,0.9954,5.035477E-06,14.931,0
0.9963,5.035477E-06,14.9445,0,0.9963,-5.270466E-05,14.9445,0
0.9972,2.685588E-06,14.958,0,0.9972,-3.659113E-05,14.958,0
0.9981,-0.0001111162,14.9715,0,0.9981,-1.208515E-05,14.9715,0
0.999,-0.0002702373,14.985,0,0.999,-1.275654E-05,14.985,0
0.9999,-0.0002326391,14.9985,0,0.9999,-1.242084E-05,14.9985,0
1.0008,-0.0001846342,15.012,0,1.0008,-7.653925E-05,15.012,0
1.0017,-8.86244E-05,15.0255,0,1.0017,-5.001907E-05,15.0255,0
1.0026,-3.256275E-05,15.039,0,1.0026,1.007095E-06,15.039,0
1.0035,-6.009003E-05,15.0525,0,1.0035,-1.644922E-05,15.0525,0
1.0044,-2.719158E-05,15.066,0,1.0044,-3.524834E-05,15.066,0
1.0053,-3.021286E-06,15.0795,0,1.0053,2.047761E-05,15.0795,0
1.0062,-2.383459E-05,15.093,0,1.0062,2.685588E-06,15.093,0
1.0071,5.035477E-06,15.1065,0,1.0071,-4.263371E-05,15.1065,0
1.008,3.021286E-06,15.12,0,1.008,-3.021286E-06,15.12,0
1.0089,3.256275E-05,15.1335,0,1.0089,7.049668E-06,15.1335,0
1.0098,3.994812E-05,15.147,0,1.0098,-3.424125E-05,15.147,0
1.0107,2.383459E-05,15.1605,0,1.0107,-1.107805E-05,15.1605,0
1.0116,3.726253E-05,15.174,0,1.0116,1.443504E-05,15.174,0
1.0125,5.471885E-05,15.1875,0,1.0125,2.047761E-05,15.1875,0
1.0134,6.344701E-05,15.201,0,1.0134,9.399558E-06,15.201,0
1.0143,7.183947E-05,15.2145,0,1.0143,-1.712062E-05,15.2145,0
1.0152,6.210422E-05,15.228,0,1.0152,-6.378271E-06,15.228,0
1.0161,5.169757E-05,15.2415,0,1.0161,-7.385367E-06,15.2415,0
1.017,4.666209E-05,15.255,0,1.017,-1.007095E-05,15.255,0
1.0179,1.107805E-05,15.2685,0,1.0179,-2.081331E-05,15.2685,0
1.0188,6.378271E-06,15.282,0,1.0188,2.014191E-05,15.282,0
1.0197,1.913481E-05,15.2955,0,1.0197,3.390555E-05,15.2955,0
1.0206,9.063859E-06,15.309,0,1.0206,-9.063859E-06,15.309,0
1.0215,-3.021286E-06,15.3225,0,1.0215,3.692683E-06,15.3225,0
1.0224,4.36408E-06,15.336,0,1.0224,-3.726253E-05,15.336,0
1.0233,-2.349889E-06,15.3495,0,1.0233,-0.0001027237,15.3495,0
1.0242,-3.356985E-07,15.363,0,1.0242,-6.71397E-05,15.363,0
1.0251,1.342794E-06,15.3765,0,1.0251,1.644922E-05,15.3765,0
1.026,-9.063859E-06,15.39,0,1.026,1.779202E-05,15.39,0
1.0269,4.36408E-06,15.4035,0,1.0269,1.040665E-05,15.4035,0
1.0278,1.376364E-05,15.417,0,1.0278,6.713969E-07,15.417,0
1.0287,-9.735256E-06,15.4305,0,1.0287,-2.752728E-05,15.4305,0
1.0296,-6.478981E-05,15.444,0,1.0296,-5.471885E-05,15.444,0
1.0305,-4.733349E-05,15.4575,0,1.0305,-6.6804E-05,15.4575,0
1.0314,-3.692683E-05,15.471,0,1.0314,-8.593881E-05,15.471,0
1.0323,-5.941863E-05,15.4845,0,1.0323,-4.028382E-05,15.4845,0
1.0332,-5.874724E-05,15.498,0,1.0332,6.713969E-07,15.498,0
1.0341,-4.53193E-05,15.5115,0,1.0341,3.189136E-05,15.5115,0
1.035,-7.016098E-05,15.525,0,1.035,5.102617E-05,15.525,0
1.0359,-6.378271E-05,15.5385,0,1.0359,4.934768E-05,15.5385,0
1.0368,-6.243992E-05,15.552,0,1.0368,3.256275E-05,15.552,0
1.0377,-8.258183E-05,15.5655,0,1.0377,7.351797E-05,15.5655,0
1.0386,-8.358892E-05,15.579,0,1.0386,7.217517E-05,15.579,0
1.0395,-5.740444E-05,15.5925,0,1.0395,1.040665E-05,15.5925,0
1.0404,-2.484169E-05,15.606,0,1.0404,-5.572595E-05,15.606,0
1.0413,-3.021286E-06,15.6195,0,1.0413,-8.291753E-05,15.6195,0
1.0422,1.712062E-05,15.633,0,1.0422,-4.53193E-05,15.633,0
1.0431,6.277562E-05,15.6465,0,1.0431,-5.941863E-05,15.6465,0
1.044,8.96315E-05,15.66,0,1.044,-0.0001131304,15.66,0
1.0449,8.661021E-05,15.6735,0,1.0449,-0.0001144732,15.6735,0
1.0458,2.920577E-05,15.687,0,1.0458,-2.484169E-05,15.687,0
1.0467,-2.047761E-05,15.7005,0,1.0467,3.692683E-06,15.7005,0
1.0476,-7.284657E-05,15.714,0,1.0476,-3.121996E-05,15.714,0
1.0485,-9.365987E-05,15.7275,0,1.0485,-1.376364E-05,15.7275,0
1.0494,-5.136187E-05,15.741,0,1.0494,-3.021286E-06,15.741,0
1.0503,-2.819867E-05,15.7545,0,1.0503,-1.913481E-05,15.7545,0
1.0512,-5.304036E-05,15.768,0,1.0512,-1.342794E-05,15.768,0
1.0521,1.678492E-06,15.7815,0,1.0521,-1.342794E-06,15.7815,0
1.053,6.076142E-05,15.795,0,1.053,2.21561E-05,15.795,0
1.0539,0.0001295796,15.8085,0,1.0539,0,15.8085,0
1.0548,0.0001386435,15.822,0,1.0548,-6.74754E-05,15.822,0
1.0557,0.0001134661,15.8355,0,1.0557,-5.975433E-05,15.8355,0
1.0566,3.826963E-05,15.849,0,1.0566,-6.243992E-05,15.849,0
1.0575,2.584878E-05,15.8625,0,1.0575,-3.121996E-05,15.8625,0
1.0584,2.014191E-06,15.876,0,1.0584,-3.323415E-05,15.876,0
1.0593,-2.28275E-05,15.8895,0,1.0593,3.860533E-05,15.8895,0
1.0602,-2.047761E-05,15.903,0,1.0602,4.263371E-05,15.903,0
1.0611,-1.443504E-05,15.9165,0,1.0611,-3.356985E-06,15.9165,0
1.062,-6.74754E-05,15.93,0,1.062,1.275654E-05,15.93,0
1.0629,-0.0001050736,15.9435,0,1.0629,3.524834E-05,15.9435,0
1.0638,-0.0001232013,15.957,0,1.0638,3.356985E-06,15.957,0
1.0647,-0.0001594568,15.9705,0,1.0647,5.807584E-05,15.9705,0
1.0656,-0.0001467002,15.984,0,1.0656,0.0001017166,15.984,0
1.0665,-0.0001211871,15.9975,0,1.0665,4.095522E-05,15.9975,0
1.0674,-9.265278E-05,16.011,0,1.0674,-3.860533E-05,16.011,0
1.0683,-3.054856E-05,16.0245,0,1.0683,-7.788205E-05,16.0245,0
1.0692,3.289845E-05,16.038,0,1.0692,-1.913481E-05,16.038,0
1.0701,0.000119173,16.0515,0,1.0701,-9.063859E-06,16.0515,0
1.071,0.0001544213,16.065,0,1.071,-6.848249E-05,16.065,0
1.0719,0.0001460288,16.0785,0,1.0719,-0.000102388,16.0785,0
1.0728,0.0001094377,16.092,0,1.0728,-9.030289E-05,16.092,0
1.0737,6.378271E-05,16.1055,0,1.0737,-5.337606E-05,16.1055,0
1.0746,6.61326E-05,16.119,0,1.0746,3.457694E-05,16.119,0
1.0755,5.169757E-05,16.1325,0,1.0755,9.634547E-05,16.1325,0
1.0764,-4.028382E-06,16.146,0,1.0764,6.64683E-05,16.146,0
1.0773,-4.263371E-05,16.1595,0,1.0773,2.349889E-05,16.1595,0
1.0782,-9.768826E-05,16.173,0,1.0782,-5.606165E-05,16.173,0
1.0791,-2.954147E-05,16.1865,0,1.0791,-5.941863E-05,16.1865,0
1.08,-1.913481E-05,16.2,0,1.08,-9.903105E-05,16.2,0
1.0809,-7.049668E-06,16.2135,0,1.0809,-0.000105745,16.2135,0
1.0818,-1.242084E-05,16.227,0,1.0818,-0.000115816,16.227,0
1.0827,-4.733349E-05,16.2405,0,1.0827,-0.0001299153,16.2405,0
1.0836,-7.653925E-05,16.254,0,1.0836,-7.150377E-05,16.254,0
1.0845,-5.069047E-05,16.2675,0,1.0845,-3.692683E-05,16.2675,0
1.0854,-5.236896E-05,16.281,0,1.0854,-2.081331E-05,16.281,0
1.0863,-5.539025E-05,16.2945,0,1.0863,2.786297E-05,16.2945,0
1.0872,-4.599069E-05,16.308,0,1.0872,-3.894102E-05,16.308,0
1.0881,-2.719158E-05,16.3215,0,1.0881,-9.298848E-05,16.3215,0
1.089,1.342794E-05,16.335,0,1.089,-3.021286E-06,16.335,0
1.0899,0.0001010452,16.3485,0,1.0899,3.524834E-05,16.3485,0
1.0908,0.0001195087,16.362,0,1.0908,3.692683E-06,16.362,0
1.0917,4.800488E-05,16.3755,0,1.0917,1.007095E-05,16.3755,0
1.0926,2.014191E-06,16.389,0,1.0926,5.304036E-05,16.389,0
1.0935,-3.524834E-05,16.4025,0,1.0935,2.316319E-05,16.4025,0
1.0944,-4.33051E-05,16.416,0,1.0944,-3.625543E-05,16.416,0
1.0953,-3.961242E-05,16.4295,0,1.0953,-9.399557E-05,16.4295,0
1.0962,-6.311131E-05,16.443,0,1.0962,-0.0001326009,16.443,0
1.0971,-0.0001493858,16.4565,0,1.0971,-0.0001232013,16.4565,0
1.098,-0.0001923552,16.47,0,1.098,-0.0001299153,16.47,0
1.0989,-8.89601E-05,16.4835,0,1.0989,-5.337606E-05,16.4835,0
1.0998,-2.920577E-05,16.497,0,1.0998,0.0001550927,16.497,0
1.1007,5.270466E-05,16.5105,0,1.1007,0.0002145113,16.5105,0
1.1016,6.74754E-05,16.524,0,1.1016,7.821774E-05,16.524,0
1.1025,3.659113E-05,16.5375,0,1.1025,5.975433E-05,16.5375,0
1.1034,0.0001030594,16.551,0,1.1034,2.349889E-05,16.551,0
1.1043,0.0001544213,16.5645,0,1.1043,-1.409934E-05,16.5645,0
1.1052,0.0001050736,16.578,0,1.1052,2.081331E-05,16.578,0
1.1061,3.155566E-05,16.5915,0,1.1061,3.927672E-05,16.5915,0
1.107,9.735256E-06,16.605,0,1.107,1.342794E-05,16.605,0
1.1079,3.625543E-05,16.6185,0,1.1079,-3.356985E-07,16.6185,0
1.1088,6.713969E-06,16.632,0,1.1088,-1.577783E-05,16.632,0
1.1097,1.745632E-05,16.6455,0,1.1097,2.887007E-05,16.6455,0
1.1106,6.378271E-06,16.659,0,1.1106,1.040665E-05,16.659,0
1.1115,-1.309224E-05,16.6725,0,1.1115,-4.46479E-05,16.6725,0
1.1124,-9.399558E-06,16.686,0,1.1124,-6.881819E-05,16.686,0
1.1133,-6.478981E-05,16.6995,0,1.1133,-1.846342E-05,16.6995,0
1.1142,-7.855344E-05,16.713,0,1.1142,-2.719158E-05,16.713,0
1.1151,-2.786297E-05,16.7265,0,1.1151,-5.270466E-05,16.7265,0
1.116,-6.009003E-05,16.74,0,1.116,-1.510643E-05,16.74,0
1.1169,-7.418937E-05,16.7535,0,1.1169,1.376364E-05,16.7535,0
1.1178,-6.61326E-05,16.767,0,1.1178,-3.692683E-06,16.767,0
1.1187,-8.761731E-05,16.7805,0,1.1187,2.786297E-05,16.7805,0
1.1196,-7.251087E-05,16.794,0,1.1196,3.659113E-05,16.794,0
1.1205,-5.841154E-05,16.8075,0,1.1205,-7.721065E-06,16.8075,0
1.1214,-1.443504E-05,16.821,0,1.1214,-5.740444E-05,16.821,0
1.1223,4.196231E-05,16.8345,0,1.1223,-8.72816E-05,16.8345,0
1.1232,8.761731E-05,16.848,0,1.1232,-8.224613E-05,16.848,0
1.1241,5.337606E-05,16.8615,0,1.1241,-0.0001154803,16.8615,0
1.125,6.076142E-05,16.875,0,1.125,-0.0001524071,16.875,0
1.1259,3.726253E-05,16.8885,0,1.1259,-0.0001121233,16.8885,0
1.1268,-1.779202E-05,16.902,0,1.1268,-1.712062E-05,16.902,0
1.1277,1.141375E-05,16.9155,0,1.1277,-2.987716E-05,16.9155,0
1.1286,-4.028382E-06,16.929,0,1.1286,-5.169757E-05,16.929,0
1.1295,1.510643E-05,16.9425,0,1.1295,-1.342794E-06,16.9425,0
1.1304,2.417029E-05,16.956,0,1.1304,-2.584878E-05,16.956,0
1.1313,4.263371E-05,16.9695,0,1.1313,-4.867628E-05,16.9695,0
1.1322,5.404745E-05,16.983,0,1.1322,-5.203327E-05,16.983,0
1.1331,3.961242E-05,16.9965,0,1.1331,-1.712062E-05,16.9965,0
1.134,3.457694E-05,17.01,0,1.134,4.36408E-06,17.01,0
1.1349,2.047761E-05,17.0235,0,1.1349,4.36408E-06,17.0235,0
1.1358,-1.242084E-05,17.037,0,1.1358,-1.510643E-05,17.037,0
1.1367,-2.014191E-06,17.0505,0,1.1367,1.342794E-06,17.0505,0
1.1376,-5.337606E-05,17.064,0,1.1376,2.014191E-06,17.064,0
1.1385,-5.941863E-05,17.0775,0,1.1385,-2.819867E-05,17.0775,0
1.1394,-5.404745E-05,17.091,0,1.1394,-3.961242E-05,17.091,0
1.1403,-9.365987E-05,17.1045,0,1.1403,4.36408E-06,17.1045,0
1.1412,-9.365987E-05,17.118,0,1.1412,1.208515E-05,17.118,0
1.1421,-6.411841E-05,17.1315,0,1.1421,-4.632639E-05,17.1315,0
1.143,-7.217517E-05,17.145,0,1.143,-1.208515E-05,17.145,0
1.1439,-0.0001440146,17.1585,0,1.1439,9.063859E-06,17.1585,0
1.1448,-7.116808E-05,17.172,0,1.1448,-1.913481E-05,17.172,0
1.1457,1.007095E-05,17.1855,0,1.1457,-3.927672E-05,17.1855,0
1.1466,-3.356985E-07,17.199,0,1.1466,-3.860533E-05,17.199,0
1.1475,1.376364E-05,17.2125,0,1.1475,-6.143282E-05,17.2125,0
1.1484,8.728161E-06,17.226,0,1.1484,-4.43122E-05,17.226,0
1.1493,1.846342E-05,17.2395,0,1.1493,-7.385367E-06,17.2395,0
1.1502,8.191043E-05,17.253,0,1.1502,5.136187E-05,17.253,0
1.1511,0.000115816,17.2665,0,1.1511,1.141375E-05,17.2665,0
1.152,7.083238E-05,17.28,0,1.152,-6.54612E-05,17.28,0
1.1529,4.53193E-05,17.2935,0,1.1529,-7.956054E-05,17.2935,0
1.1538,3.457694E-05,17.307,0,1.1538,-1.007095E-06,17.307,0
1.1547,1.712062E-05,17.3205,0,1.1547,3.054856E-05,17.3205,0
1.1556,-1.678492E-05,17.334,0,1.1556,-1.980621E-05,17.334,0
1.1565,-2.383459E-05,17.3475,0,1.1565,2.18204E-05,17.3475,0
1.1574,-5.404745E-05,17.361,0,1.1574,3.390555E-05,17.361,0
1.1583,-6.243992E-05,17.3745,0,1.1583,-1.007095E-05,17.3745,0
1.1592,-1.678492E-06,17.388,0,1.1592,3.021286E-06,17.388,0
1.1601,1.242084E-05,17.4015,0,1.1601,3.088426E-05,17.4015,0
1.161,-8.392462E-06,17.415,0,1.161,4.968337E-05,17.415,0
1.1619,-9.399558E-06,17.4285,0,1.1619,-1.174945E-05,17.4285,0
1.1628,1.309224E-05,17.442,0,1.1628,-6.74754E-05,17.442,0
1.1637,1.947051E-05,17.4555,0,1.1637,-1.510643E-05,17.4555,0
1.1646,-1.644922E-05,17.469,0,1.1646,5.371176E-06,17.469,0
1.1655,-4.33051E-05,17.4825,0,1.1655,-7.486076E-05,17.4825,0
1.1664,2.1149E-05,17.496,0,1.1664,-3.927672E-05,17.496,0
1.1673,4.229801E-05,17.5095,0,1.1673,2.920577E-05,17.5095,0
1.1682,4.934768E-05,17.523,0,1.1682,-2.584878E-05,17.523,0
1.1691,5.606165E-05,17.5365,0,1.1691,-7.956054E-05,17.5365,0
1.17,7.385367E-06,17.55,0,1.17,1.712062E-05,17.55,0
1.1709,3.021286E-06,17.5635,0,1.1709,3.121996E-05,17.5635,0
1.1718,-1.510643E-05,17.577,0,1.1718,-2.383459E-05,17.577,0
1.1727,-4.867628E-05,17.5905,0,1.1727,-1.342794E-05,17.5905,0
1.1736,-7.956054E-05,17.604,0,1.1736,-6.042573E-06,17.604,0
1.1745,-5.740444E-05,17.6175,0,1.1745,-2.450599E-05,17.6175,0
1.1754,-5.874724E-05,17.631,0,1.1754,-3.759823E-05,17.631,0
1.1763,-2.853437E-05,17.6445,0,1.1763,-4.129091E-05,17.6445,0
1.1772,-1.342794E-05,17.658,0,1.1772,-3.457694E-05,17.658,0
1.1781,3.726253E-05,17.6715,0,1.1781,-4.29694E-05,17.6715,0
1.179,5.069047E-05,17.685,0,1.179,-5.740444E-05,17.685,0
1.1799,7.418937E-05,17.6985,0,1.1799,-5.471885E-05,17.6985,0
1.1808,6.948959E-05,17.712,0,1.1808,1.040665E-05,17.712,0
1.1817,1.577783E-05,17.7255,0,1.1817,2.920577E-05,17.7255,0
1.1826,-1.779202E-05,17.739,0,1.1826,-6.109713E-05,17.739,0
1.1835,-3.457694E-05,17.7525,0,1.1835,-4.46479E-05,17.7525,0
1.1844,-5.136187E-05,17.766,0,1.1844,-3.625543E-05,17.766,0
1.1853,-4.129091E-05,17.7795,0,1.1853,-7.956054E-05,17.7795,0
1.1862,-4.36408E-05,17.793,0,1.1862,-6.311131E-05,17.793,0
1.1871,-5.572595E-05,17.8065,0,1.1871,-7.721065E-06,17.8065,0
1.188,-1.846342E-05,17.82,0,1.188,-3.256275E-05,17.82,0
1.1889,2.584878E-05,17.8335,0,1.1889,9.063859E-06,17.8335,0
1.1898,7.721065E-06,17.847,0,1.1898,7.721065E-06,17.847,0
1.1907,-4.867628E-05,17.8605,0,1.1907,-2.316319E-05,17.8605,0
1.1916,-9.399558E-06,17.874,0,1.1916,1.510643E-05,17.874,0
1.1925,-4.028382E-06,17.8875,0,1.1925,1.947051E-05,17.8875,0
1.1934,-8.392462E-06,17.901,0,1.1934,9.399558E-06,17.901,0
1.1943,-9.063859E-06,17.9145,0,1.1943,5.035477E-05,17.9145,0
1.1952,-8.392462E-06,17.928,0,1.1952,1.376364E-05,17.928,0
1.1961,2.349889E-06,17.9415,0,1.1961,-1.544213E-05,17.9415,0
1.197,-2.383459E-05,17.955,0,1.197,4.934768E-05,17.955,0
1.1979,-3.826963E-05,17.9685,0,1.1979,1.040665E-05,17.9685,0
1.1988,-6.277562E-05,17.982,0,1.1988,-2.484169E-05,17.982,0
1.1997,-8.627451E-05,17.9955,0,1.1997,-1.409934E-05,17.9955,0
1.2006,-8.761731E-05,18.009,0,1.2006,3.021286E-06,18.009,0
1.2015,-7.016098E-05,18.0225,0,1.2015,6.378271E-06,18.0225,0
1.2024,-3.793393E-05,18.036,0,1.2024,1.007095E-06,18.036,0
1.2033,1.443504E-05,18.0495,0,1.2033,-2.618448E-05,18.0495,0
1.2042,4.196231E-05,18.063,0,1.2042,-1.678492E-06,18.063,0
1.2051,8.82887E-05,18.0765,0,1.2051,2.316319E-05,18.0765,0
1.206,8.996719E-05,18.09,0,1.206,-3.256275E-05,18.09,0
1.2069,5.606165E-05,18.1035,0,1.2069,-6.009003E-05,18.1035,0
1.2078,1.107805E-05,18.117,0,1.2078,-1.040665E-05,18.117,0
1.2087,-5.706874E-06,18.1305,0,1.2087,-3.021286E-06,18.1305,0
1.2096,-2.18204E-05,18.144,0,1.2096,-3.054856E-05,18.144,0
1.2105,-3.927672E-05,18.1575,0,1.2105,1.577783E-05,18.1575,0
1.2114,-1.779202E-05,18.171,0,1.2114,-1.980621E-05,18.171,0
1.2123,-6.478981E-05,18.1845,0,1.2123,-0.0001007095,18.1845,0
1.2132,-4.867628E-05,18.198,0,1.2132,-7.620356E-05,18.198,0
1.2141,-1.712062E-05,18.2115,0,1.2141,-2.18204E-05,18.2115,0
1.215,2.752728E-05,18.225,0,1.215,1.477073E-05,18.225,0
1.2159,5.740444E-05,18.2385,0,1.2159,-2.987716E-05,18.2385,0
1.2168,7.418937E-05,18.252,0,1.2168,-8.996719E-05,18.252,0
1.2177,7.721065E-05,18.2655,0,1.2177,-2.652018E-05,18.2655,0
1.2186,8.090334E-05,18.279,0,1.2186,4.766919E-05,18.279,0
1.2195,7.318227E-05,18.2925,0,1.2195,1.947051E-05,18.2925,0
1.2204,7.217517E-05,18.306,0,1.2204,-7.049668E-06,18.306,0
1.2213,2.24918E-05,18.3195,0,1.2213,3.793393E-05,18.3195,0
1.2222,-1.712062E-05,18.333,0,1.2222,-1.443504E-05,18.333,0
1.2231,-2.719158E-05,18.3465,0,1.2231,-6.848249E-05,18.3465,0
1.224,-5.606165E-05,18.36,0,1.224,-3.289845E-05,18.36,0
1.2249,-8.258183E-05,18.3735,0,1.2249,-3.692683E-06,18.3735,0
1.2258,-4.666209E-05,18.387,0,1.2258,-4.061952E-05,18.387,0
1.2267,1.107805E-05,18.4005,0,1.2267,-4.565499E-05,18.4005,0
1.2276,1.409934E-05,18.414,0,1.2276,-3.692683E-06,18.414,0
1.2285,3.692683E-06,18.4275,0,1.2285,-3.558404E-05,18.4275,0
1.2294,-1.544213E-05,18.441,0,1.2294,-5.639734E-05,18.441,0
1.2303,-3.793393E-05,18.4545,0,1.2303,-8.996719E-05,18.4545,0
1.2312,-5.807584E-05,18.468,0,1.2312,-8.191043E-05,18.468,0
1.2321,-7.150377E-05,18.4815,0,1.2321,-1.242084E-05,18.4815,0
1.233,-6.478981E-05,18.495,0,1.233,3.390555E-05,18.495,0
1.2339,-4.968337E-05,18.5085,0,1.2339,-1.644922E-05,18.5085,0
1.2348,-5.102617E-05,18.522,0,1.2348,2.081331E-05,18.522,0
1.2357,-8.023193E-05,18.5355,0,1.2357,3.558404E-05,18.5355,0
1.2366,-8.392462E-05,18.549,0,1.2366,-1.376364E-05,18.549,0
1.2375,-2.24918E-05,18.5625,0,1.2375,2.1149E-05,18.5625,0
1.2384,1.376364E-05,18.576,0,1.2384,1.678492E-05,18.576,0
1.2393,2.752728E-05,18.5895,0,1.2393,-5.001907E-05,18.5895,0
1.2402,5.874724E-05,18.603,0,1.2402,-9.768826E-05,18.603,0
1.2411,4.800488E-05,18.6165,0,1.2411,-8.661021E-05,18.6165,0
1.242,4.800488E-05,18.63,0,1.242,-5.941863E-05,18.63,0
1.2429,1.980621E-05,18.6435,0,1.2429,-5.706874E-05,18.6435,0
1.2438,-2.752728E-05,18.657,0,1.2438,-7.620356E-05,18.657,0
1.2447,-4.901198E-05,18.6705,0,1.2447,-3.860533E-05,18.6705,0
1.2456,-5.606165E-05,18.684,0,1.2456,3.021286E-06,18.684,0
1.2465,-1.779202E-05,18.6975,0,1.2465,-3.558404E-05,18.6975,0
1.2474,-1.007095E-05,18.711,0,1.2474,-7.150377E-05,18.711,0
1.2483,-1.913481E-05,18.7245,0,1.2483,-3.256275E-05,18.7245,0
1.2492,-1.040665E-05,18.738,0,1.2492,-1.107805E-05,18.738,0
1.2501,1.309224E-05,18.7515,0,1.2501,-4.599069E-05,18.7515,0
1.251,1.309224E-05,18.765,0,1.251,7.721065E-06,18.765,0
1.2519,-3.356985E-07,18.7785,0,1.2519,1.980621E-05,18.7785,0
1.2528,2.719158E-05,18.792,0,1.2528,-2.28275E-05,18.792,0
1.2537,1.040665E-05,18.8055,0,1.2537,1.174945E-05,18.8055,0
1.2546,-3.793393E-05,18.819,0,1.2546,2.24918E-05,18.819,0
1.2555,-9.063859E-06,18.8325,0,1.2555,-1.040665E-05,18.8325,0
1.2564,2.047761E-05,18.846,0,1.2564,-1.477073E-05,18.846,0
1.2573,5.706874E-05,18.8595,0,1.2573,7.049668E-06,18.8595,0
1.2582,-4.699779E-06,18.873,0,1.2582,-2.24918E-05,18.873,0
1.2591,-8.526741E-05,18.8865,0,1.2591,-6.915389E-05,18.8865,0
1.26,-1.309224E-05,18.9,0,1.26,-5.371176E-05,18.9,0
1.2609,6.948959E-05,18.9135,0,1.2609,-1.980621E-05,18.9135,0
1.2618,8.392462E-06,18.927,0,1.2618,-2.349889E-06,18.927,0
1.2627,-4.028382E-05,18.9405,0,1.2627,-4.46479E-05,18.9405,0
1.2636,-2.584878E-05,18.954,0,1.2636,-4.699779E-05,18.954,0
1.2645,-2.853437E-05,18.9675,0,1.2645,8.392462E-06,18.9675,0
1.2654,-3.961242E-05,18.981,0,1.2654,8.728161E-06,18.981,0
1.2663,-3.390555E-05,18.9945,0,1.2663,-2.517739E-05,18.9945,0
1.2672,-6.378271E-06,19.008,0,1.2672,4.699779E-06,19.008,0
1.2681,-2.014191E-06,19.0215,0,1.2681,2.24918E-05,19.0215,0
1.269,2.349889E-06,19.035,0,1.269,2.786297E-05,19.035,0
1.2699,-2.349889E-06,19.0485,0,1.2699,-5.035477E-06,19.0485,0
1.2708,-1.007095E-06,19.062,0,1.2708,-2.417029E-05,19.062,0
1.2717,-2.954147E-05,19.0755,0,1.2717,2.652018E-05,19.0755,0
1.2726,-1.779202E-05,19.089,0,1.2726,9.600977E-05,19.089,0
1.2735,2.584878E-05,19.1025,0,1.2735,4.901198E-05,19.1025,0
1.2744,7.721065E-06,19.116,0,1.2744,-3.927672E-05,19.116,0
1.2753,2.18204E-05,19.1295,0,1.2753,-5.639734E-05,19.1295,0
1.2762,3.894102E-05,19.143,0,1.2762,-0.0001121233,19.143,0
1.2771,2.618448E-05,19.1565,0,1.2771,-0.0001540856,19.1565,0
1.278,-8.728161E-06,19.17,0,1.278,-9.030289E-05,19.17,0
1.2789,-5.069047E-05,19.1835,0,1.2789,-7.989624E-05,19.1835,0
1.2798,-6.54612E-05,19.197,0,1.2798,-0.0001161517,19.197,0
1.2807,-2.316319E-05,19.2105,0,1.2807,-2.920577E-05,19.2105,0
1.2816,1.712062E-05,19.224,0,1.2816,1.040665E-05,19.224,0
1.2825,-2.349889E-06,19.2375,0,1.2825,8.459602E-05,19.2375,0
1.2834,-1.980621E-05,19.251,0,1.2834,0.0001111162,19.251,0
1.2843,-3.323415E-05,19.2645,0,1.2843,-4.800488E-05,19.2645,0
1.2852,-1.107805E-05,19.278,0,1.2852,-8.090334E-05,19.278,0
1.2861,-4.061952E-05,19.2915,0,1.2861,-9.567407E-05,19.2915,0
1.287,5.035477E-06,19.305,0,1.287,-9.365987E-05,19.305,0
1.2879,6.009003E-05,19.3185,0,1.2879,-4.666209E-05,19.3185,0
1.2888,2.752728E-05,19.332,0,1.2888,5.136187E-05,19.332,0
1.2897,-1.712062E-05,19.3455,0,1.2897,0.0001070878,19.3455,0
1.2906,-1.174945E-05,19.359,0,1.2906,4.632639E-05,19.359,0
1.2915,-1.913481E-05,19.3725,0,1.2915,7.888914E-05,19.3725,0
1.2924,-1.040665E-05,19.386,0,1.2924,8.69459E-05,19.386,0
1.2933,1.309224E-05,19.3995,0,1.2933,5.136187E-05,19.3995,0
1.2942,-3.356985E-05,19.413,0,1.2942,-1.846342E-05,19.413,0
1.2951,-5.404745E-05,19.4265,0,1.2951,-1.007095E-05,19.4265,0
1.296,-5.471885E-05,19.44,0,1.296,2.18204E-05,19.44,0
1.2969,-2.1149E-05,19.4535,0,1.2969,4.39765E-05,19.4535,0
1.2978,1.007095E-06,19.467,0,1.2978,-3.692683E-06,19.467,0
1.2987,-9.735256E-06,19.4805,0,1.2987,-2.349889E-05,19.4805,0
1.2996,4.36408E-06,19.494,0,1.2996,-5.673304E-05,19.494,0
1.3005,5.740444E-05,19.5075,0,1.3005,-7.821774E-05,19.5075,0
1.3014,4.061952E-05,19.521,0,1.3014,-5.102617E-05,19.521,0
1.3023,-4.36408E-06,19.5345,0,1.3023,-3.994812E-05,19.5345,0
1.3032,-1.443504E-05,19.548,0,1.3032,-4.867628E-05,19.548,0
1.3041,1.040665E-05,19.5615,0,1.3041,-8.090334E-05,19.5615,0
1.305,2.920577E-05,19.575,0,1.305,-7.956054E-05,19.575,0
1.3059,-3.189136E-05,19.5885,0,1.3059,-9.634547E-05,19.5885,0
1.3068,-1.275654E-05,19.602,0,1.3068,-9.097429E-05,19.602,0
1.3077,1.275654E-05,19.6155,0,1.3077,-6.57969E-05,19.6155,0
1.3086,-3.256275E-05,19.629,0,1.3086,-6.713969E-06,19.629,0
1.3095,-1.342794E-06,19.6425,0,1.3095,3.793393E-05,19.6425,0
1.3104,2.1149E-05,19.656,0,1.3104,5.270466E-05,19.656,0
1.3113,1.913481E-05,19.6695,0,1.3113,-1.980621E-05,19.6695,0
1.3122,-4.699779E-06,19.683,0,1.3122,3.994812E-05,19.683,0
1.3131,-3.054856E-05,19.6965,0,1.3131,2.18204E-05,19.6965,0
1.314,-2.450599E-05,19.71,0,1.314,-2.18204E-05,19.71,0
1.3149,-7.385367E-06,19.7235,0,1.3149,-3.121996E-05,19.7235,0
1.3158,-4.028382E-06,19.737,0,1.3158,9.735256E-06,19.737,0
1.3167,-3.692683E-06,19.7505,0,1.3167,4.699779E-06,19.7505,0
1.3176,-7.721065E-06,19.764,0,1.3176,-3.894102E-05,19.764,0
1.3185,-6.881819E-05,19.7775,0,1.3185,1.174945E-05,19.7775,0
1.3194,-5.572595E-05,19.791,0,1.3194,3.726253E-05,19.791,0
1.3203,-5.606165E-05,19.8045,0,1.3203,2.652018E-05,19.8045,0
1.3212,-5.304036E-05,19.818,0,1.3212,3.457694E-05,19.818,0
1.3221,-5.606165E-05,19.8315,0,1.3221,6.713969E-07,19.8315,0
1.323,-2.584878E-05,19.845,0,1.323,-4.599069E-05,19.845,0
1.3239,3.659113E-05,19.8585,0,1.3239,-6.243992E-05,19.8585,0
1.3248,5.874724E-05,19.872,0,1.3248,-0.0001279011,19.872,0
1.3257,6.076142E-05,19.8855,0,1.3257,-9.768826E-05,19.8855,0
1.3266,1.275654E-05,19.899,0,1.3266,-4.162661E-05,19.899,0
1.3275,-1.712062E-05,19.9125,0,1.3275,-4.666209E-05,19.9125,0
1.3284,1.846342E-05,19.926,0,1.3284,-5.841154E-05,19.926,0
1.3293,7.721065E-06,19.9395,0,1.3293,2.685588E-06,19.9395,0
1.3302,-9.735256E-06,19.953,0,1.3302,5.035477E-06,19.953,0
1.3311,-2.652018E-05,19.9665,0,1.3311,-3.793393E-05,19.9665,0
1.332,-1.577783E-05,19.98,0,1.332,-3.356985E-06,19.98,0
1.3329,9.399558E-06,19.9935,0,1.3329,9.063859E-06,19.9935,0
1.3338,1.007095E-05,20.007,0,1.3338,-3.524834E-05,20.007,0
1.3347,5.706874E-06,20.0205,0,1.3347,-2.28275E-05,20.0205,0
1.3356,-1.779202E-05,20.034,0,1.3356,1.678492E-05,20.034,0
1.3365,-2.719158E-05,20.0475,0,1.3365,-1.007095E-06,20.0475,0
1.3374,-2.719158E-05,20.061,0,1.3374,-1.376364E-05,20.061,0
1.3383,-2.450599E-05,20.0745,0,1.3383,-3.121996E-05,20.0745,0
1.3392,1.913481E-05,20.088,0,1.3392,-1.208515E-05,20.088,0
1.3401,3.256275E-05,20.1015,0,1.3401,-8.728161E-06,20.1015,0
1.341,5.035477E-06,20.115,0,1.341,-1.779202E-05,20.115,0
1.3419,2.316319E-05,20.1285,0,1.3419,-3.491264E-05,20.1285,0
1.3428,2.081331E-05,20.142,0,1.3428,1.040665E-05,20.142,0
1.3437,-5.706874E-06,20.1555,0,1.3437,-9.735256E-06,20.1555,0
1.3446,-2.18204E-05,20.169,0,1.3446,-6.54612E-05,20.169,0
1.3455,-1.980621E-05,20.1825,0,1.3455,-1.779202E-05,20.1825,0
1.3464,3.793393E-05,20.196,0,1.3464,4.36408E-06,20.196,0
1.3473,5.069047E-05,20.2095,0,1.3473,-3.256275E-05,20.2095,0
1.3482,1.376364E-05,20.223,0,1.3482,-1.712062E-05,20.223,0
1.3491,-1.712062E-05,20.2365,0,1.3491,9.063859E-06,20.2365,0
1.35,-4.800488E-05,20.25,0,1.35,-1.510643E-05,20.25,0
1.3509,-2.450599E-05,20.2635,0,1.3509,-3.659113E-05,20.2635,0
1.3518,-1.678492E-06,20.277,0,1.3518,-7.721065E-06,20.277,0
1.3527,-2.987716E-05,20.2905,0,1.3527,-8.056763E-06,20.2905,0
1.3536,-5.639734E-05,20.304,0,1.3536,-3.491264E-05,20.304,0
1.3545,-7.083238E-05,20.3175,0,1.3545,-5.203327E-05,20.3175,0
1.3554,-7.016098E-05,20.331,0,1.3554,-7.385367E-06,20.331,0
1.3563,-5.874724E-05,20.3445,0,1.3563,1.846342E-05,20.3445,0
1.3572,-2.316319E-05,20.358,0,1.3572,3.021286E-06,20.358,0
1.3581,1.913481E-05,20.3715,0,1.3581,-4.263371E-05,20.3715,0
1.359,-8.392462E-06,20.385,0,1.359,-2.685588E-06,20.385,0
1.3599,1.712062E-05,20.3985,0,1.3599,2.1149E-05,20.3985,0
1.3608,3.961242E-05,20.412,0,1.3608,-2.618448E-05,20.412,0
1.3617,1.812772E-05,20.4255,0,1.3617,-2.349889E-05,20.4255,0
1.3626,-2.047761E-05,20.439,0,1.3626,-2.853437E-05,20.439,0
1.3635,-4.129091E-05,20.4525,0,1.3635,-3.155566E-05,20.4525,0
1.3644,-3.927672E-05,20.466,0,1.3644,-1.913481E-05,20.466,0
1.3653,-2.584878E-05,20.4795,0,1.3653,-3.121996E-05,20.4795,0
1.3662,-1.779202E-05,20.493,0,1.3662,-1.947051E-05,20.493,0
1.3671,-8.728161E-06,20.5065,0,1.3671,-2.349889E-06,20.5065,0
1.368,-3.961242E-05,20.52,0,1.368,-5.639734E-05,20.52,0
1.3689,3.189136E-05,20.5335,0,1.3689,-6.948959E-05,20.5335,0
1.3698,4.263371E-05,20.547,0,1.3698,-1.544213E-05,20.547,0
1.3707,1.779202E-05,20.5605,0,1.3707,-2.014191E-05,20.5605,0
1.3716,3.189136E-05,20.574,0,1.3716,-7.855344E-05,20.574,0
1.3725,2.349889E-06,20.5875,0,1.3725,-8.157473E-05,20.5875,0
1.3734,2.517739E-05,20.601,0,1.3734,-5.069047E-05,20.601,0
1.3743,2.920577E-05,20.6145,0,1.3743,3.054856E-05,20.6145,0
1.3752,1.678492E-05,20.628,0,1.3752,7.049668E-05,20.628,0
1.3761,6.713969E-06,20.6415,0,1.3761,1.712062E-05,20.6415,0
1.377,-3.356985E-06,20.655,0,1.377,-1.409934E-05,20.655,0
1.3779,-3.021286E-06,20.6685,0,1.3779,-4.699779E-05,20.6685,0
1.3788,9.063859E-06,20.682,0,1.3788,-6.74754E-05,20.682,0
1.3797,-1.913481E-05,20.6955,0,1.3797,-5.572595E-05,20.6955,0
1.3806,-2.349889E-06,20.709,0,1.3806,-1.980621E-05,20.709,0
1.3815,2.349889E-06,20.7225,0,1.3815,-5.975433E-05,20.7225,0
1.3824,1.678492E-06,20.736,0,1.3824,-4.867628E-05,20.736,0
1.3833,2.517739E-05,20.7495,0,1.3833,6.210422E-05,20.7495,0
1.3842,2.081331E-05,20.763,0,1.3842,5.807584E-05,20.763,0
1.3851,-1.980621E-05,20.7765,0,1.3851,-5.908293E-05,20.7765,0
1.386,-3.256275E-05,20.79,0,1.386,-2.752728E-05,20.79,0
1.3869,9.063859E-06,20.8035,0,1.3869,1.577783E-05,20.8035,0
1.3878,4.36408E-06,20.817,0,1.3878,-4.46479E-05,20.817,0
1.3887,-2.786297E-05,20.8305,0,1.3887,-4.632639E-05,20.8305,0
1.3896,-2.652018E-05,20.844,0,1.3896,-7.721065E-06,20.844,0
1.3905,-3.793393E-05,20.8575,0,1.3905,-4.699779E-06,20.8575,0
1.3914,-2.1149E-05,20.871,0,1.3914,4.061952E-05,20.871,0
1.3923,-1.577783E-05,20.8845,0,1.3923,5.539025E-05,20.8845,0
1.3932,-1.443504E-05,20.898,0,1.3932,7.049668E-06,20.898,0
1.3941,2.349889E-05,20.9115,0,1.3941,-3.021286E-06,20.9115,0
1.395,4.36408E-06,20.925,0,1.395,-2.349889E-06,20.925,0
1.3959,7.721065E-06,20.9385,0,1.3959,-4.028382E-05,20.9385,0
1.3968,-3.424125E-05,20.952,0,1.3968,-2.920577E-05,20.952,0
1.3977,-3.860533E-05,20.9655,0,1.3977,-1.577783E-05,20.9655,0
1.3986,1.779202E-05,20.979,0,1.3986,-7.351797E-05,20.979,0
1.3995,-3.692683E-06,20.9925,0,1.3995,-5.035477E-05,20.9925,0
1.4004,-4.53193E-05,21.006,0,1.4004,-3.961242E-05,21.006,0
1.4013,7.721065E-06,21.0195,0,1.4013,-5.069047E-05,21.0195,0
1.4022,3.256275E-05,21.033,0,1.4022,-1.644922E-05,21.033,0
1.4031,2.1149E-05,21.0465,0,1.4031,3.457694E-05,21.0465,0
1.404,3.323415E-05,21.06,0,1.404,1.779202E-05,21.06,0
1.4049,4.800488E-05,21.0735,0,1.4049,5.706874E-06,21.0735,0
1.4058,5.706874E-06,21.087,0,1.4058,-2.18204E-05,21.087,0
1.4067,2.349889E-06,21.1005,0,1.4067,-1.141375E-05,21.1005,0
1.4076,-1.510643E-05,21.114,0,1.4076,-9.634547E-05,21.114,0
1.4085,-7.486076E-05,21.1275,0,1.4085,-0.000130251,21.1275,0
1.4094,-9.265278E-05,21.141,0,1.4094,-6.277562E-05,21.141,0
1.4103,-1.980621E-05,21.1545,0,1.4103,2.383459E-05,21.1545,0
1.4112,5.706874E-06,21.168,0,1.4112,-9.735256E-06,21.168,0
1.4121,-3.356985E-06,21.1815,0,1.4121,-6.176852E-05,21.1815,0
1.413,-1.174945E-05,21.195,0,1.413,-8.728161E-06,21.195,0
1.4139,-3.726253E-05,21.2085,0,1.4139,2.685588E-06,21.2085,0
1.4148,-2.18204E-05,21.222,0,1.4148,-1.712062E-05,21.222,0
1.4157,-1.007095E-06,21.2355,0,1.4157,-4.028382E-06,21.2355,0
1.4166,-3.256275E-05,21.249,0,1.4166,3.256275E-05,21.249,0
1.4175,-1.208515E-05,21.2625,0,1.4175,3.021286E-06,21.2625,0
1.4184,3.256275E-05,21.276,0,1.4184,-5.706874E-06,21.276,0
1.4193,-7.385367E-06,21.2895,0,1.4193,-3.256275E-05,21.2895,0
1.4202,-6.042573E-05,21.303,0,1.4202,-1.980621E-05,21.303,0
1.4211,-6.948959E-05,21.3165,0,1.4211,2.987716E-05,21.3165,0
1.422,-5.304036E-05,21.33,0,1.422,3.021286E-06,21.33,0
1.4229,-5.102617E-05,21.3435,0,1.4229,-4.666209E-05,21.3435,0
1.4238,-5.404745E-05,21.357,0,1.4238,-5.203327E-05,21.357,0
1.4247,-2.14847E-05,21.3705,0,1.4247,-0.0001258869,21.3705,0
1.4256,-2.18204E-05,21.384,0,1.4256,-0.0002057832,21.384,0
1.4265,-3.692683E-05,21.3975,0,1.4265,-4.934768E-05,21.3975,0
1.4274,1.376364E-05,21.411,0,1.4274,0.0001366293,21.411,0
1.4283,4.39765E-05,21.4245,0,1.4283,6.57969E-05,21.4245,0
1.4292,5.136187E-05,21.438,0,1.4292,9.500267E-05,21.438,0
1.4301,3.390555E-05,21.4515,0,1.4301,6.411841E-05,21.4515,0
1.431,2.484169E-05,21.465,0,1.431,-5.371176E-06,21.465,0
1.4319,3.356985E-06,21.4785,0,1.4319,-7.721065E-06,21.4785,0
1.4328,3.826963E-05,21.492,0,1.4328,-3.491264E-05,21.492,0
1.4337,3.826963E-05,21.5055,0,1.4337,-2.14847E-05,21.5055,0
1.4346,2.652018E-05,21.519,0,1.4346,-1.040665E-05,21.519,0
1.4355,2.014191E-05,21.5325,0,1.4355,-3.659113E-05,21.5325,0
1.4364,3.927672E-05,21.546,0,1.4364,-4.36408E-05,21.546,0
1.4373,1.947051E-05,21.5595,0,1.4373,-1.779202E-05,21.5595,0
1.4382,3.692683E-06,21.573,0,1.4382,-1.409934E-05,21.573,0
1.4391,-7.049668E-06,21.5865,0,1.4391,-6.076142E-05,21.5865,0
1.44,-3.692683E-06,21.6,0,1.44,-1.141375E-05,21.6,0
1.4409,-1.879912E-05,21.6135,0,1.4409,1.242084E-05,21.6135,0
1.4418,3.692683E-06,21.627,0,1.4418,-4.33051E-05,21.627,0
1.4427,2.047761E-05,21.6405,0,1.4427,-2.887007E-05,21.6405,0
1.4436,-3.726253E-05,21.654,0,1.4436,-1.678492E-06,21.654,0
1.4445,-1.678492E-06,21.6675,0,1.4445,-1.141375E-05,21.6675,0
1.4454,-1.342794E-05,21.681,0,1.4454,-2.18204E-05,21.681,0
1.4463,-2.987716E-05,21.6945,0,1.4463,-3.390555E-05,21.6945,0
1.4472,-4.028382E-06,21.708,0,1.4472,-1.510643E-05,21.708,0
1.4481,-3.558404E-05,21.7215,0,1.4481,1.174945E-05,21.7215,0
1.449,-2.047761E-05,21.735,0,1.449,-5.706874E-06,21.735,0
1.4499,2.652018E-05,21.7485,0,1.4499,-3.793393E-05,21.7485,0
1.4508,-1.510643E-05,21.762,0,1.4508,-1.141375E-05,21.762,0
1.4517,-4.49836E-05,21.7755,0,1.4517,-2.987716E-05,21.7755,0
1.4526,-2.887007E-05,21.789,0,1.4526,-6.54612E-05,21.789,0
1.4535,-3.356985E-07,21.8025,0,1.4535,5.035477E-06,21.8025,0
1.4544,-2.18204E-05,21.816,0,1.4544,4.800488E-05,21.816,0
1.4553,-3.625543E-05,21.8295,0,1.4553,-1.376364E-05,21.8295,0
1.4562,-1.947051E-05,21.843,0,1.4562,-1.745632E-05,21.843,0
1.4571,-1.443504E-05,21.8565,0,1.4571,7.049668E-06,21.8565,0
1.458,-3.054856E-05,21.87,0,1.458,-1.712062E-05,21.87,0
1.4589,1.242084E-05,21.8835,0,1.4589,-2.618448E-05,21.8835,0
1.4598,1.678492E-05,21.897,0,1.4598,-6.210422E-05,21.897,0
1.4607,1.644922E-05,21.9105,0,1.4607,-2.584878E-05,21.9105,0
1.4616,3.591974E-05,21.924,0,1.4616,-1.275654E-05,21.924,0
1.4625,-1.980621E-05,21.9375,0,1.4625,-1.779202E-05,21.9375,0
1.4634,-2.517739E-05,21.951,0,1.4634,1.678492E-06,21.951,0
1.4643,-2.786297E-05,21.9645,0,1.4643,4.666209E-05,21.9645,0
1.4652,-4.162661E-05,21.978,0,1.4652,-1.443504E-05,21.978,0
1.4661,2.685588E-05,21.9915,0,1.4661,-7.418937E-05,21.9915,0
1.467,3.356985E-07,22.005,0,1.467,-3.793393E-05,22.005,0
1.4679,-1.376364E-05,22.0185,0,1.4679,-3.289845E-05,22.0185,0
1.4688,-1.309224E-05,22.032,0,1.4688,-6.74754E-05,22.032,0
1.4697,-9.735256E-06,22.0455,0,1.4697,-5.539025E-05,22.0455,0
1.4706,-3.927672E-05,22.059,0,1.4706,-2.853437E-05,22.059,0
1.4715,-4.46479E-05,22.0725,0,1.4715,-5.270466E-05,22.0725,0
1.4724,-2.28275E-05,22.086,0,1.4724,-4.229801E-05,22.086,0
1.4733,0,22.0995,0,1.4733,-5.673304E-05,22.0995,0
1.4742,3.927672E-05,22.113,0,1.4742,-3.021286E-06,22.113,0
1.4751,2.920577E-05,22.1265,0,1.4751,2.1149E-05,22.1265,0
1.476,1.007095E-06,22.14,0,1.476,-1.712062E-05,22.14,0
1.4769,3.121996E-05,22.1535,0,1.4769,2.349889E-06,22.1535,0
1.4778,-1.007095E-05,22.167,0,1.4778,1.443504E-05,22.167,0
1.4787,-3.994812E-05,22.1805,0,1.4787,-2.584878E-05,22.1805,0
1.4796,1.644922E-05,22.194,0,1.4796,-4.33051E-05,22.194,0
1.4805,-2.484169E-05,22.2075,0,1.4805,-3.054856E-05,22.2075,0
1.4814,-2.417029E-05,22.221,0,1.4814,-1.678492E-06,22.221,0
1.4823,1.141375E-05,22.2345,0,1.4823,5.035477E-06,22.2345,0
1.4832,6.344701E-05,22.248,0,1.4832,-4.162661E-05,22.248,0
1.4841,5.001907E-05,22.2615,0,1.4841,-3.692683E-05,22.2615,0
1.485,3.054856E-05,22.275,0,1.485,-2.652018E-05,22.275,0
1.4859,-1.309224E-05,22.2885,0,1.4859,-5.102617E-05,22.2885,0
1.4868,-1.644922E-05,22.302,0,1.4868,-5.270466E-05,22.302,0
1.4877,-2.920577E-05,22.3155,0,1.4877,-1.846342E-05,22.3155,0
1.4886,-1.913481E-05,22.329,0,1.4886,-4.028382E-06,22.329,0
1.4895,-7.586786E-05,22.3425,0,1.4895,-5.035477E-05,22.3425,0
1.4904,-4.196231E-05,22.356,0,1.4904,4.699779E-06,22.356,0
1.4913,1.510643E-05,22.3695,0,1.4913,0.0001050736,22.3695,0
1.4922,3.356985E-05,22.383,0,1.4922,6.311131E-05,22.383,0
1.4931,1.846342E-05,22.3965,0,1.4931,-1.510643E-05,22.3965,0
1.494,2.18204E-05,22.41,0,1.494,1.040665E-05,22.41,0
1.4949,2.014191E-06,22.4235,0,1.4949,-2.349889E-06,22.4235,0
1.4958,2.349889E-06,22.437,0,1.4958,-5.270466E-05,22.437,0
1.4967,1.477073E-05,22.4505,0,1.4967,-3.793393E-05,22.4505,0
1.4976,-3.961242E-05,22.464,0,1.4976,1.409934E-05,22.464,0
1.4985,-2.21561E-05,22.4775,0,1.4985,-6.411841E-05,22.4775,0
1.4994,-1.275654E-05,22.491,0,1.4994,-0.0001050736,22.491,0
1.5003,-7.452507E-05,22.5045,0,1.5003,-5.874724E-05,22.5045,0
1.5012,-7.989624E-05,22.518,0,1.5012,-1.275654E-05,22.518,0
1.5021,-3.659113E-05,22.5315,0,1.5021,5.069047E-05,22.5315,0
1.503,-4.36408E-06,22.545,0,1.503,7.620356E-05,22.545,0
1.5039,6.378271E-06,22.5585,0,1.5039,2.349889E-06,22.5585,0
1.5048,2.18204E-05,22.572,0,1.5048,-4.53193E-05,22.572,0
1.5057,2.920577E-05,22.5855,0,1.5057,-8.291753E-05,22.5855,0
1.5066,-7.385367E-06,22.599,0,1.5066,-0.0001423362,22.599,0
1.5075,-6.814679E-05,22.6125,0,1.5075,-6.076142E-05,22.6125,0
1.5084,-4.162661E-05,22.626,0,1.5084,1.644922E-05,22.626,0
1.5093,-3.289845E-05,22.6395,0,1.5093,-2.383459E-05,22.6395,0
1.5102,-1.846342E-05,22.653,0,1.5102,-2.719158E-05,22.653,0
1.5111,-1.443504E-05,22.6665,0,1.5111,-3.356985E-06,22.6665,0
1.512,-2.18204E-05,22.68,0,1.512,-8.392462E-06,22.68,0
1.5129,-2.618448E-05,22.6935,0,1.5129,4.699779E-06,22.6935,0
1.5138,7.721065E-06,22.707,0,1.5138,-4.43122E-05,22.707,0
1.5147,-3.356985E-07,22.7205,0,1.5147,-5.471885E-05,22.7205,0
1.5156,-2.685588E-06,22.734,0,1.5156,-2.349889E-06,22.734,0
1.5165,1.712062E-05,22.7475,0,1.5165,-5.706874E-06,22.7475,0
1.5174,2.887007E-05,22.761,0,1.5174,-3.927672E-05,22.761,0
1.5183,-5.706874E-06,22.7745,0,1.5183,-3.054856E-05,22.7745,0
1.5192,-3.524834E-05,22.788,0,1.5192,-4.599069E-05,22.788,0
1.5201,-7.049668E-06,22.8015,0,1.5201,-7.653925E-05,22.8015,0
1.521,-3.692683E-06,22.815,0,1.521,1.275654E-05,22.815,0
1.5219,2.349889E-06,22.8285,0,1.5219,6.009003E-05,22.8285,0
1.5228,7.721065E-06,22.842,0,1.5228,1.678492E-05,22.842,0
1.5237,-2.18204E-05,22.8555,0,1.5237,-7.687495E-05,22.8555,0
1.5246,-8.89601E-05,22.869,0,1.5246,5.035477E-06,22.869,0
1.5255,-2.954147E-05,22.8825,0,1.5255,6.311131E-05,22.8825,0
1.5264,4.800488E-05,22.896,0,1.5264,1.107805E-05,22.896,0
1.5273,7.217517E-05,22.9095,0,1.5273,-3.625543E-05,22.9095,0
1.5282,5.236896E-05,22.923,0,1.5282,1.477073E-05,22.923,0
1.5291,5.807584E-05,22.9365,0,1.5291,3.591974E-05,22.9365,0
1.53,1.309224E-05,22.95,0,1.53,-1.443504E-05,22.95,0
1.5309,1.040665E-05,22.9635,0,1.5309,-3.625543E-05,22.9635,0
1.5318,6.378271E-06,22.977,0,1.5318,-1.040665E-05,22.977,0
1.5327,-3.860533E-05,22.9905,0,1.5327,-2.685588E-06,22.9905,0
1.5336,-2.652018E-05,23.004,0,1.5336,-5.606165E-05,23.004,0
1.5345,-2.484169E-05,23.0175,0,1.5345,-5.035477E-06,23.0175,0
1.5354,-2.719158E-05,23.031,0,1.5354,3.692683E-06,23.031,0
1.5363,-3.021286E-06,23.0445,0,1.5363,-2.1149E-05,23.0445,0
1.5372,3.457694E-05,23.058,0,1.5372,-6.713969E-07,23.058,0
1.5381,3.021286E-06,23.0715,0,1.5381,2.349889E-06,23.0715,0
1.539,2.450599E-05,23.085,0,1.539,-3.021286E-06,23.085,0
1.5399,2.24918E-05,23.0985,0,1.5399,-1.510643E-05,23.0985,0
1.5408,5.136187E-05,23.112,0,1.5408,-3.927672E-05,23.112,0
1.5417,1.074235E-05,23.1255,0,1.5417,-3.021286E-05,23.1255,0
1.5426,-2.752728E-05,23.139,0,1.5426,-3.054856E-05,23.139,0
1.5435,7.049668E-06,23.1525,0,1.5435,-4.53193E-05,23.1525,0
1.5444,-4.196231E-05,23.166,0,1.5444,-5.404745E-05,23.166,0
1.5453,-5.505455E-05,23.1795,0,1.5453,-5.035477E-06,23.1795,0
1.5462,-1.947051E-05,23.193,0,1.5462,-1.141375E-05,23.193,0
1.5471,-1.376364E-05,23.2065,0,1.5471,-7.016098E-05,23.2065,0
1.548,-1.712062E-05,23.22,0,1.548,-1.846342E-05,23.22,0
1.5489,-4.028382E-06,23.2335,0,1.5489,7.049668E-06,23.2335,0
1.5498,5.606165E-05,23.247,0,1.5498,-3.289845E-05,23.247,0
1.5507,1.174945E-05,23.2605,0,1.5507,-2.786297E-05,23.2605,0
1.5516,-6.74754E-05,23.274,0,1.5516,-1.510643E-05,23.274,0
1.5525,-5.908293E-05,23.2875,0,1.5525,-2.18204E-05,23.2875,0
1.5534,-4.867628E-05,23.301,0,1.5534,-2.24918E-05,23.301,0
1.5543,-4.934768E-05,23.3145,0,1.5543,-2.853437E-05,23.3145,0
1.5552,-1.510643E-05,23.328,0,1.5552,-7.385367E-06,23.328,0
1.5561,3.591974E-05,23.3415,0,1.5561,6.948959E-05,23.3415,0
1.557,-1.510643E-05,23.355,0,1.557,2.685588E-06,23.355,0
1.5579,-4.733349E-05,23.3685,0,1.5579,-6.076142E-05,23.3685,0
1.5588,-3.994812E-05,23.382,0,1.5588,-3.021286E-06,23.382,0
1.5597,-4.766919E-05,23.3955,0,1.5597,-2.28275E-05,23.3955,0
1.5606,-2.014191E-05,23.409,0,1.5606,-8.459602E-05,23.409,0
1.5615,-1.678492E-06,23.4225,0,1.5615,-3.692683E-05,23.4225,0
1.5624,2.24918E-05,23.436,0,1.5624,-6.378271E-06,23.436,0
1.5633,6.210422E-05,23.4495,0,1.5633,-7.721065E-06,23.4495,0
1.5642,7.821774E-05,23.463,0,1.5642,-4.867628E-05,23.463,0
1.5651,-2.349889E-06,23.4765,0,1.5651,-4.53193E-05,23.4765,0
1.566,-2.24918E-05,23.49,0,1.566,-4.733349E-05,23.49,0
1.5669,-2.24918E-05,23.5035,0,1.5669,-4.867628E-05,23.5035,0
1.5678,-4.39765E-05,23.517,0,1.5678,-4.33051E-05,23.517,0
1.5687,-3.021286E-05,23.5305,0,1.5687,9.063859E-06,23.5305,0
1.5696,-1.577783E-05,23.544,0,1.5696,1.577783E-05,23.544,0
1.5705,-1.879912E-05,23.5575,0,1.5705,-1.577783E-05,23.5575,0
1.5714,-1.678492E-06,23.571,0,1.5714,-5.471885E-05,23.571,0
1.5723,-1.443504E-05,23.5845,0,1.5723,1.309224E-05,23.5845,0
1.5732,-1.947051E-05,23.598,0,1.5732,5.706874E-06,23.598,0
1.5741,3.894102E-05,23.6115,0,1.5741,-3.793393E-05,23.6115,0
1.575,2.18204E-05,23.625,0,1.575,7.721065E-06,23.625,0
1.5759,2.517739E-05,23.6385,0,1.5759,5.438316E-05,23.6385,0
1.5768,-4.028382E-06,23.652,0,1.5768,-3.356985E-06,23.652,0
1.5777,1.107805E-05,23.6655,0,1.5777,-2.081331E-05,23.6655,0
1.5786,-2.081331E-05,23.679,0,1.5786,-1.980621E-05,23.679,0
1.5795,-2.752728E-05,23.6925,0,1.5795,-9.735256E-06,23.6925,0
1.5804,-3.524834E-05,23.706,0,1.5804,1.208515E-05,23.706,0
1.5813,-2.584878E-05,23.7195,0,1.5813,-2.551309E-05,23.7195,0
1.5822,-1.980621E-05,23.733,0,1.5822,-1.611353E-05,23.733,0
1.5831,1.712062E-05,23.7465,0,1.5831,1.007095E-05,23.7465,0
1.584,2.24918E-05,23.76,0,1.584,-7.922484E-05,23.76,0
1.5849,7.687495E-05,23.7735,0,1.5849,-0.0001121233,23.7735,0
1.5858,2.316319E-05,23.787,0,1.5858,-3.256275E-05,23.787,0
1.5867,-1.040665E-05,23.8005,0,1.5867,-1.510643E-05,23.8005,0
1.5876,5.706874E-06,23.814,0,1.5876,-4.53193E-05,23.814,0
1.5885,-3.021286E-06,23.8275,0,1.5885,-2.450599E-05,23.8275,0
1.5894,-6.378271E-06,23.841,0,1.5894,-1.208515E-05,23.841,0
1.5903,-1.275654E-05,23.8545,0,1.5903,-6.948959E-05,23.8545,0
1.5912,-1.242084E-05,23.868,0,1.5912,-4.733349E-05,23.868,0
1.5921,1.678492E-05,23.8815,0,1.5921,7.049668E-06,23.8815,0
1.593,-4.46479E-05,23.895,0,1.593,-1.577783E-05,23.895,0
1.5939,-4.229801E-05,23.9085,0,1.5939,1.510643E-05,23.9085,0
1.5948,2.1149E-05,23.922,0,1.5948,1.309224E-05,23.922,0
1.5957,2.349889E-06,23.9355,0,1.5957,-1.678492E-06,23.9355,0
1.5966,-3.323415E-05,23.949,0,1.5966,-4.028382E-06,23.949,0
1.5975,-4.733349E-05,23.9625,0,1.5975,-4.263371E-05,23.9625,0
1.5984,-5.304036E-05,23.976,0,1.5984,-2.24918E-05,23.976,0
1.5993,-1.107805E-05,23.9895,0,1.5993,3.860533E-05,23.9895,0
1.6002,-3.961242E-05,24.003,0,1.6002,5.035477E-06,24.003,0
1.6011,-3.793393E-05,24.0165,0,1.6011,-4.632639E-05,24.0165,0
1.602,-2.21561E-05,24.03,0,1.602,-5.270466E-05,24.03,0
1.6029,-9.735256E-06,24.0435,0,1.6029,-6.64683E-05,24.0435,0
1.6038,5.035477E-06,24.057,0,1.6038,-0.0001121233,24.057,0
1.6047,8.023193E-05,24.0705,0,1.6047,-9.970245E-05,24.0705,0
1.6056,5.706874E-06,24.084,0,1.6056,1.376364E-05,24.084,0
1.6065,-2.081331E-05,24.0975,0,1.6065,9.030289E-05,24.0975,0
1.6074,9.063859E-06,24.111,0,1.6074,0.0001245441,24.111,0
1.6083,-1.712062E-05,24.1245,0,1.6083,8.728161E-06,24.1245,0
1.6092,-4.33051E-05,24.138,0,1.6092,8.728161E-06,24.138,0
1.6101,-1.141375E-05,24.1515,0,1.6101,9.399558E-06,24.1515,0
1.611,1.443504E-05,24.165,0,1.611,-2.28275E-05,24.165,0
1.6119,5.035477E-06,24.1785,0,1.6119,-3.323415E-05,24.1785,0
1.6128,-1.712062E-05,24.192,0,1.6128,2.014191E-06,24.192,0
1.6137,-5.035477E-06,24.2055,0,1.6137,2.349889E-06,24.2055,0
1.6146,-3.356985E-07,24.219,0,1.6146,-4.599069E-05,24.219,0
1.6155,2.920577E-05,24.2325,0,1.6155,1.007095E-06,24.2325,0
1.6164,3.222705E-05,24.246,0,1.6164,4.800488E-05,24.246,0
1.6173,1.376364E-05,24.2595,0,1.6173,-3.692683E-06,24.2595,0
1.6182,-3.692683E-06,24.273,0,1.6182,-1.007095E-06,24.273,0
1.6191,-4.229801E-05,24.2865,0,1.6191,7.385367E-06,24.2865,0
1.62,-3.390555E-05,24.3,0,1.62,-4.263371E-05,24.3,0
1.6209,-3.121996E-05,24.3135,0,1.6209,-7.821774E-05,24.3135,0
1.6218,-1.779202E-05,24.327,0,1.6218,-7.553216E-05,24.327,0
1.6227,-1.275654E-05,24.3405,0,1.6227,-4.33051E-05,24.3405,0
1.6236,1.644922E-05,24.354,0,1.6236,-1.275654E-05,24.354,0
1.6245,2.517739E-05,24.3675,0,1.6245,-4.263371E-05,24.3675,0
1.6254,-2.21561E-05,24.381,0,1.6254,-7.083238E-05,24.381,0
1.6263,-1.812772E-05,24.3945,0,1.6263,-3.289845E-05,24.3945,0
1.6272,1.275654E-05,24.408,0,1.6272,-2.28275E-05,24.408,0
1.6281,1.242084E-05,24.4215,0,1.6281,-6.6804E-05,24.4215,0
1.629,3.356985E-06,24.435,0,1.629,-6.042573E-06,24.435,0
1.6299,2.21561E-05,24.4485,0,1.6299,1.376364E-05,24.4485,0
1.6308,-6.378271E-06,24.462,0,1.6308,-5.136187E-05,24.462,0
1.6317,-1.242084E-05,24.4755,0,1.6317,-3.121996E-05,24.4755,0
1.6326,-2.18204E-05,24.489,0,1.6326,1.577783E-05,24.489,0
1.6335,-2.450599E-05,24.5025,0,1.6335,-8.392462E-06,24.5025,0
1.6344,-4.39765E-05,24.516,0,1.6344,-7.721065E-06,24.516,0
1.6353,-2.417029E-05,24.5295,0,1.6353,-2.652018E-05,24.5295,0
1.6362,-1.443504E-05,24.543,0,1.6362,-2.349889E-05,24.543,0
1.6371,-6.713969E-07,24.5565,0,1.6371,-5.035477E-06,24.5565,0
1.638,9.399558E-06,24.57,0,1.638,-3.155566E-05,24.57,0
1.6389,3.793393E-05,24.5835,0,1.6389,-3.323415E-05,24.5835,0
1.6398,-3.021286E-06,24.597,0,1.6398,4.699779E-06,24.597,0
1.6407,-2.18204E-05,24.6105,0,1.6407,1.342794E-06,24.6105,0
1.6416,5.035477E-06,24.624,0,1.6416,-5.270466E-05,24.624,0
1.6425,2.21561E-05,24.6375,0,1.6425,-1.141375E-05,24.6375,0
1.6434,-2.920577E-05,24.651,0,1.6434,-3.860533E-05,24.651,0
1.6443,-4.39765E-05,24.6645,0,1.6443,-4.028382E-05,24.6645,0
1.6452,-2.450599E-05,24.678,0,1.6452,-2.517739E-05,24.678,0
1.6461,-9.466698E-05,24.6915,0,1.6461,5.035477E-06,24.6915,0
1.647,-6.74754E-05,24.705,0,1.647,1.879912E-05,24.705,0
1.6479,1.309224E-05,24.7185,0,1.6479,-1.309224E-05,24.7185,0
1.6488,6.713969E-07,24.732,0,1.6488,-5.706874E-05,24.732,0
1.6497,7.721065E-06,24.7455,0,1.6497,-4.49836E-05,24.7455,0
1.6506,4.061952E-05,24.759,0,1.6506,8.392462E-06,24.759,0
1.6515,-3.356985E-07,24.7725,0,1.6515,-1.712062E-05,24.7725,0
1.6524,4.028382E-06,24.786,0,1.6524,-5.505455E-05,24.786,0
1.6533,1.712062E-05,24.7995,0,1.6533,-3.457694E-05,24.7995,0
1.6542,5.471885E-05,24.813,0,1.6542,-3.457694E-05,24.813,0
1.6551,7.083238E-05,24.8265,0,1.6551,-4.33051E-05,24.8265,0
1.656,1.040665E-05,24.84,0,1.656,1.510643E-05,24.84,0
1.6569,-2.047761E-05,24.8535,0,1.6569,6.54612E-05,24.8535,0
1.6578,-3.726253E-05,24.867,0,1.6578,2.1149E-05,24.867,0
1.6587,-5.136187E-05,24.8805,0,1.6587,-2.685588E-06,24.8805,0
1.6596,-3.860533E-05,24.894,0,1.6596,5.706874E-06,24.894,0
1.6605,-3.692683E-06,24.9075,0,1.6605,-1.208515E-05,24.9075,0
1.6614,3.692683E-06,24.921,0,1.6614,1.712062E-05,24.921,0
1.6623,-8.056763E-06,24.9345,0,1.6623,-3.558404E-05,24.9345,0
1.6632,-5.706874E-06,24.948,0,1.6632,-3.155566E-05,24.948,0
1.6641,4.36408E-06,24.9615,0,1.6641,1.242084E-05,24.9615,0
1.665,-1.577783E-05,24.975,0,1.665,-5.404745E-05,24.975,0
1.6659,0,24.9885,0,1.6659,-9.030289E-05,24.9885,0
1.6668,1.174945E-05,25.002,0,1.6668,-2.719158E-05,25.002,0
1.6677,-1.712062E-05,25.0155,0,1.6677,-3.659113E-05,25.0155,0
1.6686,-1.174945E-05,25.029,0,1.6686,-7.553216E-05,25.029,0
1.6695,0,25.0425,0,1.6695,-3.894102E-05,25.0425,0
1.6704,-2.786297E-05,25.056,0,1.6704,8.056763E-06,25.056,0
1.6713,-1.712062E-05,25.0695,0,1.6713,-1.040665E-05,25.0695,0
1.6722,-4.39765E-05,25.083,0,1.6722,-3.256275E-05,25.083,0
1.6731,-8.291753E-05,25.0965,0,1.6731,6.042573E-06,25.0965,0
1.674,-7.687495E-05,25.11,0,1.674,1.007095E-06,25.11,0
1.6749,-9.097429E-05,25.1235,0,1.6749,-7.049668E-06,25.1235,0
1.6758,-4.867628E-05,25.137,0,1.6758,-1.107805E-05,25.137,0
1.6767,8.728161E-06,25.1505,0,1.6767,7.721065E-06,25.1505,0
1.6776,9.030289E-05,25.164,0,1.6776,-5.706874E-06,25.164,0
1.6785,7.217517E-05,25.1775,0,1.6785,-4.39765E-05,25.1775,0
1.6794,8.157473E-05,25.191,0,1.6794,-7.821774E-05,25.191,0
1.6803,5.673304E-05,25.2045,0,1.6803,-4.061952E-05,25.2045,0
1.6812,-1.376364E-05,25.218,0,1.6812,-4.39765E-05,25.218,0
1.6821,2.24918E-05,25.2315,0,1.6821,-5.606165E-05,25.2315,0
1.683,3.256275E-05,25.245,0,1.683,4.666209E-05,25.245,0
1.6839,-2.920577E-05,25.2585,0,1.6839,6.54612E-05,25.2585,0
1.6848,-4.901198E-05,25.272,0,1.6848,-9.063859E-06,25.272,0
1.6857,-2.1149E-05,25.2855,0,1.6857,-8.056763E-06,25.2855,0
1.6866,-2.047761E-05,25.299,0,1.6866,1.007095E-06,25.299,0
1.6875,-2.484169E-05,25.3125,0,1.6875,-4.666209E-05,25.3125,0
1.6884,3.356985E-06,25.326,0,1.6884,-3.793393E-05,25.326,0
1.6893,1.846342E-05,25.3395,0,1.6893,-3.256275E-05,25.3395,0
1.6902,4.028382E-06,25.353,0,1.6902,1.342794E-05,25.353,0
1.6911,2.349889E-06,25.3665,0,1.6911,1.107805E-05,25.3665,0
1.692,9.063859E-06,25.38,0,1.692,-3.692683E-06,25.38,0
1.6929,2.24918E-05,25.3935,0,1.6929,-2.584878E-05,25.3935,0
1.6938,2.685588E-06,25.407,0,1.6938,1.409934E-05,25.407,0
1.6947,-8.728161E-06,25.4205,0,1.6947,-1.007095E-06,25.4205,0
1.6956,-1.040665E-05,25.434,0,1.6956,-4.46479E-05,25.434,0
1.6965,1.107805E-05,25.4475,0,1.6965,-8.392462E-06,25.4475,0
1.6974,-7.385367E-06,25.461,0,1.6974,-7.049668E-06,25.461,0
1.6983,-2.014191E-05,25.4745,0,1.6983,-5.270466E-05,25.4745,0
1.6992,1.242084E-05,25.488,0,1.6992,-4.263371E-05,25.488,0
1.7001,-3.793393E-05,25.5015,0,1.7001,-3.289845E-05,25.5015,0
1.701,-2.719158E-05,25.515,0,1.701,-2.853437E-05,25.515,0
1.7019,-3.659113E-05,25.5285,0,1.7019,-2.349889E-05,25.5285,0
1.7028,-3.256275E-05,25.542,0,1.7028,-1.913481E-05,25.542,0
1.7037,-1.577783E-05,25.5555,0,1.7037,1.443504E-05,25.5555,0
1.7046,-9.399558E-06,25.569,0,1.7046,3.625543E-05,25.569,0
1.7055,3.021286E-06,25.5825,0,1.7055,-2.18204E-05,25.5825,0
1.7064,1.309224E-05,25.596,0,1.7064,-3.256275E-05,25.596,0
1.7073,-1.913481E-05,25.6095,0,1.7073,-1.678492E-06,25.6095,0
1.7082,-2.1149E-05,25.623,0,1.7082,-5.169757E-05,25.623,0
1.7091,2.517739E-05,25.6365,0,1.7091,-6.478981E-05,25.6365,0
1.71,2.383459E-05,25.65,0,1.71,-7.721065E-06,25.65,0
1.7109,-1.376364E-05,25.6635,0,1.7109,-1.141375E-05,25.6635,0
1.7118,-7.721065E-06,25.677,0,1.7118,-3.323415E-05,25.677,0
1.7127,-1.107805E-05,25.6905,0,1.7127,-2.383459E-05,25.6905,0
1.7136,-2.28275E-05,25.704,0,1.7136,-3.121996E-05,25.704,0
1.7145,1.510643E-05,25.7175,0,1.7145,-3.927672E-05,25.7175,0
1.7154,-5.035477E-06,25.731,0,1.7154,-5.236896E-05,25.731,0
1.7163,-2.18204E-05,25.7445,0,1.7163,-2.752728E-05,25.7445,0
1.7172,-2.719158E-05,25.758,0,1.7172,1.477073E-05,25.758,0
1.7181,-2.349889E-05,25.7715,0,1.7181,0,25.7715,0
1.719,-1.779202E-05,25.785,0,1.719,-3.591974E-05,25.785,0
1.7199,-1.812772E-05,25.7985,0,1.7199,-5.539025E-05,25.7985,0
1.7208,3.356985E-07,25.812,0,1.7208,-4.33051E-05,25.812,0
1.7217,1.745632E-05,25.8255,0,1.7217,-4.901198E-05,25.8255,0
1.7226,1.275654E-05,25.839,0,1.7226,-5.941863E-05,25.839,0
1.7235,1.107805E-05,25.8525,0,1.7235,-7.385367E-06,25.8525,0
1.7244,-5.371176E-06,25.866,0,1.7244,1.577783E-05,25.866,0
1.7253,-9.399558E-06,25.8795,0,1.7253,-3.256275E-05,25.8795,0
1.7262,-5.606165E-05,25.893,0,1.7262,-3.927672E-05,25.893,0
1.7271,-7.183947E-05,25.9065,0,1.7271,-5.035477E-06,25.9065,0
1.728,-7.855344E-05,25.92,0,1.728,1.040665E-05,25.92,0
1.7289,-5.438316E-05,25.9335,0,1.7289,-1.510643E-05,25.9335,0
1.7298,-1.208515E-05,25.947,0,1.7298,-6.143282E-05,25.947,0
1.7307,9.399558E-06,25.9605,0,1.7307,-2.047761E-05,25.9605,0
1.7316,5.035477E-06,25.974,0,1.7316,1.577783E-05,25.974,0
1.7325,5.606165E-05,25.9875,0,1.7325,-1.846342E-05,25.9875,0
1.7334,6.344701E-05,26.001,0,1.7334,-5.706874E-06,26.001,0
1.7343,3.189136E-05,26.0145,0,1.7343,6.411841E-05,26.0145,0
1.7352,4.229801E-05,26.028,0,1.7352,6.61326E-05,26.028,0
1.7361,4.061952E-05,26.0415,0,1.7361,2.618448E-05,26.0415,0
1.737,-1.779202E-05,26.055,0,1.737,-3.591974E-05,26.055,0
1.7379,-2.786297E-05,26.0685,0,1.7379,-3.692683E-05,26.0685,0
1.7388,-1.007095E-06,26.082,0,1.7388,-3.289845E-05,26.082,0
1.7397,3.256275E-05,26.0955,0,1.7397,-4.33051E-05,26.0955,0
1.7406,-1.342794E-06,26.109,0,1.7406,-9.735256E-06,26.109,0
1.7415,-2.21561E-05,26.1225,0,1.7415,-3.994812E-05,26.1225,0
1.7424,-4.699779E-06,26.136,0,1.7424,-1.846342E-05,26.136,0
1.7433,-3.356985E-07,26.1495,0,1.7433,-1.544213E-05,26.1495,0
1.7442,-1.510643E-05,26.163,0,1.7442,-2.1149E-05,26.163,0
1.7451,-1.174945E-05,26.1765,0,1.7451,-1.779202E-05,26.1765,0
1.746,-5.706874E-06,26.19,0,1.746,-3.289845E-05,26.19,0
1.7469,1.477073E-05,26.2035,0,1.7469,-5.404745E-05,26.2035,0
1.7478,3.021286E-05,26.217,0,1.7478,-1.040665E-05,26.217,0
1.7487,1.309224E-05,26.2305,0,1.7487,-1.174945E-05,26.2305,0
1.7496,1.376364E-05,26.244,0,1.7496,-5.001907E-05,26.244,0
1.7505,-4.699779E-06,26.2575,0,1.7505,-1.174945E-05,26.2575,0
1.7514,-1.510643E-05,26.271,0,1.7514,-1.275654E-05,26.271,0
1.7523,-9.735256E-06,26.2845,0,1.7523,-2.819867E-05,26.2845,0
1.7532,-2.24918E-05,26.298,0,1.7532,-2.383459E-05,26.298,0
1.7541,-4.666209E-05,26.3115,0,1.7541,9.735256E-06,26.3115,0
1.755,-1.879912E-05,26.325,0,1.755,1.309224E-05,26.325,0
1.7559,-1.107805E-05,26.3385,0,1.7559,-1.409934E-05,26.3385,0
1.7568,-3.356985E-07,26.352,0,1.7568,-2.853437E-05,26.352,0
1.7577,-3.692683E-05,26.3655,0,1.7577,-1.477073E-05,26.3655,0
1.7586,-3.558404E-05,26.379,0,1.7586,-3.692683E-05,26.379,0
1.7595,-6.64683E-05,26.3925,0,1.7595,-5.975433E-05,26.3925,0
1.7604,-3.793393E-05,26.406,0,1.7604,-4.229801E-05,26.406,0
1.7613,-4.800488E-05,26.4195,0,1.7613,2.349889E-06,26.4195,0
1.7622,-2.014191E-06,26.433,0,1.7622,1.678492E-06,26.433,0
1.7631,5.706874E-06,26.4465,0,1.7631,-3.256275E-05,26.4465,0
1.764,-2.719158E-05,26.46,0,1.764,6.378271E-06,26.46,0
1.7649,-3.256275E-05,26.4735,0,1.7649,-3.356985E-07,26.4735,0
1.7658,-7.586786E-05,26.487,0,1.7658,-4.061952E-05,26.487,0
1.7667,-5.539025E-05,26.5005,0,1.7667,-3.692683E-06,26.5005,0
1.7676,-3.356985E-06,26.514,0,1.7676,1.611353E-05,26.514,0
1.7685,-1.678492E-06,26.5275,0,1.7685,-2.014191E-06,26.5275,0
1.7694,1.712062E-05,26.541,0,1.7694,-1.812772E-05,26.541,0
1.7703,7.284657E-05,26.5545,0,1.7703,-2.316319E-05,26.5545,0
1.7712,6.881819E-05,26.568,0,1.7712,-3.021286E-06,26.568,0
1.7721,-8.728161E-06,26.5815,0,1.7721,-7.385367E-06,26.5815,0
1.773,-1.644922E-05,26.595,0,1.773,-2.819867E-05,26.595,0
1.7739,3.356985E-06,26.6085,0,1.7739,-4.599069E-05,26.6085,0
1.7748,-1.812772E-05,26.622,0,1.7748,1.208515E-05,26.622,0
1.7757,-1.309224E-05,26.6355,0,1.7757,-9.735256E-06,26.6355,0
1.7766,-1.376364E-05,26.649,0,1.7766,-0.0001037308,26.649,0
1.7775,-7.385367E-06,26.6625,0,1.7775,-5.539025E-05,26.6625,0
1.7784,2.383459E-05,26.676,0,1.7784,-6.713969E-07,26.676,0
1.7793,1.779202E-05,26.6895,0,1.7793,3.860533E-05,26.6895,0
1.7802,-2.719158E-05,26.703,0,1.7802,9.735256E-06,26.703,0
1.7811,-3.088426E-05,26.7165,0,1.7811,1.544213E-05,26.7165,0
1.782,-8.392462E-06,26.73,0,1.782,7.721065E-06,26.73,0
1.7829,-6.378271E-06,26.7435,0,1.7829,-7.385367E-06,26.7435,0
1.7838,-5.706874E-06,26.757,0,1.7838,-5.035477E-05,26.757,0
1.7847,2.349889E-06,26.7705,0,1.7847,-7.351797E-05,26.7705,0
1.7856,1.242084E-05,26.784,0,1.7856,-4.43122E-05,26.784,0
1.7865,-7.049668E-06,26.7975,0,1.7865,-3.189136E-05,26.7975,0
1.7874,-2.349889E-06,26.811,0,1.7874,-4.129091E-05,26.811,0
1.7883,-1.779202E-05,26.8245,0,1.7883,9.735256E-06,26.8245,0
1.7892,-2.652018E-05,26.838,0,1.7892,-3.356985E-06,26.838,0
1.7901,4.46479E-05,26.8515,0,1.7901,-4.129091E-05,26.8515,0
1.791,1.779202E-05,26.865,0,1.791,-1.678492E-06,26.865,0
1.7919,1.309224E-05,26.8785,0,1.7919,-1.174945E-05,26.8785,0
1.7928,3.356985E-07,26.892,0,1.7928,-5.404745E-05,26.892,0
1.7937,3.155566E-05,26.9055,0,1.7937,-1.409934E-05,26.9055,0
1.7946,-2.24918E-05,26.919,0,1.7946,1.712062E-05,26.919,0
1.7955,-2.954147E-05,26.9325,0,1.7955,-3.692683E-06,26.9325,0
1.7964,7.721065E-06,26.946,0,1.7964,-7.049668E-06,26.946,0
1.7973,6.64683E-05,26.9595,0,1.7973,-4.36408E-05,26.9595,0
1.7982,2.450599E-05,26.973,0,1.7982,-2.014191E-05,26.973,0
1.7991,-6.713969E-07,26.9865,0,1.7991,-4.699779E-06,26.9865,0
1.8,2.383459E-05,27,0,1.8,-2.652018E-05,27,0
1.8009,5.706874E-06,27.0135,0,1.8009,-4.49836E-05,27.0135,0
1.8018,-4.53193E-05,27.027,0,1.8018,-3.021286E-06,27.027,0
1.8027,-3.289845E-05,27.0405,0,1.8027,-2.349889E-06,27.0405,0
1.8036,9.399558E-06,27.054,0,1.8036,-4.599069E-05,27.054,0
1.8045,6.713969E-06,27.0675,0,1.8045,-7.049668E-06,27.0675,0
1.8054,1.712062E-05,27.081,0,1.8054,9.399558E-06,27.081,0
1.8063,-2.618448E-05,27.0945,0,1.8063,-2.047761E-05,27.0945,0
1.8072,2.349889E-06,27.108,0,1.8072,-1.007095E-06,27.108,0
1.8081,-3.659113E-05,27.1215,0,1.8081,5.471885E-05,27.1215,0
1.809,-5.471885E-05,27.135,0,1.809,5.706874E-06,27.135,0
1.8099,-3.927672E-05,27.1485,0,1.8099,-4.53193E-05,27.1485,0
1.8108,-1.107805E-05,27.162,0,1.8108,-7.888914E-05,27.162,0
1.8117,-2.685588E-06,27.1755,0,1.8117,-2.920577E-05,27.1755,0
1.8126,-4.901198E-05,27.189,0,1.8126,-5.706874E-06,27.189,0
1.8135,-4.867628E-05,27.2025,0,1.8135,-4.46479E-05,27.2025,0
1.8144,0,27.216,0,1.8144,-5.236896E-05,27.216,0
1.8153,1.577783E-05,27.2295,0,1.8153,2.349889E-06,27.2295,0
1.8162,5.035477E-06,27.243,0,1.8162,-1.208515E-05,27.243,0
1.8171,-7.721065E-06,27.2565,0,1.8171,-5.639734E-05,27.2565,0
1.818,-3.927672E-05,27.27,0,1.818,-1.074235E-05,27.27,0
1.8189,-6.713969E-07,27.2835,0,1.8189,-5.035477E-06,27.2835,0
1.8198,2.349889E-06,27.297,0,1.8198,-6.042573E-05,27.297,0
