X[s],"Trigno IM sensor 3: EMG 3 (IM)",X[s],"Trigno IM sensor 3: Mag 3.Z (IM)",X[s],"Trigno IM sensor 4: EMG 4 (IM)",X[s],"Trigno IM sensor 4: Mag 4.Z (IM)"
0.000000,4.599069E-05,0.000000,121,0.000000,-9.735256E-06,0.000000,-3
0.0009,6.411841E-05,0.0135,122,0.0009,1.174945E-05,0.0135,-1
0.0018,5.740444E-05,0.027,122,0.0018,4.39765E-05,0.027,-4
0.0027,3.994812E-05,0.0405,123,0.0027,1.712062E-05,0.0405,-2
0.0036,-6.881819E-05,0.054,122,0.0036,-9.735256E-06,0.054,-4
0.0045,-4.29694E-05,0.0675,122,0.0045,-2.719158E-05,0.0675,-1
0.0054,-3.927672E-05,0.081,121,0.0054,-5.539025E-05,0.081,0
0.0063,-4.36408E-06,0.0945,120,0.0063,-8.157473E-05,0.0945,-3
0.0072,5.471885E-05,0.108,121,0.0072,-7.888914E-05,0.108,0
0.0081,5.539025E-05,0.1215,123,0.0081,-9.030289E-05,0.1215,-4
0.009000001,3.356985E-07,0.135,121,0.009000001,-6.009003E-05,0.135,-3
0.0099,-2.349889E-05,0.1485,121,0.0099,-2.24918E-05,0.1485,-2
0.0108,-0.0001050736,0.162,122,0.0108,-6.713969E-06,0.162,-2
0.0117,-4.766919E-05,0.1755,122,0.0117,-4.699779E-06,0.1755,0
0.0126,-1.846342E-05,0.189,123,0.0126,-6.713969E-07,0.189,-2
0.0135,1.376364E-05,0.2025,123,0.0135,-7.721065E-06,0.2025,-2
0.0144,2.584878E-05,0.216,121,0.0144,2.752728E-05,0.216,-2
0.0153,3.457694E-05,0.2295,122,0.0153,9.600977E-05,0.2295,-3
0.0162,5.606165E-05,0.243,122,0.0162,0.0001114519,0.243,-5
0.0171,2.014191E-06,0.2565,122,0.0171,5.304036E-05,0.2565,-3
0.018,-3.021286E-05,0.27,123,0.018,1.107805E-05,0.27,-3
0.0189,-3.558404E-05,0.2835,120,0.0189,2.719158E-05,0.2835,-1
0.0198,-1.510643E-05,0.297,121,0.0198,8.056763E-06,0.297,0
0.0207,2.853437E-05,0.3105,122,0.0207,-1.443504E-05,0.3105,-1
0.0216,3.961242E-05,0.324,122,0.0216,-6.61326E-05,0.324,-1
0.0225,4.968337E-05,0.3375,122,0.0225,-8.392462E-05,0.3375,-4
0.0234,4.934768E-05,0.351,122,0.0234,-0.0001097734,0.351,-1
0.0243,1.980621E-05,0.3645,123,0.0243,-0.0002027619,0.3645,-1
0.0252,-8.96315E-05,0.378,122,0.0252,-0.0002450599,0.378,-2
0.0261,-0.0001701991,0.3915,123,0.0261,-0.0001688563,0.3915,-4
0.027,-2.047761E-05,0.405,122,0.027,-6.74754E-05,0.405,-3
0.0279,3.155566E-05,0.4185,123,0.0279,2.584878E-05,0.4185,-2
0.0288,4.39765E-05,0.432,123,0.0288,0.0001379721,0.432,-4
0.0297,7.620356E-05,0.4455,122,0.0297,0.0001319295,0.4455,-3
0.0306,6.076142E-05,0.459,122,0.0306,0.0001809415,0.459,-4
0.0315,1.712062E-05,0.4725,122,0.0315,0.0001319295,0.4725,-2
0.0324,-0.0001027237,0.486,122,0.0324,3.222705E-05,0.486,-2
0.0333,-0.000105745,0.4995,122,0.0333,2.1149E-05,0.4995,0
0.0342,-7.888914E-05,0.513,123,0.0342,-5.706874E-06,0.513,-2
0.0351,-0.0001329366,0.5265,121,0.0351,-5.572595E-05,0.5265,-5
0.036,-7.653925E-05,0.54,122,0.036,-3.860533E-05,0.54,-3
0.0369,-2.383459E-05,0.5535,123,0.0369,-6.009003E-05,0.5535,-5
0.0378,-8.392462E-06,0.567,123,0.0378,-0.000130251,0.567,-5
0.0387,-9.735256E-06,0.5805,122,0.0387,-9.097429E-05,0.5805,-4
0.0396,-1.678492E-05,0.594,122,0.0396,-1.477073E-05,0.594,-3
0.0405,-2.954147E-05,0.6075,121,0.0405,1.141375E-05,0.6075,-2
0.0414,-7.049668E-06,0.621,120,0.0414,-1.544213E-05,0.621,-2
0.0423,3.189136E-05,0.6345,120,0.0423,-6.814679E-05,0.6345,-5
0.0432,1.443504E-05,0.648,120,0.0432,-7.217517E-05,0.648,-7
0.0441,-7.049668E-06,0.6615,120,0.0441,-4.46479E-05,0.6615,-4
0.045,5.706874E-06,0.675,120,0.045,-6.478981E-05,0.675,-3
0.0459,1.980621E-05,0.6885,120,0.0459,-6.009003E-05,0.6885,-4
0.0468,7.251087E-05,0.702,120,0.0468,3.726253E-05,0.702,-4
0.0477,0.0001017166,0.7155,121,0.0477,5.505455E-05,0.7155,-3
0.0486,8.92958E-05,0.729,121,0.0486,-2.1149E-05,0.729,-4
0.0495,5.069047E-05,0.7425,121,0.0495,7.016098E-05,0.7425,-5
0.0504,0.0001178302,0.756,120,0.0504,6.344701E-05,0.756,-1
0.0513,0.0001433432,0.7695,122,0.0513,-1.309224E-05,0.7695,-7
0.0522,3.189136E-05,0.783,121,0.0522,-1.342794E-06,0.783,-3
0.0531,-9.097429E-05,0.7965,120,0.0531,2.21561E-05,0.7965,-6
0.054,-9.802396E-05,0.81,121,0.054,2.484169E-05,0.81,-1
0.0549,-0.0001386435,0.8235,122,0.0549,2.24918E-05,0.8235,-5
0.0558,-0.0001218585,0.837,121,0.0558,-3.424125E-05,0.837,-7
0.0567,5.337606E-05,0.8505,120,0.0567,-3.289845E-05,0.8505,-5
0.0576,0.0001537499,0.864,123,0.0576,-0.0001050736,0.864,-8
0.0585,0.0001654994,0.8775,121,0.0585,-0.0002024262,0.8775,-5
0.0594,-2.819867E-05,0.891,122,0.0594,-0.0002188754,0.891,-3
0.0603,-0.0001379721,0.9045,121,0.0603,-0.0001587854,0.9045,-2
0.0612,-0.000291722,0.918,120,0.0612,-7.150377E-05,0.918,-10
0.0621,-0.0003148852,0.9315,120,0.0621,8.728161E-06,0.9315,-3
0.063,-0.0001319295,0.945,121,0.063,0.0001430075,0.945,-3
0.0639,-5.740444E-05,0.9585,121,0.0639,0.0001634852,0.9585,-4
0.0648,-2.987716E-05,0.972,121,0.0648,8.82887E-05,0.972,-5
0.0657,-3.994812E-05,0.9855,120,0.0657,3.927672E-05,0.9855,-3
0.0666,-3.961242E-05,0.999,122,0.0666,4.666209E-05,0.999,-3
0.0675,-2.551309E-05,1.0125,120,0.0675,1.678492E-06,1.0125,-3
0.0684,-6.713969E-07,1.026,121,0.0684,-2.719158E-05,1.026,-3
0.0693,4.800488E-05,1.0395,122,0.0693,-3.524834E-05,1.0395,-1
0.0702,2.618448E-05,1.053,121,0.0702,-2.24918E-05,1.053,-3
0.0711,3.054856E-05,1.0665,121,0.0711,-2.014191E-05,1.0665,-5
0.072,3.256275E-05,1.08,120,0.072,-5.337606E-05,1.08,-7
0.0729,1.510643E-05,1.0935,119,0.0729,-5.941863E-05,1.0935,-6
0.07380001,1.577783E-05,1.107,120,0.07380001,-1.342794E-06,1.107,-4
0.07470001,3.289845E-05,1.1205,120,0.07470001,-1.510643E-05,1.1205,-4
0.0756,4.095522E-05,1.134,120,0.0756,-5.471885E-05,1.134,-7
0.0765,4.800488E-05,1.1475,120,0.0765,-1.644922E-05,1.1475,-3
0.0774,0.0001973907,1.161,119,0.0774,-7.049668E-06,1.161,-4
0.0783,0.0001641566,1.1745,120,0.0783,-4.33051E-05,1.1745,-3
0.0792,4.061952E-05,1.188,120,0.0792,-7.553216E-05,1.188,-2
0.0801,-1.913481E-05,1.2015,119,0.0801,-5.706874E-05,1.2015,-3
0.081,-4.49836E-05,1.215,119,0.081,-3.390555E-05,1.215,-4
0.0819,-0.0001467002,1.2285,121,0.0819,-3.054856E-05,1.2285,-4
0.0828,-0.0001114519,1.242,120,0.0828,-4.599069E-05,1.242,-5
0.0837,-1.644922E-05,1.2555,119,0.0837,-2.987716E-05,1.2555,-8
0.0846,-2.047761E-05,1.269,120,0.0846,-1.342794E-06,1.269,-5
0.0855,-2.584878E-05,1.2825,119,0.0855,-1.309224E-05,1.2825,-5
0.0864,7.049668E-06,1.296,120,0.0864,-3.155566E-05,1.296,-5
0.0873,-9.735256E-06,1.3095,121,0.0873,-1.510643E-05,1.3095,-3
0.0882,-9.063859E-06,1.323,120,0.0882,-3.121996E-05,1.323,-5
0.0891,8.358892E-05,1.3365,119,0.0891,-5.438316E-05,1.3365,-5
0.09,9.097429E-05,1.35,120,0.09,-2.719158E-05,1.35,-3
0.0909,9.365987E-05,1.3635,119,0.0909,-4.901198E-05,1.3635,-5
0.0918,0.0001044022,1.377,121,0.0918,-9.298848E-05,1.377,-3
0.0927,3.793393E-05,1.3905,120,0.0927,-8.224613E-05,1.3905,-4
0.0936,-7.150377E-05,1.404,120,0.0936,-4.934768E-05,1.404,-3
0.09450001,-5.035477E-05,1.4175,121,0.09450001,-2.551309E-05,1.4175,-2
0.09540001,-3.021286E-06,1.431,119,0.09540001,-6.378271E-06,1.431,-6
0.09630001,-2.1149E-05,1.4445,119,0.09630001,1.846342E-05,1.4445,-3
0.0972,-5.673304E-05,1.458,120,0.0972,3.021286E-06,1.458,-4
0.0981,-8.392462E-06,1.4715,120,0.0981,-3.088426E-05,1.4715,-3
0.099,5.270466E-05,1.485,120,0.099,-3.826963E-05,1.485,0
0.0999,-0.0001255512,1.4985,120,0.0999,-5.941863E-05,1.4985,-6
0.1008,-0.0001255512,1.512,120,0.1008,3.021286E-06,1.512,-2
0.1017,-7.821774E-05,1.5255,120,0.1017,7.150377E-05,1.5255,-4
0.1026,-7.956054E-05,1.539,119,0.1026,7.855344E-05,1.539,-4
0.1035,-0.0001070878,1.5525,121,0.1035,9.903105E-05,1.5525,-5
0.1044,-4.229801E-05,1.566,121,0.1044,6.915389E-05,1.566,-1
0.1053,6.6804E-05,1.5795,121,0.1053,5.035477E-06,1.5795,-4
0.1062,5.203327E-05,1.593,120,0.1062,1.309224E-05,1.593,-5
0.1071,3.289845E-05,1.6065,121,0.1071,3.457694E-05,1.6065,-4
0.108,3.356985E-06,1.62,119,0.108,1.107805E-05,1.62,-2
0.1089,-1.007095E-06,1.6335,119,0.1089,-2.349889E-06,1.6335,-8
0.1098,1.812772E-05,1.647,120,0.1098,-5.270466E-05,1.647,-4
0.1107,1.342794E-06,1.6605,118,0.1107,-9.030289E-05,1.6605,-4
0.1116,-5.069047E-05,1.674,119,0.1116,-0.0001299153,1.674,-1
0.1125,-7.049668E-05,1.6875,119,0.1125,-0.0001379721,1.6875,-3
0.1134,-8.996719E-05,1.701,119,0.1134,-0.0001040665,1.701,-3
0.1143,-3.390555E-05,1.7145,120,0.1143,1.443504E-05,1.7145,-4
0.1152,4.263371E-05,1.728,119,0.1152,8.761731E-05,1.728,-2
0.1161,1.812772E-05,1.7415,119,0.1161,8.157473E-05,1.7415,-3
0.117,-6.378271E-06,1.755,120,0.117,4.53193E-05,1.755,-3
0.1179,2.081331E-05,1.7685,118,0.1179,-3.189136E-05,1.7685,-4
0.1188,-1.342794E-06,1.782,119,0.1188,-0.0001366293,1.782,-3
0.1197,-2.584878E-05,1.7955,119,0.1197,-0.0001963836,1.7955,-2
0.1206,-1.644922E-05,1.809,120,0.1206,-0.0001802701,1.809,-2
0.1215,-1.443504E-05,1.8225,120,0.1215,-0.0001349508,1.8225,-1
0.1224,-6.713969E-06,1.836,120,0.1224,-8.191043E-05,1.836,-4
0.1233,2.517739E-05,1.8495,119,0.1233,2.1149E-05,1.8495,-4
0.1242,3.524834E-05,1.863,121,0.1242,0.0002326391,1.863,-3
0.1251,5.740444E-05,1.8765,120,0.1251,0.0002477455,1.8765,-3
0.126,3.088426E-05,1.89,119,0.126,0.0002084688,1.89,-3
0.1269,2.920577E-05,1.9035,121,0.1269,0.0001151446,1.9035,-3
0.1278,1.376364E-05,1.917,121,0.1278,5.807584E-05,1.917,0
0.1287,3.189136E-05,1.9305,120,0.1287,2.417029E-05,1.9305,-4
0.1296,6.74754E-05,1.944,120,0.1296,-2.819867E-05,1.944,-4
0.1305,6.814679E-05,1.9575,121,0.1305,-1.779202E-05,1.9575,-4
0.1314,1.745632E-05,1.971,120,0.1314,-3.961242E-05,1.971,-2
0.1323,-1.779202E-05,1.9845,120,0.1323,-6.74754E-05,1.9845,-5
0.1332,-8.392462E-06,1.998,119,0.1332,-2.047761E-05,1.998,-2
0.1341,-4.39765E-05,2.0115,120,0.1341,1.678492E-05,2.0115,-2
0.135,-5.404745E-05,2.025,120,0.135,2.719158E-05,2.025,-2
0.1359,5.035477E-06,2.0385,120,0.1359,-1.443504E-05,2.0385,-4
0.1368,-9.063859E-06,2.052,118,0.1368,-6.143282E-05,2.052,-2
0.1377,-5.270466E-05,2.0655,119,0.1377,-6.143282E-05,2.0655,-2
0.1386,-0.0001037308,2.079,119,0.1386,-5.539025E-05,2.079,-3
0.1395,-8.96315E-05,2.0925,119,0.1395,-8.96315E-05,2.0925,-4
0.1404,-2.24918E-05,2.106,119,0.1404,-0.0001007095,2.106,-5
0.1413,1.409934E-05,2.1195,119,0.1413,-1.779202E-05,2.1195,-3
0.1422,0,2.133,121,0.1422,-2.719158E-05,2.133,-4
0.1431,-3.558404E-05,2.1465,120,0.1431,-9.030289E-05,2.1465,-4
0.144,-7.049668E-06,2.16,120,0.144,-7.318227E-05,2.16,-4
0.1449,1.745632E-05,2.1735,120,0.1449,-7.150377E-05,2.1735,-5
0.1458,4.162661E-05,2.187,120,0.1458,-9.433127E-05,2.187,-2
0.1467,4.733349E-05,2.2005,120,0.1467,-0.0001054093,2.2005,-5
0.1476,3.826963E-05,2.214,120,0.1476,-4.599069E-05,2.214,-2
0.1485,-4.196231E-05,2.2275,120,0.1485,-9.399558E-06,2.2275,-3
0.1494,-7.217517E-05,2.241,119,0.1494,3.692683E-06,2.241,-5
0.1503,-2.517739E-05,2.2545,120,0.1503,-1.913481E-05,2.2545,-3
0.1512,5.035477E-06,2.268,120,0.1512,-2.1149E-05,2.268,-5
0.1521,0.0001305867,2.2815,120,0.1521,-9.063859E-06,2.2815,-4
0.153,0.0001591211,2.295,119,0.153,-5.203327E-05,2.295,-3
0.1539,0.0001134661,2.3085,120,0.1539,-8.72816E-05,2.3085,-4
0.1548,2.1149E-05,2.322,120,0.1548,-3.323415E-05,2.322,-5
0.1557,-2.316319E-05,2.3355,120,0.1557,-3.524834E-05,2.3355,-3
0.1566,-0.0001339437,2.349,121,0.1566,-5.035477E-05,2.349,-3
0.1575,-0.0001399863,2.3625,120,0.1575,1.242084E-05,2.3625,-4
0.1584,-1.174945E-05,2.376,121,0.1584,5.069047E-05,2.376,-3
0.1593,6.51255E-05,2.3895,121,0.1593,5.203327E-05,2.3895,-4
0.1602,1.376364E-05,2.403,121,0.1602,-4.36408E-06,2.403,-5
0.1611,-4.061952E-05,2.4165,120,0.1611,-1.779202E-05,2.4165,-3
0.162,-7.956054E-05,2.43,120,0.162,9.735256E-06,2.43,-5
0.1629,5.706874E-06,2.4435,120,0.1629,8.392462E-06,2.4435,-2
0.1638,0.0001070878,2.457,121,0.1638,-3.692683E-06,2.457,0
0.1647,5.001907E-05,2.4705,120,0.1647,2.349889E-06,2.4705,0
0.1656,-0.0001789273,2.484,120,0.1656,-2.1149E-05,2.484,-3
0.1665,-0.0002997787,2.4975,120,0.1665,-1.376364E-05,2.4975,-3
0.1674,-0.0002487526,2.511,120,0.1674,-5.035477E-05,2.511,-3
0.1683,-8.82887E-05,2.5245,122,0.1683,-3.927672E-05,2.5245,-1
0.1692,-3.054856E-05,2.538,121,0.1692,-5.874724E-05,2.538,-6
0.1701,-5.706874E-06,2.5515,121,0.1701,-0.000105745,2.5515,-4
0.171,9.735256E-06,2.565,120,0.171,-4.46479E-05,2.565,-1
0.1719,6.277562E-05,2.5785,122,0.1719,3.457694E-05,2.5785,-3
0.1728,0.0002064546,2.592,119,0.1728,-1.309224E-05,2.592,-3
0.1737,3.726253E-05,2.6055,121,0.1737,-9.332418E-05,2.6055,0
0.1746,-0.0001238727,2.619,121,0.1746,-7.586786E-05,2.619,-5
0.1755,-0.0001366293,2.6325,120,0.1755,-7.956054E-05,2.6325,-5
0.1764,-0.0001426719,2.646,122,0.1764,-6.948959E-05,2.646,-4
0.1773,-7.418937E-05,2.6595,120,0.1773,-1.779202E-05,2.6595,-3
0.1782,3.021286E-06,2.673,121,0.1782,0.0001044022,2.673,-4
0.1791,-1.678492E-06,2.6865,120,0.1791,0.0001997406,2.6865,-5
0.18,-7.721065E-06,2.7,122,0.18,0.0001037308,2.7,-5
0.1809,3.591974E-05,2.7135,121,0.1809,3.390555E-05,2.7135,0
0.1818,4.162661E-05,2.727,122,0.1818,5.304036E-05,2.727,-5
0.1827,2.584878E-05,2.7405,121,0.1827,1.376364E-05,2.7405,-7
0.1836,5.471885E-05,2.754,119,0.1836,-3.927672E-05,2.754,-3
0.1845,4.129091E-05,2.7675,120,0.1845,-1.510643E-05,2.7675,-2
0.1854,5.706874E-05,2.781,121,0.1854,-4.36408E-06,2.781,-3
0.1863,3.927672E-05,2.7945,120,0.1863,-2.081331E-05,2.7945,-3
0.1872,4.061952E-05,2.808,121,0.1872,-2.081331E-05,2.808,-4
0.1881,4.129091E-05,2.8215,120,0.1881,0,2.8215,-6
0.189,1.812772E-05,2.835,121,0.189,-3.256275E-05,2.835,-6
0.1899,2.484169E-05,2.8485,121,0.1899,-4.39765E-05,2.8485,-2
0.1908,4.599069E-05,2.862,120,0.1908,-4.196231E-05,2.862,-5
0.1917,1.812772E-05,2.8755,121,0.1917,-3.054856E-05,2.8755,-4
0.1926,3.692683E-06,2.889,120,0.1926,-3.155566E-05,2.889,-3
0.1935,1.712062E-05,2.9025,121,0.1935,-4.46479E-05,2.9025,-3
0.1944,1.644922E-05,2.916,121,0.1944,-9.735256E-05,2.916,-4
0.1953,-3.692683E-06,2.9295,122,0.1953,-7.956054E-05,2.9295,-3
0.1962,1.846342E-05,2.943,121,0.1962,-8.291753E-05,2.943,-2
0.1971,2.652018E-05,2.9565,120,0.1971,-9.735256E-05,2.9565,-1
0.198,1.275654E-05,2.97,120,0.198,-3.524834E-05,2.97,0
0.1989,-1.947051E-05,2.9835,121,0.1989,1.443504E-05,2.9835,-2
0.1998,7.385367E-06,2.997,121,0.1998,2.014191E-06,2.997,-1
0.2007,1.712062E-05,3.0105,121,0.2007,3.356985E-06,3.0105,-2
0.2016,-3.457694E-05,3.024,121,0.2016,-1.107805E-05,3.024,-2
0.2025,-4.565499E-05,3.0375,121,0.2025,-2.819867E-05,3.0375,-3
0.2034,-3.289845E-05,3.051,120,0.2034,-4.129091E-05,3.051,-8
0.2043,-7.049668E-06,3.0645,118,0.2043,-5.639734E-05,3.0645,-2
0.2052,6.042573E-06,3.078,120,0.2052,-1.846342E-05,3.078,-5
0.2061,2.685588E-06,3.0915,120,0.2061,4.43122E-05,3.0915,-5
0.207,1.443504E-05,3.105,0,0.207,1.107805E-05,3.105,0
0.2079,2.752728E-05,3.1185,0,0.2079,7.721065E-06,3.1185,0
0.2088,-3.424125E-05,3.132,0,0.2088,8.291753E-05,3.132,0
0.2097,-4.46479E-05,3.1455,0,0.2097,3.457694E-05,3.1455,0
0.2106,8.392462E-06,3.159,0,0.2106,-3.356985E-05,3.159,0
0.2115,-3.021286E-06,3.1725,0,0.2115,-4.36408E-05,3.1725,0
0.2124,-1.678492E-06,3.186,0,0.2124,-5.136187E-05,3.186,0
0.2133,1.577783E-05,3.1995,0,0.2133,-4.36408E-05,3.1995,0
0.2142,3.021286E-05,3.213,0,0.2142,-1.342794E-06,3.213,0
0.2151,-2.719158E-05,3.2265,0,0.2151,2.316319E-05,3.2265,0
0.216,-8.392462E-06,3.24,0,0.216,-9.063859E-06,3.24,0
0.2169,-1.141375E-05,3.2535,0,0.2169,-3.692683E-05,3.2535,0
0.2178,-7.956054E-05,3.267,0,0.2178,-5.706874E-05,3.267,0
0.2187,-2.417029E-05,3.2805,0,0.2187,-5.841154E-05,3.2805,0
0.2196,7.721065E-06,3.294,0,0.2196,-0.0001131304,3.294,0
0.2205,-4.46479E-05,3.3075,0,0.2205,-0.000207126,3.3075,0
0.2214,-3.524834E-05,3.321,0,0.2214,-0.0001960479,3.321,0
0.2223,-2.349889E-06,3.3345,0,0.2223,-6.109713E-05,3.3345,0
0.2232,-2.853437E-05,3.348,0,0.2232,1.007095E-06,3.348,0
0.2241,-1.174945E-05,3.3615,0,0.2241,8.291753E-05,3.3615,0
0.225,-2.047761E-05,3.375,0,0.225,0.0002131685,3.375,0
0.2259,-2.383459E-05,3.3885,0,0.2259,0.0001208515,3.3885,0
0.2268,-3.793393E-05,3.402,0,0.2268,-3.692683E-06,3.402,0
0.2277,-4.129091E-05,3.4155,0,0.2277,-3.121996E-05,3.4155,0
0.2286,-2.450599E-05,3.429,0,0.2286,-2.047761E-05,3.429,0
0.2295,-4.632639E-05,3.4425,0,0.2295,5.035477E-06,3.4425,0
0.2304,-2.920577E-05,3.456,0,0.2304,6.210422E-05,3.456,0
0.2313,2.752728E-05,3.4695,0,0.2313,8.358892E-05,3.4695,0
0.2322,-2.853437E-05,3.483,0,0.2322,7.049668E-05,3.483,0
0.2331,-1.980621E-05,3.4965,0,0.2331,9.063859E-06,3.4965,0
0.234,6.411841E-05,3.51,0,0.234,-6.814679E-05,3.51,0
0.2349,0.0001245441,3.5235,0,0.2349,-9.970245E-05,3.5235,0
0.2358,7.855344E-05,3.537,0,0.2358,-6.915389E-05,3.537,0
0.2367,3.726253E-05,3.5505,0,0.2367,-7.620356E-05,3.5505,0
0.2376,3.021286E-06,3.564,0,0.2376,-6.57969E-05,3.564,0
0.2385,-6.210422E-05,3.5775,0,0.2385,6.378271E-06,3.5775,0
0.2394,-6.74754E-05,3.591,0,0.2394,7.183947E-05,3.591,0
0.2403,-3.659113E-05,3.6045,0,0.2403,8.89601E-05,3.6045,0
0.2412,3.356985E-07,3.618,0,0.2412,0.000105745,3.618,0
0.2421,8.392462E-06,3.6315,0,0.2421,6.176852E-05,3.6315,0
0.243,1.779202E-05,3.645,0,0.243,-1.074235E-05,3.645,0
0.2439,1.309224E-05,3.6585,0,0.2439,-2.014191E-05,3.6585,0
0.2448,2.24918E-05,3.672,0,0.2448,-4.934768E-05,3.672,0
0.2457,3.054856E-05,3.6855,0,0.2457,-3.994812E-05,3.6855,0
0.2466,3.356985E-07,3.699,0,0.2466,-2.1149E-05,3.699,0
0.2475,-8.358892E-05,3.7125,0,0.2475,-6.243992E-05,3.7125,0
0.2484,-7.553216E-05,3.726,0,0.2484,-8.69459E-05,3.726,0
0.2493,-5.304036E-05,3.7395,0,0.2493,-6.411841E-05,3.7395,0
0.2502,-8.392462E-05,3.753,0,0.2502,-7.049668E-05,3.753,0
0.2511,-2.786297E-05,3.7665,0,0.2511,-0.0001037308,3.7665,0
0.252,-2.18204E-05,3.78,0,0.252,-6.6804E-05,3.78,0
0.2529,-4.061952E-05,3.7935,0,0.2529,-1.980621E-05,3.7935,0
0.2538,-4.36408E-06,3.807,0,0.2538,-6.478981E-05,3.807,0
0.2547,8.96315E-05,3.8205,0,0.2547,-7.016098E-05,3.8205,0
0.2556,0.0001540856,3.834,0,0.2556,-3.826963E-05,3.834,0
0.2565,0.0001957122,3.8475,0,0.2565,-4.901198E-05,3.8475,0
0.2574,0.0002047761,3.861,0,0.2574,-7.956054E-05,3.861,0
0.2583,0.0001178302,3.8745,0,0.2583,-6.210422E-05,3.8745,0
0.2592,-1.376364E-05,3.888,0,0.2592,-2.786297E-05,3.888,0
0.2601,-0.0002396887,3.9015,0,0.2601,1.443504E-05,3.9015,0
0.261,-0.0003336843,3.915,0,0.261,2.316319E-05,3.915,0
0.2619,-0.0001305867,3.9285,0,0.2619,4.263371E-05,3.9285,0
0.2628,-7.821774E-05,3.942,0,0.2628,6.54612E-05,3.942,0
0.2637,-0.0001352865,3.9555,0,0.2637,7.721065E-06,3.9555,0
0.2646,-0.0001084306,3.969,0,0.2646,-5.505455E-05,3.969,0
0.2655,-2.24918E-05,3.9825,0,0.2655,-1.980621E-05,3.9825,0
0.2664,6.143282E-05,3.996,0,0.2664,-6.378271E-06,3.996,0
0.2673,3.356985E-07,4.0095,0,0.2673,-7.486076E-05,4.0095,0
0.2682,-3.021286E-06,4.023,0,0.2682,-6.076142E-05,4.023,0
0.2691,1.577783E-05,4.0365,0,0.2691,-6.51255E-05,4.0365,0
0.27,-3.289845E-05,4.05,0,0.27,-0.0001366293,4.05,0
0.2709,-6.445411E-05,4.0635,0,0.2709,-0.0001517357,4.0635,0
0.2718,-3.894102E-05,4.077,0,0.2718,-0.000148043,4.077,0
0.2727,3.121996E-05,4.0905,0,0.2727,-8.69459E-05,4.0905,0
0.2736,5.035477E-05,4.104,0,0.2736,-9.063859E-06,4.104,0
0.2745,3.424125E-05,4.1175,0,0.2745,6.143282E-05,4.1175,0
0.2754,2.450599E-05,4.131,0,0.2754,0.0001534142,4.131,0
0.2763,-6.915389E-05,4.1445,0,0.2763,0.000112459,4.1445,0
0.2772,-0.000144686,4.158,0,0.2772,0.0001195087,4.158,0
0.2781,0.000112459,4.1715,0,0.2781,9.903105E-05,4.1715,0
0.279,9.970245E-05,4.185,0,0.279,6.143282E-05,4.185,0
0.2799,9.231708E-05,4.1985,0,0.2799,4.733349E-05,4.1985,0
0.2808,0.0002500954,4.212,0,0.2808,-2.014191E-06,4.212,0
0.2817,0.0002467384,4.2255,0,0.2817,-7.385367E-06,4.2255,0
0.2826,0.0001930266,4.239,0,0.2826,7.049668E-06,4.239,0
0.2835,0.0001409934,4.2525,0,0.2835,0,4.2525,0
0.2844,-2.618448E-05,4.266,0,0.2844,-1.779202E-05,4.266,0
0.2853,-0.0003702754,4.2795,0,0.2853,-4.095522E-05,4.2795,0
0.2862,-0.0004078737,4.293,0,0.2862,-3.524834E-05,4.293,0
0.2871,-0.0002413672,4.3065,0,0.2871,-4.263371E-05,4.3065,0
0.288,-0.0001164874,4.32,0,0.288,-7.116808E-05,4.32,0
0.2889,-3.994812E-05,4.3335,0,0.2889,-6.948959E-05,4.3335,0
0.2898,-2.28275E-05,4.347,0,0.2898,-2.853437E-05,4.347,0
0.2907,-3.054856E-05,4.3605,0,0.2907,-6.076142E-05,4.3605,0
0.2916,3.356985E-07,4.374,0,0.2916,-9.500267E-05,4.374,0
0.2925,1.544213E-05,4.3875,0,0.2925,-4.968337E-05,4.3875,0
0.2934,4.129091E-05,4.401,0,0.2934,-3.222705E-05,4.401,0
0.2943,3.759823E-05,4.4145,0,0.2943,-5.505455E-05,4.4145,0
0.2952,-7.721065E-06,4.428,0,0.2952,-3.726253E-05,4.428,0
0.2961,7.721065E-06,4.4415,0,0.2961,-2.450599E-05,4.4415,0
0.297,6.378271E-06,4.455,0,0.297,-2.719158E-05,4.455,0
0.2979,2.047761E-05,4.4685,0,0.2979,-1.644922E-05,4.4685,0
0.2988,5.505455E-05,4.482,0,0.2988,-3.994812E-05,4.482,0
0.2997,7.754635E-05,4.4955,0,0.2997,-4.263371E-05,4.4955,0
0.3006,9.567407E-05,4.509,0,0.3006,3.021286E-06,4.509,0
0.3015,8.89601E-05,4.5225,0,0.3015,1.309224E-05,4.5225,0
0.3024,3.793393E-05,4.536,0,0.3024,-1.544213E-05,4.536,0
0.3033,1.678492E-06,4.5495,0,0.3033,4.699779E-06,4.5495,0
0.3042,3.524834E-05,4.563,0,0.3042,2.551309E-05,4.563,0
0.3051,2.517739E-05,4.5765,0,0.3051,-2.1149E-05,4.5765,0
0.306,-4.632639E-05,4.59,0,0.306,-3.021286E-06,4.59,0
0.3069,-6.176852E-05,4.6035,0,0.3069,-3.021286E-06,4.6035,0
0.3078,-1.007095E-06,4.617,0,0.3078,-7.351797E-05,4.617,0
0.3087,2.517739E-05,4.6305,0,0.3087,-0.0001238727,4.6305,0
0.3096,-3.692683E-06,4.644,0,0.3096,-0.0001101091,4.644,0
0.3105,-7.049668E-06,4.6575,0,0.3105,-7.922484E-05,4.6575,0
0.3114,7.721065E-06,4.671,0,0.3114,-6.210422E-05,4.671,0
0.3123,-4.43122E-05,4.6845,0,0.3123,-7.049668E-05,4.6845,0
0.3132,-4.196231E-05,4.698,0,0.3132,-1.107805E-05,4.698,0
0.3141,-3.692683E-06,4.7115,0,0.3141,7.620356E-05,4.7115,0
0.315,3.088426E-05,4.725,0,0.315,9.365987E-05,4.725,0
0.3159,4.028382E-06,4.7385,0,0.3159,3.826963E-05,4.7385,0
0.3168,-5.572595E-05,4.752,0,0.3168,-8.392462E-06,4.752,0
0.3177,-2.652018E-05,4.7655,0,0.3177,-3.894102E-05,4.7655,0
0.3186,-1.208515E-05,4.779,0,0.3186,-8.89601E-05,4.779,0
0.3195,-1.779202E-05,4.7925,0,0.3195,-3.491264E-05,4.7925,0
0.3204,-7.385367E-06,4.806,0,0.3204,6.74754E-05,4.806,0
0.3213,-1.376364E-05,4.8195,0,0.3213,0.0001430075,4.8195,0
0.3222,-2.417029E-05,4.833,0,0.3222,0.0002682231,4.833,0
0.3231,-3.121996E-05,4.8465,0,0.3231,0.0001604639,4.8465,0
0.324,-9.063859E-06,4.86,0,0.324,4.53193E-05,4.86,0
0.3249,-4.699779E-06,4.8735,0,0.3249,1.174945E-05,4.8735,0
0.3258,-3.692683E-06,4.887,0,0.3258,-3.021286E-05,4.887,0
0.3267,-4.699779E-06,4.9005,0,0.3267,-2.887007E-05,4.9005,0
0.3276,1.846342E-05,4.914,0,0.3276,-2.383459E-05,4.914,0
0.3285,1.040665E-05,4.9275,0,0.3285,-5.270466E-05,4.9275,0
0.3294,2.014191E-06,4.941,0,0.3294,-8.761731E-05,4.941,0
0.3303,3.356985E-06,4.9545,0,0.3303,-3.961242E-05,4.9545,0
0.3312,3.021286E-06,4.968,0,0.3312,-5.572595E-05,4.968,0
0.3321,3.021286E-06,4.9815,0,0.3321,-7.721065E-05,4.9815,0
0.333,7.721065E-06,4.995,0,0.333,-2.450599E-05,4.995,0
0.3339,2.652018E-05,5.0085,0,0.3339,-1.577783E-05,5.0085,0
0.3348,6.277562E-05,5.022,0,0.3348,-8.358892E-05,5.022,0
0.3357,7.150377E-05,5.0355,0,0.3357,-0.0001185016,5.0355,0
0.3366,1.040665E-05,5.049,0,0.3366,-0.000136965,5.049,0
0.3375,-1.779202E-05,5.0625,0,0.3375,-0.0001332723,5.0625,0
0.3384,-3.726253E-05,5.076,0,0.3384,-0.000109102,5.076,0
0.3393,-5.169757E-05,5.0895,0,0.3393,-9.198138E-05,5.0895,0
0.3402,-7.016098E-05,5.103,0,0.3402,-2.484169E-05,5.103,0
0.3411,-0.0001131304,5.1165,0,0.3411,6.61326E-05,5.1165,0
0.342,-5.136187E-05,5.13,0,0.342,9.097429E-05,5.13,0
0.3429,2.1149E-05,5.1435,0,0.3429,2.1149E-05,5.1435,0
0.3438,-3.021286E-06,5.157,0,0.3438,1.174945E-05,5.157,0
0.3447,-3.356985E-06,5.1705,0,0.3447,6.713969E-07,5.1705,0
0.3456,-5.505455E-05,5.184,0,0.3456,-4.666209E-05,5.184,0
0.3465,-6.009003E-05,5.1975,0,0.3465,-2.014191E-06,5.1975,0
0.3474,3.692683E-06,5.211,0,0.3474,1.376364E-05,5.211,0
0.3483,-1.174945E-05,5.2245,0,0.3483,-2.24918E-05,5.2245,0
0.3492,-6.042573E-05,5.238,0,0.3492,-5.706874E-06,5.238,0
0.3501,-4.733349E-05,5.2515,0,0.3501,1.510643E-05,5.2515,0
0.351,6.713969E-06,5.265,0,0.351,1.309224E-05,5.265,0
0.3519,-8.392462E-06,5.2785,0,0.3519,-1.174945E-05,5.2785,0
0.3528,-3.457694E-05,5.292,0,0.3528,-3.524834E-05,5.292,0
0.3537,1.712062E-05,5.3055,0,0.3537,-2.652018E-05,5.3055,0
0.3546,7.049668E-06,5.319,0,0.3546,-1.980621E-05,5.319,0
0.3555,-7.721065E-06,5.3325,0,0.3555,-5.136187E-05,5.3325,0
0.3564,3.390555E-05,5.346,0,0.3564,-4.766919E-05,5.346,0
0.3573,1.812772E-05,5.3595,0,0.3573,-1.107805E-05,5.3595,0
0.3582,-1.644922E-05,5.373,0,0.3582,-1.913481E-05,5.373,0
0.3591,-4.36408E-06,5.3865,0,0.3591,-6.042573E-05,5.3865,0
0.36,-2.047761E-05,5.4,0,0.36,-2.652018E-05,5.4,0
0.3609,-2.18204E-05,5.4135,0,0.3609,-2.18204E-05,5.4135,0
0.3618,-3.021286E-06,5.427,0,0.3618,-4.867628E-05,5.427,0
0.3627,9.063859E-06,5.4405,0,0.3627,-4.129091E-05,5.4405,0
0.3636,-2.584878E-05,5.454,0,0.3636,-1.577783E-05,5.454,0
0.3645,1.007095E-06,5.4675,0,0.3645,-1.712062E-05,5.4675,0
0.3654,2.349889E-06,5.481,0,0.3654,-1.779202E-05,5.481,0
0.3663,-3.021286E-06,5.4945,0,0.3663,-3.256275E-05,5.4945,0
0.3672,2.920577E-05,5.508,0,0.3672,-1.611353E-05,5.508,0
0.3681,2.1149E-05,5.5215,0,0.3681,8.392462E-06,5.5215,0
0.369,4.196231E-05,5.535,0,0.369,-1.208515E-05,5.535,0
0.3699,9.701686E-05,5.5485,0,0.3699,-1.913481E-05,5.5485,0
0.3708,5.438316E-05,5.562,0,0.3708,-2.752728E-05,5.562,0
0.3717,4.53193E-05,5.5755,0,0.3717,-3.793393E-05,5.5755,0
0.3726,3.121996E-05,5.589,0,0.3726,-3.625543E-05,5.589,0
0.3735,-4.129091E-05,5.6025,0,0.3735,7.049668E-06,5.6025,0
0.3744,-8.358892E-05,5.616,0,0.3744,1.712062E-05,5.616,0
0.3753,-0.0001332723,5.6295,0,0.3753,-1.275654E-05,5.6295,0
0.3762,-0.0001329366,5.643,0,0.3762,5.706874E-06,5.643,0
0.3771,-0.0001094377,5.6565,0,0.3771,7.385367E-06,5.6565,0
0.378,-5.874724E-05,5.67,0,0.378,-1.678492E-06,5.67,0
0.3789,-3.860533E-05,5.6835,0,0.3789,-4.263371E-05,5.6835,0
0.3798,-3.289845E-05,5.697,0,0.3798,-6.210422E-05,5.697,0
0.3807,-3.088426E-05,5.7105,0,0.3807,-4.061952E-05,5.7105,0
0.3816,-9.063859E-06,5.724,0,0.3816,-2.24918E-05,5.724,0
0.3825,1.577783E-05,5.7375,0,0.3825,-1.846342E-05,5.7375,0
0.3834,2.24918E-05,5.751,0,0.3834,-8.728161E-06,5.751,0
0.3843,3.961242E-05,5.7645,0,0.3843,2.517739E-05,5.7645,0
0.3852,8.023193E-05,5.778,0,0.3852,4.36408E-06,5.778,0
0.3861,8.82887E-05,5.7915,0,0.3861,-5.136187E-05,5.7915,0
0.387,4.263371E-05,5.805,0,0.387,-1.107805E-05,5.805,0
0.3879,5.236896E-05,5.8185,0,0.3879,3.356985E-06,5.8185,0
0.3888,3.189136E-05,5.832,0,0.3888,-5.069047E-05,5.832,0
0.3897,1.577783E-05,5.8455,0,0.3897,-4.53193E-05,5.8455,0
0.3906,1.712062E-05,5.859,0,0.3906,-1.745632E-05,5.859,0
0.3915,1.141375E-05,5.8725,0,0.3915,-3.759823E-05,5.8725,0
0.3924,4.028382E-06,5.886,0,0.3924,-4.699779E-06,5.886,0
0.3933,1.678492E-06,5.8995,0,0.3933,-1.544213E-05,5.8995,0
0.3942,-8.392462E-06,5.913,0,0.3942,-2.1149E-05,5.913,0
0.3951,-1.107805E-05,5.9265,0,0.3951,-1.779202E-05,5.9265,0
0.396,-4.968337E-05,5.94,0,0.396,-4.666209E-05,5.94,0
0.3969,-6.411841E-05,5.9535,0,0.3969,-4.43122E-05,5.9535,0
0.3978,-8.023193E-05,5.967,0,0.3978,3.356985E-07,5.967,0
0.3987,-3.793393E-05,5.9805,0,0.3987,-1.208515E-05,5.9805,0
0.3996,3.256275E-05,5.994,0,0.3996,-5.035477E-05,5.994,0
0.4005,5.069047E-05,6.0075,0,0.4005,-7.049668E-06,6.0075,0
0.4014,5.069047E-05,6.021,0,0.4014,6.713969E-07,6.021,0
0.4023,3.323415E-05,6.0345,0,0.4023,-2.18204E-05,6.0345,0
0.4032,-2.014191E-06,6.048,0,0.4032,-2.047761E-05,6.048,0
0.4041,-2.887007E-05,6.0615,0,0.4041,2.081331E-05,6.0615,0
0.405,-6.61326E-05,6.075,0,0.405,5.035477E-06,6.075,0
0.4059,-4.43122E-05,6.0885,0,0.4059,-1.376364E-05,6.0885,0
0.4068,-3.289845E-05,6.102,0,0.4068,-4.229801E-05,6.102,0
0.4077,-3.558404E-05,6.1155,0,0.4077,-2.652018E-05,6.1155,0
0.4086,-1.309224E-05,6.129,0,0.4086,6.713969E-07,6.129,0
0.4095,-1.678492E-05,6.1425,0,0.4095,-1.242084E-05,6.1425,0
0.4104,-1.745632E-05,6.156,0,0.4104,-4.49836E-05,6.156,0
0.4113,-2.18204E-05,6.1695,0,0.4113,-7.049668E-06,6.1695,0
0.4122,-1.644922E-05,6.183,0,0.4122,-1.678492E-06,6.183,0
0.4131,-3.323415E-05,6.1965,0,0.4131,-4.632639E-05,6.1965,0
0.414,-8.728161E-06,6.21,0,0.414,3.323415E-05,6.21,0
0.4149,3.356985E-06,6.2235,0,0.4149,1.577783E-05,6.2235,0
0.4158,-3.524834E-05,6.237,0,0.4158,-5.203327E-05,6.237,0
0.4167,-1.309224E-05,6.2505,0,0.4167,-3.826963E-05,6.2505,0
0.4176,-3.021286E-06,6.264,0,0.4176,-2.987716E-05,6.264,0
0.4185,-2.24918E-05,6.2775,0,0.4185,-1.644922E-05,6.2775,0
0.4194,-2.652018E-05,6.291,0,0.4194,-4.028382E-06,6.291,0
0.4203,5.035477E-06,6.3045,0,0.4203,1.007095E-06,6.3045,0
0.4212,9.735256E-06,6.318,0,0.4212,2.1149E-05,6.318,0
0.4221,3.692683E-06,6.3315,0,0.4221,1.040665E-05,6.3315,0
0.423,1.577783E-05,6.345,0,0.423,-2.081331E-05,6.345,0
0.4239,-3.356985E-07,6.3585,0,0.4239,-4.196231E-05,6.3585,0
0.4248,-7.049668E-06,6.372,0,0.4248,-6.042573E-06,6.372,0
0.4257,3.524834E-05,6.3855,0,0.4257,5.035477E-06,6.3855,0
0.4266,4.53193E-05,6.399,0,0.4266,-3.256275E-05,6.399,0
0.4275,-1.174945E-05,6.4125,0,0.4275,-1.141375E-05,6.4125,0
0.4284,-1.913481E-05,6.426,0,0.4284,-2.987716E-05,6.426,0
0.4293,2.014191E-06,6.4395,0,0.4293,-7.888914E-05,6.4395,0
0.4302,-5.706874E-06,6.453,0,0.4302,-9.231708E-05,6.453,0
0.4311,1.409934E-05,6.4665,0,0.4311,-0.0001389792,6.4665,0
0.432,1.577783E-05,6.48,0,0.432,-0.0001708705,6.48,0
0.4329,7.721065E-06,6.4935,0,0.4329,-0.000148043,6.4935,0
0.4338,3.054856E-05,6.507,0,0.4338,-0.0001255512,6.507,0
0.4347,5.337606E-05,6.5205,0,0.4347,-5.706874E-06,6.5205,0
0.4356,-3.659113E-05,6.534,0,0.4356,0.0001188373,6.534,0
0.4365,-0.0001292439,6.5475,0,0.4365,0.0001628138,6.5475,0
0.4374,-7.586786E-05,6.561,0,0.4374,0.000197055,6.561,0
0.4383,-3.289845E-05,6.5745,0,0.4383,0.0001644923,6.5745,0
0.4392,-2.21561E-05,6.588,0,0.4392,7.217517E-05,6.588,0
0.4401,-1.242084E-05,6.6015,0,0.4401,-5.706874E-06,6.6015,0
0.441,-2.18204E-05,6.615,0,0.441,8.728161E-06,6.615,0
0.4419,-2.383459E-05,6.6285,0,0.4419,1.879912E-05,6.6285,0
0.4428,-3.121996E-05,6.642,0,0.4428,-1.712062E-05,6.642,0
0.4437,-4.766919E-05,6.6555,0,0.4437,-3.021286E-05,6.6555,0
0.4446,-6.814679E-05,6.669,0,0.4446,-1.544213E-05,6.669,0
0.4455,-1.141375E-05,6.6825,0,0.4455,-2.719158E-05,6.6825,0
0.4464,1.443504E-05,6.696,0,0.4464,-3.927672E-05,6.696,0
0.4473,-1.007095E-06,6.7095,0,0.4473,-5.505455E-05,6.7095,0
0.4482,7.721065E-06,6.723,0,0.4482,-2.719158E-05,6.723,0
0.4491,-7.721065E-06,6.7365,0,0.4491,5.035477E-06,6.7365,0
0.45,3.356985E-06,6.75,0,0.45,3.121996E-05,6.75,0
0.4509,2.517739E-05,6.7635,0,0.4509,-1.376364E-05,6.7635,0
0.4518,5.203327E-05,6.777,0,0.4518,-2.584878E-05,6.777,0
0.4527,7.486076E-05,6.7905,0,0.4527,-6.344701E-05,6.7905,0
0.4536,7.888914E-05,6.804,0,0.4536,-0.0001134661,6.804,0
0.4545,5.941863E-05,6.8175,0,0.4545,-3.793393E-05,6.8175,0
0.4554,7.016098E-05,6.831,0,0.4554,-2.081331E-05,6.831,0
0.4563,2.24918E-05,6.8445,0,0.4563,-7.150377E-05,6.8445,0
0.4572,2.1149E-05,6.858,0,0.4572,-5.069047E-05,6.858,0
0.4581,1.443504E-05,6.8715,0,0.4581,-2.28275E-05,6.8715,0
0.459,-1.510643E-05,6.885,0,0.459,-3.894102E-05,6.885,0
0.4599,-9.433127E-05,6.8985,0,0.4599,-3.894102E-05,6.8985,0
0.4608,-0.0001577783,6.912,0,0.4608,-5.774014E-05,6.912,0
0.4617,-4.733349E-05,6.9255,0,0.4617,-3.524834E-05,6.9255,0
0.4626,-3.692683E-05,6.939,0,0.4626,-1.812772E-05,6.939,0
0.4635,-1.846342E-05,6.9525,0,0.4635,-3.121996E-05,6.9525,0
0.4644,-1.107805E-05,6.966,0,0.4644,-3.121996E-05,6.966,0
0.4653,-3.256275E-05,6.9795,0,0.4653,9.399558E-06,6.9795,0
0.4662,-1.510643E-05,6.993,0,0.4662,0,6.993,0
0.4671,4.028382E-06,7.0065,0,0.4671,-5.404745E-05,7.0065,0
0.468,-2.719158E-05,7.02,0,0.468,-1.644922E-05,7.02,0
0.4689,-3.692683E-05,7.0335,0,0.4689,-3.457694E-05,7.0335,0
0.4698,-1.846342E-05,7.047,0,0.4698,-6.881819E-05,7.047,0
0.4707,1.208515E-05,7.0605,0,0.4707,-1.644922E-05,7.0605,0
0.4716,3.860533E-05,7.074,0,0.4716,1.779202E-05,7.074,0
0.4725,-5.706874E-06,7.0875,0,0.4725,-7.687495E-05,7.0875,0
0.4734,5.035477E-06,7.101,0,0.4734,-5.941863E-05,7.101,0
0.4743,3.826963E-05,7.1145,0,0.4743,-4.028382E-05,7.1145,0
0.4752,2.1149E-05,7.128,0,0.4752,-4.33051E-05,7.128,0
0.4761,-7.049668E-06,7.1415,0,0.4761,1.040665E-05,7.1415,0
0.477,-1.107805E-05,7.155,0,0.477,1.745632E-05,7.155,0
0.4779,3.021286E-05,7.1685,0,0.4779,-1.678492E-06,7.1685,0
0.4788,4.599069E-05,7.182,0,0.4788,6.713969E-06,7.182,0
0.4797,8.392462E-06,7.1955,0,0.4797,-1.040665E-05,7.1955,0
0.4806,1.779202E-05,7.209,0,0.4806,-4.632639E-05,7.209,0
0.4815,1.577783E-05,7.2225,0,0.4815,-9.063859E-06,7.2225,0
0.4824,2.349889E-06,7.236,0,0.4824,-1.309224E-05,7.236,0
0.4833,-9.063859E-06,7.2495,0,0.4833,-2.987716E-05,7.2495,0
0.4842,-5.035477E-06,7.263,0,0.4842,-2.1149E-05,7.263,0
0.4851,-3.457694E-05,7.2765,0,0.4851,-6.713969E-06,7.2765,0
0.486,-4.901198E-05,7.29,0,0.486,-9.063859E-06,7.29,0
0.4869,-5.941863E-05,7.3035,0,0.4869,-4.229801E-05,7.3035,0
0.4878,-3.591974E-05,7.317,0,0.4878,-6.74754E-05,7.317,0
0.4887,-6.378271E-06,7.3305,0,0.4887,-4.229801E-05,7.3305,0
0.4896,6.042573E-06,7.344,0,0.4896,-2.349889E-05,7.344,0
0.4905,3.457694E-05,7.3575,0,0.4905,-1.040665E-05,7.3575,0
0.4914,-1.745632E-05,7.371,0,0.4914,-6.378271E-06,7.371,0
0.4923,-9.265278E-05,7.3845,0,0.4923,4.129091E-05,7.3845,0
0.4932,-7.083238E-05,7.398,0,0.4932,6.78111E-05,7.398,0
0.4941,-3.256275E-05,7.4115,0,0.4941,-2.047761E-05,7.4115,0
0.495,-1.779202E-05,7.425,0,0.495,-3.155566E-05,7.425,0
0.4959,-1.544213E-05,7.4385,0,0.4959,-7.049668E-06,7.4385,0
0.4968,-2.752728E-05,7.452,0,0.4968,-2.450599E-05,7.452,0
0.4977,-5.438316E-05,7.4655,0,0.4977,2.014191E-06,7.4655,0
0.4986,-4.53193E-05,7.479,0,0.4986,1.779202E-05,7.479,0
0.4995,-1.678492E-06,7.4925,0,0.4995,6.61326E-05,7.4925,0
0.5004,1.275654E-05,7.506,0,0.5004,6.277562E-05,7.506,0
0.5013,1.745632E-05,7.5195,0,0.5013,2.719158E-05,7.5195,0
0.5022,1.913481E-05,7.533,0,0.5022,3.860533E-05,7.533,0
0.5031,-2.786297E-05,7.5465,0,0.5031,1.812772E-05,7.5465,0
0.504,-2.450599E-05,7.56,0,0.504,-2.450599E-05,7.56,0
0.5049,3.659113E-05,7.5735,0,0.5049,-4.46479E-05,7.5735,0
0.5058,8.426032E-05,7.587,0,0.5058,-8.526741E-05,7.587,0
0.5067,0.0001037308,7.6005,0,0.5067,-8.459602E-05,7.6005,0
0.5076,0.0001121233,7.614,0,0.5076,-0.000109102,7.614,0
0.5085,3.927672E-05,7.6275,0,0.5085,-5.941863E-05,7.6275,0
0.5094,2.316319E-05,7.641,0,0.5094,-2.18204E-05,7.641,0
0.5103,4.699779E-05,7.6545,0,0.5103,-4.766919E-05,7.6545,0
0.5112,2.618448E-05,7.668,0,0.5112,-8.191043E-05,7.668,0
0.5121,-2.18204E-05,7.6815,0,0.5121,-4.599069E-05,7.6815,0
0.513,-4.129091E-05,7.695,0,0.513,-5.270466E-05,7.695,0
0.5139,-3.927672E-05,7.7085,0,0.5139,-5.639734E-05,7.7085,0
0.5148,-1.879912E-05,7.722,0,0.5148,-5.740444E-05,7.722,0
0.5157,-1.510643E-05,7.7355,0,0.5157,-2.685588E-05,7.7355,0
0.5166,-4.36408E-06,7.749,0,0.5166,2.853437E-05,7.749,0
0.5175,5.706874E-06,7.7625,0,0.5175,4.36408E-06,7.7625,0
0.5184,1.040665E-05,7.776,0,0.5184,-4.36408E-05,7.776,0
0.5193,-1.443504E-05,7.7895,0,0.5193,-9.399558E-06,7.7895,0
0.5202,-3.793393E-05,7.803,0,0.5202,3.356985E-06,7.803,0
0.5211,1.040665E-05,7.8165,0,0.5211,-1.745632E-05,7.8165,0
0.522,9.399558E-06,7.83,0,0.522,1.712062E-05,7.83,0
0.5229,-4.196231E-05,7.8435,0,0.5229,1.376364E-05,7.8435,0
0.5238,-4.565499E-05,7.857,0,0.5238,-4.061952E-05,7.857,0
0.5247,-4.53193E-05,7.8705,0,0.5247,-6.411841E-05,7.8705,0
0.5256,-3.726253E-05,7.884,0,0.5256,-3.793393E-05,7.884,0
0.5265,-3.793393E-05,7.8975,0,0.5265,-2.18204E-05,7.8975,0
0.5274,-2.21561E-05,7.911,0,0.5274,-1.712062E-05,7.911,0
0.5283,-1.644922E-05,7.9245,0,0.5283,-6.713969E-07,7.9245,0
0.5292,-4.33051E-05,7.938,0,0.5292,1.510643E-05,7.938,0
0.5301,-6.243992E-05,7.9515,0,0.5301,2.887007E-05,7.9515,0
0.531,-7.049668E-06,7.965,0,0.531,-3.356985E-07,7.965,0
0.5319,2.349889E-06,7.9785,0,0.5319,-3.860533E-05,7.9785,0
0.5328,-7.721065E-06,7.992,0,0.5328,-1.510643E-05,7.992,0
0.5337,2.551309E-05,8.0055,0,0.5337,-3.994812E-05,8.0055,0
0.5346,1.712062E-05,8.019,0,0.5346,-7.754635E-05,8.019,0
0.5355,8.728161E-06,8.0325,0,0.5355,1.443504E-05,8.0325,0
0.5364,3.524834E-05,8.046,0,0.5364,6.411841E-05,8.046,0
0.5373,1.712062E-05,8.0595,0,0.5373,4.800488E-05,8.0595,0
0.5382,-1.275654E-05,8.073,0,0.5382,5.706874E-06,8.073,0
0.5391,-3.054856E-05,8.0865,0,0.5391,-9.063859E-06,8.0865,0
0.54,-3.256275E-05,8.1,0,0.54,-4.699779E-06,8.1,0
0.5409,-5.304036E-05,8.1135,0,0.5409,3.356985E-07,8.1135,0
0.5418,-4.733349E-05,8.127,0,0.5418,-1.712062E-05,8.127,0
0.5427,-4.867628E-05,8.1405,0,0.5427,-3.021286E-06,8.1405,0
0.5436,-8.96315E-05,8.154,0,0.5436,-1.074235E-05,8.154,0
0.5445,-5.270466E-05,8.1675,0,0.5445,-5.740444E-05,8.1675,0
0.5454,-3.659113E-05,8.181,0,0.5454,-8.023193E-05,8.181,0
0.5463,-4.36408E-05,8.1945,0,0.5463,-5.807584E-05,8.1945,0
0.5472,1.275654E-05,8.208,0,0.5472,-5.606165E-05,8.208,0
0.5481,8.090334E-05,8.2215,0,0.5481,-4.196231E-05,8.2215,0
0.549,3.591974E-05,8.235,0,0.549,1.007095E-05,8.235,0
0.5499,6.478981E-05,8.2485,0,0.5499,4.934768E-05,8.2485,0
0.5508,3.726253E-05,8.262,0,0.5508,6.378271E-06,8.262,0
0.5517,3.289845E-05,8.2755,0,0.5517,5.035477E-06,8.2755,0
0.5526,4.129091E-05,8.289,0,0.5526,4.599069E-05,8.289,0
0.5535,2.484169E-05,8.3025,0,0.5535,4.028382E-06,8.3025,0
0.5544,-9.399558E-06,8.316,0,0.5544,-5.404745E-05,8.316,0
0.5553,3.356985E-07,8.3295,0,0.5553,-5.740444E-05,8.3295,0
0.5562,-1.443504E-05,8.343,0,0.5562,-2.484169E-05,8.343,0
0.5571,-6.042573E-06,8.3565,0,0.5571,-2.316319E-05,8.3565,0
0.558,-2.652018E-05,8.37,0,0.558,-4.934768E-05,8.37,0
0.5589,-2.081331E-05,8.3835,0,0.5589,-4.800488E-05,8.3835,0
0.5598,-2.24918E-05,8.397,0,0.5598,-1.947051E-05,8.397,0
0.5607,-2.618448E-05,8.4105,0,0.5607,-2.786297E-05,8.4105,0
0.5616,-1.007095E-05,8.424,0,0.5616,-2.987716E-05,8.424,0
0.5625,0,8.4375,0,0.5625,1.040665E-05,8.4375,0
0.5634,-1.275654E-05,8.451,0,0.5634,-1.712062E-05,8.451,0
0.5643,1.007095E-06,8.4645,0,0.5643,-2.752728E-05,8.4645,0
0.5652,-2.349889E-06,8.478,0,0.5652,-3.692683E-06,8.478,0
0.5661,-2.652018E-05,8.4915,0,0.5661,-6.042573E-06,8.4915,0
0.567,-4.766919E-05,8.505,0,0.567,-1.242084E-05,8.505,0
0.5679,-4.43122E-05,8.5185,0,0.5679,-1.544213E-05,8.5185,0
0.5688,-1.275654E-05,8.532,0,0.5688,-3.726253E-05,8.532,0
0.5697,-3.189136E-05,8.5455,0,0.5697,-7.721065E-06,8.5455,0
0.5706,-6.64683E-05,8.559,0,0.5706,9.063859E-06,8.559,0
0.5715,-3.692683E-06,8.5725,0,0.5715,-5.136187E-05,8.5725,0
0.5724,4.36408E-05,8.586,0,0.5724,-6.042573E-05,8.586,0
0.5733,-4.699779E-06,8.5995,0,0.5733,3.356985E-07,8.5995,0
0.5742,4.36408E-06,8.613,0,0.5742,-1.242084E-05,8.613,0
0.5751,1.376364E-05,8.6265,0,0.5751,-6.71397E-05,8.6265,0
0.576,6.143282E-05,8.64,0,0.576,1.712062E-05,8.64,0
0.5769,0.0001201801,8.6535,0,0.5769,2.719158E-05,8.6535,0
0.5778,7.284657E-05,8.667,0,0.5778,-5.404745E-05,8.667,0
0.5787,-2.1149E-05,8.6805,0,0.5787,-3.088426E-05,8.6805,0
0.5796,-3.457694E-05,8.694,0,0.5796,1.678492E-05,8.694,0
0.5805,-4.129091E-05,8.7075,0,0.5805,-6.713969E-07,8.7075,0
0.5814,-5.471885E-05,8.721,0,0.5814,-1.712062E-05,8.721,0
0.5823,-3.793393E-05,8.7345,0,0.5823,-1.947051E-05,8.7345,0
0.5832,-6.243992E-05,8.748,0,0.5832,-2.14847E-05,8.748,0
0.5841,-8.090334E-05,8.7615,0,0.5841,-2.819867E-05,8.7615,0
0.585,-6.076142E-05,8.775,0,0.585,-3.961242E-05,8.775,0
0.5859,1.007095E-06,8.7885,0,0.5859,-4.196231E-05,8.7885,0
0.5868,5.035477E-06,8.802,0,0.5868,1.712062E-05,8.802,0
0.5877,-3.692683E-06,8.8155,0,0.5877,2.21561E-05,8.8155,0
0.5886,2.484169E-05,8.829,0,0.5886,-1.510643E-05,8.829,0
0.5895,2.1149E-05,8.8425,0,0.5895,1.174945E-05,8.8425,0
0.5904,-3.356985E-07,8.856,0,0.5904,-1.007095E-06,8.856,0
0.5913,5.706874E-06,8.8695,0,0.5913,-4.162661E-05,8.8695,0
0.5922,1.309224E-05,8.883,0,0.5922,-2.987716E-05,8.883,0
0.5931,-5.136187E-05,8.8965,0,0.5931,-2.853437E-05,8.8965,0
0.594,-4.666209E-05,8.91,0,0.594,-4.229801E-05,8.91,0
0.5949,-1.947051E-05,8.9235,0,0.5949,-4.632639E-05,8.9235,0
0.5958,-2.349889E-05,8.937,0,0.5958,-6.51255E-05,8.937,0
0.5967,-6.378271E-06,8.9505,0,0.5967,-6.076142E-05,8.9505,0
0.5976,-1.174945E-05,8.964,0,0.5976,-6.210422E-05,8.964,0
0.5985,-1.980621E-05,8.9775,0,0.5985,-8.96315E-05,8.9775,0
0.5994,-3.726253E-05,8.991,0,0.5994,-9.970245E-05,8.991,0
0.6003,-2.618448E-05,9.0045,0,0.6003,-3.860533E-05,9.0045,0
0.6012,1.007095E-06,9.018,0,0.6012,3.692683E-06,9.018,0
0.6021,1.913481E-05,9.0315,0,0.6021,0,9.0315,0
0.603,1.846342E-05,9.045,0,0.603,5.001907E-05,9.045,0
0.6039,6.411841E-05,9.0585,0,0.6039,4.36408E-05,9.0585,0
0.6048,4.632639E-05,9.072001,0,0.6048,1.779202E-05,9.072001,0
0.6057,-1.242084E-05,9.0855,0,0.6057,5.740444E-05,9.0855,0
0.6066,-1.007095E-05,9.099,0,0.6066,4.800488E-05,9.099,0
0.6075,-7.385367E-06,9.1125,0,0.6075,1.107805E-05,9.1125,0
0.6084,-9.063859E-06,9.126,0,0.6084,1.007095E-06,9.126,0
0.6093,1.007095E-06,9.1395,0,0.6093,-1.309224E-05,9.1395,0
0.6102,-1.174945E-05,9.153,0,0.6102,-1.779202E-05,9.153,0
0.6111,-3.356985E-07,9.1665,0,0.6111,-1.913481E-05,9.1665,0
0.612,1.879912E-05,9.18,0,0.612,-2.417029E-05,9.18,0
0.6129,9.735256E-06,9.1935,0,0.6129,-3.189136E-05,9.1935,0
0.6138,-5.001907E-05,9.207,0,0.6138,-2.24918E-05,9.207,0
0.6147,-1.443504E-05,9.2205,0,0.6147,-1.275654E-05,9.2205,0
0.6156,8.728161E-06,9.234,0,0.6156,-4.766919E-05,9.234,0
0.6165,-4.36408E-06,9.2475,0,0.6165,-1.577783E-05,9.2475,0
0.6174,-4.699779E-06,9.261,0,0.6174,-7.049668E-06,9.261,0
0.6183,1.947051E-05,9.2745,0,0.6183,-4.934768E-05,9.2745,0
0.6192,-2.920577E-05,9.288,0,0.6192,-5.270466E-05,9.288,0
0.6201,-2.349889E-06,9.3015,0,0.6201,-2.551309E-05,9.3015,0
0.621,2.450599E-05,9.315,0,0.621,3.021286E-06,9.315,0
0.6219,-1.342794E-06,9.3285,0,0.6219,3.121996E-05,9.3285,0
0.6228,-2.24918E-05,9.342,0,0.6228,5.035477E-06,9.342,0
0.6237,-8.392462E-06,9.3555,0,0.6237,-1.678492E-06,9.3555,0
0.6246,-1.040665E-05,9.369,0,0.6246,7.721065E-06,9.369,0
0.6255,-1.644922E-05,9.3825,0,0.6255,-0.0001185016,9.3825,0
0.6264,1.611353E-05,9.396,0,0.6264,-0.000189334,9.396,0
0.6273,-1.007095E-05,9.4095,0,0.6273,-7.620356E-05,9.4095,0
0.6282,-2.24918E-05,9.423,0,0.6282,9.063859E-06,9.423,0
0.6291,2.786297E-05,9.4365,0,0.6291,2.24918E-05,9.4365,0
0.63,-7.385367E-06,9.45,0,0.63,2.819867E-05,9.45,0
0.6309,-2.28275E-05,9.4635,0,0.6309,-1.107805E-05,9.4635,0
0.6318,2.1149E-05,9.477,0,0.6318,-6.881819E-05,9.477,0
0.6327,4.229801E-05,9.4905,0,0.6327,-7.284657E-05,9.4905,0
0.6336,3.021286E-06,9.504,0,0.6336,-7.956054E-05,9.504,0
0.6345,-3.994812E-05,9.5175,0,0.6345,-0.0001295796,9.5175,0
0.6354,-2.887007E-05,9.531,0,0.6354,-0.0001399863,9.531,0
0.6363,-8.392462E-06,9.5445,0,0.6363,-0.0001356222,9.5445,0
0.6372,-6.6804E-05,9.558,0,0.6372,-0.0001077592,9.558,0
0.6381,-9.265278E-05,9.5715,0,0.6381,-6.378271E-05,9.5715,0
0.639,-4.934768E-05,9.585,0,0.639,-1.678492E-06,9.585,0
0.6399,-3.424125E-05,9.5985,0,0.6399,7.217517E-05,9.5985,0
0.6408,-2.685588E-06,9.612,0,0.6408,0.0001839628,9.612,0
0.6417,3.189136E-05,9.6255,0,0.6417,0.0002118257,9.6255,0
0.6426,3.558404E-05,9.639,0,0.6426,0.0001205158,9.639,0
0.6435,-1.644922E-05,9.6525,0,0.6435,8.526741E-05,9.6525,0
0.6444,-4.901198E-05,9.666,0,0.6444,5.572595E-05,9.666,0
0.6453,-2.18204E-05,9.6795,0,0.6453,2.349889E-06,9.6795,0
0.6462,-2.853437E-05,9.693,0,0.6462,1.007095E-05,9.693,0
0.6471,-2.24918E-05,9.7065,0,0.6471,2.21561E-05,9.7065,0
0.648,-7.385367E-06,9.72,0,0.648,1.040665E-05,9.72,0
0.6489,9.735256E-06,9.7335,0,0.6489,1.309224E-05,9.7335,0
0.6498,1.779202E-05,9.747,0,0.6498,-2.316319E-05,9.747,0
0.6507,6.042573E-06,9.7605,0,0.6507,-4.632639E-05,9.7605,0
0.6516,1.544213E-05,9.774,0,0.6516,-6.243992E-05,9.774,0
0.6525,3.659113E-05,9.7875,0,0.6525,-8.761731E-05,9.7875,0
0.6534,4.129091E-05,9.801,0,0.6534,-8.69459E-05,9.801,0
0.6543,4.53193E-05,9.8145,0,0.6543,-5.404745E-05,9.8145,0
0.6552,2.081331E-05,9.828,0,0.6552,-6.344701E-05,9.828,0
0.6561,1.644922E-05,9.8415,0,0.6561,-6.076142E-05,9.8415,0
0.657,1.510643E-05,9.855,0,0.657,1.242084E-05,9.855,0
0.6579,5.203327E-05,9.8685,0,0.6579,9.097429E-05,9.8685,0
0.6588,-1.040665E-05,9.882,0,0.6588,1.007095E-05,9.882,0
0.6597,-0.0001366293,9.8955,0,0.6597,-3.256275E-05,9.8955,0
0.6606,-0.0001242084,9.909,0,0.6606,2.349889E-06,9.909,0
0.6615,-5.404745E-05,9.9225,0,0.6615,-2.18204E-05,9.9225,0
0.6624,-3.558404E-05,9.936,0,0.6624,-7.721065E-06,9.936,0
0.6633,-8.526741E-05,9.9495,0,0.6633,-8.392462E-06,9.9495,0
0.6642,-6.009003E-05,9.963,0,0.6642,-3.692683E-06,9.963,0
0.6651,-3.390555E-05,9.976501,0,0.6651,2.21561E-05,9.976501,0
0.666,-6.042573E-05,9.99,0,0.666,0,9.99,0
0.6669,-2.786297E-05,10.0035,0,0.6669,-3.759823E-05,10.0035,0
0.6678,1.040665E-05,10.017,0,0.6678,-2.081331E-05,10.017,0
0.6687,5.706874E-06,10.0305,0,0.6687,-6.478981E-05,10.0305,0
0.6696,2.652018E-05,10.044,0,0.6696,-8.72816E-05,10.044,0
0.6705,6.143282E-05,10.0575,0,0.6705,-2.786297E-05,10.0575,0
0.6714,0.0001406577,10.071,0,0.6714,-1.980621E-05,10.071,0
0.6723,0.0001953765,10.0845,0,0.6723,-4.934768E-05,10.0845,0
0.6732,0.0001406577,10.098,0,0.6732,-2.920577E-05,10.098,0
0.6741,6.009003E-05,10.1115,0,0.6741,-1.846342E-05,10.1115,0
0.675,2.652018E-05,10.125,0,0.675,-3.524834E-05,10.125,0
0.6759,4.36408E-06,10.1385,0,0.6759,-3.860533E-05,10.1385,0
0.6768,-3.927672E-05,10.152,0,0.6768,-8.157473E-05,10.152,0
0.6777,-5.001907E-05,10.1655,0,0.6777,-7.016098E-05,10.1655,0
0.6786,-0.0001077592,10.179,0,0.6786,-7.586786E-05,10.179,0
0.6795,-7.922484E-05,10.1925,0,0.6795,-7.754635E-05,10.1925,0
0.6804,-7.385367E-05,10.206,0,0.6804,-1.007095E-05,10.206,0
0.6813,-7.888914E-05,10.2195,0,0.6813,4.800488E-05,10.2195,0
0.6822,1.611353E-05,10.233,0,0.6822,3.759823E-05,10.233,0
0.6831,2.987716E-05,10.2465,0,0.6831,-2.047761E-05,10.2465,0
0.684,-7.049668E-06,10.26,0,0.684,9.735256E-06,10.26,0
0.6849,1.007095E-06,10.2735,0,0.6849,2.987716E-05,10.2735,0
0.6858,4.36408E-06,10.287,0,0.6858,-1.107805E-05,10.287,0
0.6867,3.356985E-07,10.3005,0,0.6867,8.056763E-06,10.3005,0
0.6876,-2.987716E-05,10.314,0,0.6876,1.611353E-05,10.314,0
0.6885,-3.591974E-05,10.3275,0,0.6885,4.36408E-06,10.3275,0
0.6894,-1.678492E-06,10.341,0,0.6894,1.443504E-05,10.341,0
0.6903,-1.275654E-05,10.3545,0,0.6903,-1.879912E-05,10.3545,0
0.6912,3.692683E-06,10.368,0,0.6912,-2.1149E-05,10.368,0
0.6921,-1.812772E-05,10.3815,0,0.6921,-3.155566E-05,10.3815,0
0.693,-6.378271E-06,10.395,0,0.693,-5.270466E-05,10.395,0
0.6939,2.24918E-05,10.4085,0,0.6939,-4.968337E-05,10.4085,0
0.6948,-7.049668E-06,10.422,0,0.6948,6.378271E-06,10.422,0
0.6957,-2.316319E-05,10.4355,0,0.6957,-1.342794E-05,10.4355,0
0.6966,-7.049668E-06,10.449,0,0.6966,-6.61326E-05,10.449,0
0.6975,-2.819867E-05,10.4625,0,0.6975,-7.083238E-05,10.4625,0
0.6984,-3.356985E-07,10.476,0,0.6984,-0.0001131304,10.476,0
0.6993,2.551309E-05,10.4895,0,0.6993,-0.0002024262,10.4895,0
0.7002,3.054856E-05,10.503,0,0.7002,-0.0002433814,10.503,0
0.7011,-1.846342E-05,10.5165,0,0.7011,-0.0002309606,10.5165,0
0.702,-3.121996E-05,10.53,0,0.702,-0.0002111543,10.53,0
0.7029,-4.33051E-05,10.5435,0,0.7029,-9.164568E-05,10.5435,0
0.7038,-2.450599E-05,10.557,0,0.7038,6.915389E-05,10.557,0
0.7047,-2.719158E-05,10.5705,0,0.7047,0.0002091402,10.5705,0
0.7056,-2.484169E-05,10.584,0,0.7056,0.0003098497,10.584,0
0.7065,-1.007095E-05,10.5975,0,0.7065,0.0002789654,10.5975,0
0.7074,-2.28275E-05,10.611,0,0.7074,0.0001795987,10.611,0
0.7083,-4.599069E-05,10.6245,0,0.7083,0.0001577783,10.6245,0
0.7092,-6.71397E-05,10.638,0,0.7092,0.0001070878,10.638,0
0.7101,-3.121996E-05,10.6515,0,0.7101,1.376364E-05,10.6515,0
0.711,1.007095E-05,10.665,0,0.711,-2.685588E-05,10.665,0
0.7119,2.652018E-05,10.6785,0,0.7119,-6.109713E-05,10.6785,0
0.7128,7.721065E-06,10.692,0,0.7128,-8.123904E-05,10.692,0
0.7137,4.46479E-05,10.7055,0,0.7137,-2.517739E-05,10.7055,0
0.7146,5.203327E-05,10.719,0,0.7146,-2.450599E-05,10.719,0
0.7155,6.61326E-05,10.7325,0,0.7155,-2.1149E-05,10.7325,0
0.7164,3.323415E-05,10.746,0,0.7164,2.450599E-05,10.746,0
0.7173,4.36408E-06,10.7595,0,0.7173,1.376364E-05,10.7595,0
0.7182,-2.652018E-05,10.773,0,0.7182,2.349889E-06,10.773,0
0.7191,-3.927672E-05,10.7865,0,0.7191,-2.719158E-05,10.7865,0
0.72,-1.040665E-05,10.8,0,0.72,-5.001907E-05,10.8,0
0.7209,4.599069E-05,10.8135,0,0.7209,-5.001907E-05,10.8135,0
0.7218,5.471885E-05,10.827,0,0.7218,-2.316319E-05,10.827,0
0.7227,6.6804E-05,10.8405,0,0.7227,-5.539025E-05,10.8405,0
0.7236,9.970245E-05,10.854,0,0.7236,-0.0001272297,10.854,0
0.7245,-2.819867E-05,10.8675,0,0.7245,-0.0001373007,10.8675,0
0.7254,-8.761731E-05,10.881,0,0.7254,-0.0001047379,10.881,0
0.7263,-0.0001077592,10.8945,0,0.7263,-0.0001433432,10.8945,0
0.7272,-9.097429E-05,10.908,0,0.7272,-0.0001101091,10.908,0
0.7281,-8.560311E-05,10.9215,0,0.7281,4.36408E-06,10.9215,0
0.729,-4.49836E-05,10.935,0,0.729,6.74754E-05,10.935,0
0.7299,-3.054856E-05,10.9485,0,0.7299,5.069047E-05,10.9485,0
0.7308,-1.544213E-05,10.962,0,0.7308,-1.007095E-05,10.962,0
0.7317,-2.1149E-05,10.9755,0,0.7317,-1.040665E-05,10.9755,0
0.7326,-3.121996E-05,10.989,0,0.7326,1.309224E-05,10.989,0
0.7335,-3.625543E-05,11.0025,0,0.7335,-1.443504E-05,11.0025,0
0.7344,-2.316319E-05,11.016,0,0.7344,-2.652018E-05,11.016,0
0.7353,8.056763E-06,11.0295,0,0.7353,-1.040665E-05,11.0295,0
0.7362,1.812772E-05,11.043,0,0.7362,-1.644922E-05,11.043,0
0.7371,3.692683E-06,11.0565,0,0.7371,-4.766919E-05,11.0565,0
0.738,-6.982528E-05,11.07,0,0.738,-3.390555E-05,11.07,0
0.7389,-0.0001017166,11.0835,0,0.7389,-2.28275E-05,11.0835,0
0.7398,-8.761731E-05,11.097,0,0.7398,-6.143282E-05,11.097,0
0.7407,-5.001907E-05,11.1105,0,0.7407,-1.174945E-05,11.1105,0
0.7416,-2.987716E-05,11.124,0,0.7416,0,11.124,0
0.7425,3.994812E-05,11.1375,0,0.7425,-3.759823E-05,11.1375,0
0.7434,8.560311E-05,11.151,0,0.7434,-2.047761E-05,11.151,0
0.7443,0.0001285725,11.1645,0,0.7443,2.18204E-05,11.1645,0
0.7452,0.0001500572,11.178,0,0.7452,1.712062E-05,11.178,0
0.7461,8.69459E-05,11.1915,0,0.7461,-9.399558E-06,11.1915,0
0.747,7.083238E-05,11.205,0,0.747,-1.342794E-05,11.205,0
0.7479,1.812772E-05,11.2185,0,0.7479,-3.289845E-05,11.2185,0
0.7488,-2.987716E-05,11.232,0,0.7488,-3.659113E-05,11.232,0
0.7497,1.040665E-05,11.2455,0,0.7497,-1.644922E-05,11.2455,0
0.7506,3.994812E-05,11.259,0,0.7506,-5.136187E-05,11.259,0
0.7515,-4.36408E-06,11.2725,0,0.7515,-1.846342E-05,11.2725,0
0.7524,-3.021286E-06,11.286,0,0.7524,3.021286E-06,11.286,0
0.7533,-2.1149E-05,11.2995,0,0.7533,-2.1149E-05,11.2995,0
0.7542,-4.33051E-05,11.313,0,0.7542,1.242084E-05,11.313,0
0.7551,-6.6804E-05,11.3265,0,0.7551,1.812772E-05,11.3265,0
0.756,-8.123904E-05,11.34,0,0.756,-1.678492E-06,11.34,0
0.7569,-6.57969E-05,11.3535,0,0.7569,-1.174945E-05,11.3535,0
0.7578,-1.779202E-05,11.367,0,0.7578,-9.063859E-06,11.367,0
0.7587,2.652018E-05,11.3805,0,0.7587,3.256275E-05,11.3805,0
0.7596,3.524834E-05,11.394,0,0.7596,-3.692683E-05,11.394,0
0.7605,4.49836E-05,11.4075,0,0.7605,-0.0001326009,11.4075,0
0.7614,1.947051E-05,11.421,0,0.7614,-0.0001292439,11.421,0
0.7623,5.035477E-06,11.4345,0,0.7623,-7.385367E-06,11.4345,0
0.7632,1.678492E-06,11.448,0,0.7632,-6.713969E-07,11.448,0
0.7641,-5.136187E-05,11.4615,0,0.7641,-7.049668E-05,11.4615,0
0.765,-9.097429E-05,11.475,0,0.765,-2.450599E-05,11.475,0
0.7659,-3.390555E-05,11.4885,0,0.7659,1.577783E-05,11.4885,0
0.7668,4.699779E-06,11.502,0,0.7668,-2.954147E-05,11.502,0
0.7677,-5.404745E-05,11.5155,0,0.7677,-4.39765E-05,11.5155,0
0.7686,-4.39765E-05,11.529,0,0.7686,-1.913481E-05,11.529,0
0.7695,-1.376364E-05,11.5425,0,0.7695,-2.28275E-05,11.5425,0
0.7704,-5.807584E-05,11.556,0,0.7704,-1.376364E-05,11.556,0
0.7713,-3.524834E-05,11.5695,0,0.7713,-2.383459E-05,11.5695,0
0.7722,9.063859E-06,11.583,0,0.7722,-2.853437E-05,11.583,0
0.7731,9.164568E-05,11.5965,0,0.7731,-1.342794E-05,11.5965,0
0.774,0.0001070878,11.61,0,0.774,-3.424125E-05,11.61,0
0.7749,0.0001054093,11.6235,0,0.7749,-5.639734E-05,11.6235,0
0.7758,-3.256275E-05,11.637,0,0.7758,-7.385367E-06,11.637,0
0.7767,-8.056764E-05,11.6505,0,0.7767,-6.713969E-06,11.6505,0
0.7776,-6.814679E-05,11.664,0,0.7776,5.035477E-06,11.664,0
0.7785,-5.673304E-05,11.6775,0,0.7785,4.46479E-05,11.6775,0
0.7794,-6.277562E-05,11.691,0,0.7794,7.183947E-05,11.691,0
0.7803,-3.927672E-05,11.7045,0,0.7803,4.263371E-05,11.7045,0
0.7812,1.409934E-05,11.718,0,0.7812,3.021286E-06,11.718,0
0.7821,-2.450599E-05,11.7315,0,0.7821,-5.471885E-05,11.7315,0
0.783,-2.450599E-05,11.745,0,0.783,-3.390555E-05,11.745,0
0.7839,7.385367E-06,11.7585,0,0.7839,1.275654E-05,11.7585,0
0.7848,1.409934E-05,11.772,0,0.7848,-8.157473E-05,11.772,0
0.7857,-4.599069E-05,11.7855,0,0.7857,-0.0001097734,11.7855,0
0.7866,-1.443504E-05,11.799,0,0.7866,-7.721065E-05,11.799,0
0.7875,7.049668E-06,11.8125,0,0.7875,-4.599069E-05,11.8125,0
0.7884,8.056763E-06,11.826,0,0.7884,-4.699779E-06,11.826,0
0.7893,2.987716E-05,11.8395,0,0.7893,3.390555E-05,11.8395,0
0.7902,4.33051E-05,11.853,0,0.7902,4.36408E-06,11.853,0
0.7911,4.263371E-05,11.8665,0,0.7911,-4.43122E-05,11.8665,0
0.792,3.121996E-05,11.88,0,0.792,-1.443504E-05,11.88,0
0.7929,2.047761E-05,11.8935,0,0.7929,-2.349889E-06,11.8935,0
0.7938,1.040665E-05,11.907,0,0.7938,-1.275654E-05,11.907,0
0.7947,3.088426E-05,11.9205,0,0.7947,1.208515E-05,11.9205,0
0.7956,0,11.934,0,0.7956,3.121996E-05,11.934,0
0.7965,-1.947051E-05,11.9475,0,0.7965,1.510643E-05,11.9475,0
0.7974,-3.961242E-05,11.961,0,0.7974,2.014191E-05,11.961,0
0.7983,-5.572595E-05,11.9745,0,0.7983,3.021286E-06,11.9745,0
0.7992,-9.164568E-05,11.988,0,0.7992,-9.735256E-06,11.988,0
0.8001,-0.0001198444,12.0015,0,0.8001,-2.584878E-05,12.0015,0
0.801,-9.970245E-05,12.015,0,0.801,-4.867628E-05,12.015,0
0.8019,-7.620356E-05,12.0285,0,0.8019,-7.586786E-05,12.0285,0
0.8028,-0.0001117876,12.042,0,0.8028,-6.109713E-05,12.042,0
0.8037,-0.0001232013,12.0555,0,0.8037,-4.061952E-05,12.0555,0
0.8046,-8.82887E-05,12.069,0,0.8046,-9.903105E-05,12.069,0
0.8055,7.721065E-06,12.0825,0,0.8055,-6.915389E-05,12.0825,0
0.8064,4.46479E-05,12.096,0,0.8064,-6.042573E-06,12.096,0
0.8073,6.243992E-05,12.1095,0,0.8073,4.162661E-05,12.1095,0
0.8082,0.0001114519,12.123,0,0.8082,0.000186984,12.123,0
0.8091,0.0001440146,12.1365,0,0.8091,0.0001185016,12.1365,0
0.81,0.0002467384,12.15,0,0.81,-1.779202E-05,12.15,0
0.8109,0.0002809796,12.1635,0,0.8109,-4.800488E-05,12.1635,0
0.8118,0.0001644923,12.177,0,0.8118,-2.853437E-05,12.177,0
0.8127,8.157473E-05,12.1905,0,0.8127,-2.618448E-05,12.1905,0
0.8136,8.191043E-05,12.204,0,0.8136,-4.46479E-05,12.204,0
0.8145,4.229801E-05,12.2175,0,0.8145,-6.6804E-05,12.2175,0
0.8154,-4.028382E-06,12.231,0,0.8154,-8.325322E-05,12.231,0
0.8163,-3.894102E-05,12.2445,0,0.8163,-2.752728E-05,12.2445,0
0.8172,-9.567407E-05,12.258,0,0.8172,-2.618448E-05,12.258,0
0.8181,-9.030289E-05,12.2715,0,0.8181,-7.922484E-05,12.2715,0
0.819,-8.627451E-05,12.285,0,0.819,-2.450599E-05,12.285,0
0.8199,-8.627451E-05,12.2985,0,0.8199,-2.014191E-06,12.2985,0
0.8208,-4.867628E-05,12.312,0,0.8208,-8.392462E-06,12.312,0
0.8217,-6.277562E-05,12.3255,0,0.8217,-1.611353E-05,12.3255,0
0.8226,-6.210422E-05,12.339,0,0.8226,1.040665E-05,12.339,0
0.8235,-8.392462E-06,12.3525,0,0.8235,9.399558E-06,12.3525,0
0.8244,1.678492E-05,12.366,0,0.8244,-2.887007E-05,12.366,0
0.8253,6.277562E-05,12.3795,0,0.8253,-4.229801E-05,12.3795,0
0.8262,6.009003E-05,12.393,0,0.8262,-6.713969E-06,12.393,0
0.8271,-2.920577E-05,12.4065,0,0.8271,-6.042573E-06,12.4065,0
0.828,-5.337606E-05,12.42,0,0.828,-2.920577E-05,12.42,0
0.8289,-7.553216E-05,12.4335,0,0.8289,-2.853437E-05,12.4335,0
0.8298,-8.761731E-05,12.447,0,0.8298,6.713969E-07,12.447,0
0.8307,-6.277562E-05,12.4605,0,0.8307,-1.107805E-05,12.4605,0
0.8316,-7.687495E-05,12.474,0,0.8316,-4.867628E-05,12.474,0
0.8325,-7.519646E-05,12.4875,0,0.8325,-1.007095E-05,12.4875,0
0.8334,-2.719158E-05,12.501,0,0.8334,3.356985E-07,12.501,0
0.8343,-5.774014E-05,12.5145,0,0.8343,-4.33051E-05,12.5145,0
0.8352,-9.231708E-05,12.528,0,0.8352,-2.752728E-05,12.528,0
0.8361,-8.426032E-05,12.5415,0,0.8361,2.349889E-06,12.5415,0
0.837,-7.418937E-05,12.555,0,0.837,-8.728161E-06,12.555,0
0.8379,-6.277562E-05,12.5685,0,0.8379,-1.510643E-05,12.5685,0
0.8388,-4.46479E-05,12.582,0,0.8388,-4.162661E-05,12.582,0
0.8397,-4.33051E-05,12.5955,0,0.8397,-1.040665E-05,12.5955,0
0.8406,-3.356985E-07,12.609,0,0.8406,1.275654E-05,12.609,0
0.8415,3.457694E-05,12.6225,0,0.8415,-1.443504E-05,12.6225,0
0.8424,5.035477E-05,12.636,0,0.8424,-3.994812E-05,12.636,0
0.8433,1.678492E-05,12.6495,0,0.8433,3.692683E-06,12.6495,0
0.8442,5.606165E-05,12.663,0,0.8442,4.699779E-06,12.663,0
0.8451,0.0001232013,12.6765,0,0.8451,-2.584878E-05,12.6765,0
0.846,0.0001030594,12.69,0,0.846,-1.678492E-06,12.69,0
0.8469,7.486076E-05,12.7035,0,0.8469,-2.316319E-05,12.7035,0
0.8478,4.39765E-05,12.717,0,0.8478,-5.471885E-05,12.717,0
0.8487,2.081331E-05,12.7305,0,0.8487,-4.666209E-05,12.7305,0
0.8496,-9.063859E-06,12.744,0,0.8496,-1.611353E-05,12.744,0
0.8505,-8.392462E-06,12.7575,0,0.8505,-2.18204E-05,12.7575,0
0.8514,-6.713969E-06,12.771,0,0.8514,-2.786297E-05,12.771,0
0.8523,-2.316319E-05,12.7845,0,0.8523,-3.189136E-05,12.7845,0
0.8532,-1.678492E-06,12.798,0,0.8532,8.728161E-06,12.798,0
0.8541,3.659113E-05,12.8115,0,0.8541,1.980621E-05,12.8115,0
0.855,2.1149E-05,12.825,0,0.855,-2.719158E-05,12.825,0
0.8559,-6.210422E-05,12.8385,0,0.8559,-6.848249E-05,12.8385,0
0.8568,-8.258183E-05,12.852,0,0.8568,-1.947051E-05,12.852,0
0.8577,-4.800488E-05,12.8655,0,0.8577,-1.242084E-05,12.8655,0
0.8586,2.014191E-06,12.879,0,0.8586,-5.001907E-05,12.879,0
0.8595001,-3.927672E-05,12.8925,0,0.8595001,-8.392462E-06,12.8925,0
0.8604,-7.016098E-05,12.906,0,0.8604,9.735256E-06,12.906,0
0.8613,-8.291753E-05,12.9195,0,0.8613,-1.644922E-05,12.9195,0
0.8622,-0.0001104448,12.933,0,0.8622,-2.987716E-05,12.933,0
0.8631,-6.6804E-05,12.9465,0,0.8631,3.356985E-07,12.9465,0
0.864,-2.1149E-05,12.96,0,0.864,-1.678492E-06,12.96,0
0.8649,2.1149E-05,12.9735,0,0.8649,-8.056763E-06,12.9735,0
0.8658,0.0001010452,12.987,0,0.8658,-8.056763E-06,12.987,0
0.8667,0.0001178302,13.0005,0,0.8667,1.342794E-05,13.0005,0
0.8676,5.539025E-05,13.014,0,0.8676,1.544213E-05,13.014,0
0.8685,3.289845E-05,13.0275,0,0.8685,-3.860533E-05,13.0275,0
0.8694,-4.36408E-06,13.041,0,0.8694,-5.136187E-05,13.041,0
0.8703,-3.054856E-05,13.0545,0,0.8703,8.392462E-06,13.0545,0
0.8712,-1.376364E-05,13.068,0,0.8712,-2.24918E-05,13.068,0
0.8721,5.035477E-06,13.0815,0,0.8721,-9.802396E-05,13.0815,0
0.873,-3.356985E-06,13.095,0,0.873,-5.270466E-05,13.095,0
0.8739,6.713969E-07,13.1085,0,0.8739,-1.443504E-05,13.1085,0
0.8748,9.063859E-06,13.122,0,0.8748,-3.054856E-05,13.122,0
0.8757,6.277562E-05,13.1355,0,0.8757,-1.208515E-05,13.1355,0
0.8766,2.18204E-05,13.149,0,0.8766,5.706874E-06,13.149,0
0.8775,1.040665E-05,13.1625,0,0.8775,-1.174945E-05,13.1625,0
0.8784,-3.591974E-05,13.176,0,0.8784,-1.242084E-05,13.176,0
0.8793,-3.793393E-05,13.1895,0,0.8793,-2.719158E-05,13.1895,0
0.8802,-5.471885E-05,13.203,0,0.8802,-1.980621E-05,13.203,0
0.8811,-0.0001366293,13.2165,0,0.8811,-3.021286E-06,13.2165,0
0.882,-0.0001077592,13.23,0,0.882,-2.517739E-05,13.23,0
0.8829,-2.450599E-05,13.2435,0,0.8829,-3.927672E-05,13.2435,0
0.8838,-7.150377E-05,13.257,0,0.8838,-2.920577E-05,13.257,0
0.8847,-4.666209E-05,13.2705,0,0.8847,-4.733349E-05,13.2705,0
0.8856,9.063859E-06,13.284,0,0.8856,-5.471885E-05,13.284,0
0.8865,-8.728161E-06,13.2975,0,0.8865,4.699779E-06,13.2975,0
0.8874,1.846342E-05,13.311,0,0.8874,4.46479E-05,13.311,0
0.8883,3.726253E-05,13.3245,0,0.8883,-2.517739E-05,13.3245,0
0.8892,6.378271E-05,13.338,0,0.8892,-3.054856E-05,13.338,0
0.8901,3.457694E-05,13.3515,0,0.8901,-3.356985E-06,13.3515,0
0.891,2.21561E-05,13.365,0,0.891,-6.378271E-06,13.365,0
0.8919,1.040665E-05,13.3785,0,0.8919,-2.887007E-05,13.3785,0
0.8928,4.061952E-05,13.392,0,0.8928,-1.007095E-06,13.392,0
0.8937,2.987716E-05,13.4055,0,0.8937,5.807584E-05,13.4055,0
0.8946,1.376364E-05,13.419,0,0.8946,8.023193E-05,13.419,0
0.8955,3.659113E-05,13.4325,0,0.8955,-8.728161E-06,13.4325,0
0.8964,5.438316E-05,13.446,0,0.8964,-4.867628E-05,13.446,0
0.8973,3.054856E-05,13.4595,0,0.8973,-3.256275E-05,13.4595,0
0.8982,-1.174945E-05,13.473,0,0.8982,-5.236896E-05,13.473,0
0.8991,-4.196231E-05,13.4865,0,0.8991,-6.71397E-05,13.4865,0
0.9,-7.016098E-05,13.5,0,0.9,-1.577783E-05,13.5,0
0.9009,-7.754635E-05,13.5135,0,0.9009,-1.376364E-05,13.5135,0
0.9018,-8.69459E-05,13.527,0,0.9018,-5.001907E-05,13.527,0
0.9027,-3.256275E-05,13.5405,0,0.9027,-2.719158E-05,13.5405,0
0.9036,-2.24918E-05,13.554,0,0.9036,3.927672E-05,13.554,0
0.9045,-3.256275E-05,13.5675,0,0.9045,1.174945E-05,13.5675,0
0.9054,9.735256E-06,13.581,0,0.9054,-3.860533E-05,13.581,0
0.9063,5.035477E-05,13.5945,0,0.9063,-8.258183E-05,13.5945,0
0.9072,-1.477073E-05,13.608,0,0.9072,-8.493171E-05,13.608,0
0.9081,-8.661021E-05,13.6215,0,0.9081,-7.754635E-05,13.6215,0
0.909,-4.800488E-05,13.635,0,0.909,-5.572595E-05,13.635,0
0.9099,-6.378271E-06,13.6485,0,0.9099,3.356985E-06,13.6485,0
0.9108,1.644922E-05,13.662,0,0.9108,0.0001003738,13.662,0
0.9117,6.814679E-05,13.6755,0,0.9117,1.242084E-05,13.6755,0
0.9126,6.74754E-05,13.689,0,0.9126,-7.049668E-05,13.689,0
0.9135,4.733349E-05,13.7025,0,0.9135,-2.383459E-05,13.7025,0
0.9144,7.855344E-05,13.716,0,0.9144,9.735256E-06,13.716,0
0.9153,8.560311E-05,13.7295,0,0.9153,-2.417029E-05,13.7295,0
0.9162,2.484169E-05,13.743,0,0.9162,-2.786297E-05,13.743,0
0.9171,-1.275654E-05,13.7565,0,0.9171,9.735256E-06,13.7565,0
0.918,-1.174945E-05,13.77,0,0.918,-1.107805E-05,13.77,0
0.9189,1.712062E-05,13.7835,0,0.9189,-1.947051E-05,13.7835,0
0.9198,1.980621E-05,13.797,0,0.9198,-3.054856E-05,13.797,0
0.9207,-2.014191E-06,13.8105,0,0.9207,-2.517739E-05,13.8105,0
0.9216,-4.196231E-05,13.824,0,0.9216,-2.21561E-05,13.824,0
0.9225,-4.800488E-05,13.8375,0,0.9225,-4.867628E-05,13.8375,0
0.9234,-4.36408E-05,13.851,0,0.9234,-6.814679E-05,13.851,0
0.9243,-4.162661E-05,13.8645,0,0.9243,-8.728161E-06,13.8645,0
0.9252,-2.450599E-05,13.878,0,0.9252,-1.107805E-05,13.878,0
0.9261,-2.517739E-05,13.8915,0,0.9261,-5.069047E-05,13.8915,0
0.927,-1.544213E-05,13.905,0,0.927,4.028382E-06,13.905,0
0.9279,2.618448E-05,13.9185,0,0.9279,2.349889E-05,13.9185,0
0.9288,-1.510643E-05,13.932,0,0.9288,1.174945E-05,13.932,0
0.9297,-2.24918E-05,13.9455,0,0.9297,3.155566E-05,13.9455,0
0.9306,-2.349889E-05,13.959,0,0.9306,1.644922E-05,13.959,0
0.9315,-3.591974E-05,13.9725,0,0.9315,-3.390555E-05,13.9725,0
0.9324,6.713969E-07,13.986,0,0.9324,-4.129091E-05,13.986,0
0.9333,-2.517739E-05,13.9995,0,0.9333,-6.411841E-05,13.9995,0
0.9342,-6.076142E-05,14.013,0,0.9342,-5.404745E-05,14.013,0
0.9351,-2.719158E-05,14.0265,0,0.9351,-3.323415E-05,14.0265,0
0.936,-3.692683E-06,14.04,0,0.936,-4.36408E-06,14.04,0
0.9369,-2.450599E-05,14.0535,0,0.9369,-9.063859E-06,14.0535,0
0.9378,-5.539025E-05,14.067,0,0.9378,-1.510643E-05,14.067,0
0.9387,6.378271E-06,14.0805,0,0.9387,-1.107805E-05,14.0805,0
0.9396001,2.316319E-05,14.094,0,0.9396001,-2.14847E-05,14.094,0
0.9405,2.1149E-05,14.1075,0,0.9405,-7.049668E-06,14.1075,0
0.9414001,4.36408E-05,14.121,0,0.9414001,1.846342E-05,14.121,0
0.9423,6.378271E-06,14.1345,0,0.9423,-3.256275E-05,14.1345,0
0.9432001,-5.069047E-05,14.148,0,0.9432001,-3.793393E-05,14.148,0
0.9441,-6.478981E-05,14.1615,0,0.9441,-1.040665E-05,14.1615,0
0.9450001,-3.088426E-05,14.175,0,0.9450001,-1.007095E-05,14.175,0
0.9459,-1.174945E-05,14.1885,0,0.9459,-1.242084E-05,14.1885,0
0.9468,-1.040665E-05,14.202,0,0.9468,-2.920577E-05,14.202,0
0.9477,1.409934E-05,14.2155,0,0.9477,-2.450599E-05,14.2155,0
0.9486,7.721065E-06,14.229,0,0.9486,-9.399558E-06,14.229,0
0.9495,-3.356985E-06,14.2425,0,0.9495,-4.39765E-05,14.2425,0
0.9504,2.349889E-06,14.256,0,0.9504,-4.666209E-05,14.256,0
0.9513,-3.793393E-05,14.2695,0,0.9513,3.356985E-07,14.2695,0
0.9522,-1.644922E-05,14.283,0,0.9522,2.349889E-06,14.283,0
0.9531,1.577783E-05,14.2965,0,0.9531,-2.081331E-05,14.2965,0
0.954,0,14.31,0,0.954,3.021286E-06,14.31,0
0.9549,-1.779202E-05,14.3235,0,0.9549,-3.356985E-07,14.3235,0
0.9558,1.242084E-05,14.337,0,0.9558,-1.040665E-05,14.337,0
0.9567,-3.659113E-05,14.3505,0,0.9567,1.208515E-05,14.3505,0
0.9576,-4.33051E-05,14.364,0,0.9576,1.309224E-05,14.364,0
0.9585,-1.007095E-05,14.3775,0,0.9585,-1.644922E-05,14.3775,0
0.9594,-1.309224E-05,14.391,0,0.9594,-2.21561E-05,14.391,0
0.9603,1.174945E-05,14.4045,0,0.9603,-1.678492E-05,14.4045,0
0.9612,2.618448E-05,14.418,0,0.9612,-1.107805E-05,14.418,0
0.9621,-7.721065E-06,14.4315,0,0.9621,-3.726253E-05,14.4315,0
0.963,-1.007095E-06,14.445,0,0.963,-4.733349E-05,14.445,0
0.9639,7.721065E-05,14.4585,0,0.9639,-4.49836E-05,14.4585,0
0.9648,8.96315E-05,14.472,0,0.9648,-3.692683E-06,14.472,0
0.9657,9.198138E-05,14.4855,0,0.9657,-8.728161E-06,14.4855,0
0.9666,6.277562E-05,14.499,0,0.9666,-5.102617E-05,14.499,0
0.9675,-7.049668E-06,14.5125,0,0.9675,-8.392462E-06,14.5125,0
0.9684,-2.652018E-05,14.526,0,0.9684,-7.385367E-06,14.526,0
0.9693,-6.143282E-05,14.5395,0,0.9693,-4.39765E-05,14.5395,0
0.9702,-5.404745E-05,14.553,0,0.9702,-4.968337E-05,14.553,0
0.9711,-4.599069E-05,14.5665,0,0.9711,-2.18204E-05,14.5665,0
0.972,-9.768826E-05,14.58,0,0.972,-2.081331E-05,14.58,0
0.9729,-6.848249E-05,14.5935,0,0.9729,-3.524834E-05,14.5935,0
0.9738,5.035477E-06,14.607,0,0.9738,-5.673304E-05,14.607,0
0.9747,-1.443504E-05,14.6205,0,0.9747,-2.28275E-05,14.6205,0
0.9756,1.007095E-06,14.634,0,0.9756,9.735256E-06,14.634,0
0.9765,1.712062E-05,14.6475,0,0.9765,-2.349889E-05,14.6475,0
0.9774,7.721065E-06,14.661,0,0.9774,-2.484169E-05,14.661,0
0.9783,1.007095E-06,14.6745,0,0.9783,5.035477E-06,14.6745,0
0.9792,3.054856E-05,14.688,0,0.9792,-1.074235E-05,14.688,0
0.9801,1.577783E-05,14.7015,0,0.9801,-4.53193E-05,14.7015,0
0.981,-2.786297E-05,14.715,0,0.981,-3.021286E-06,14.715,0
0.9819,-6.478981E-05,14.7285,0,0.9819,-7.049668E-06,14.7285,0
0.9828,-5.136187E-05,14.742,0,0.9828,-4.162661E-05,14.742,0
0.9837,-4.733349E-05,14.7555,0,0.9837,-2.853437E-05,14.7555,0
0.9846,-4.599069E-05,14.769,0,0.9846,-6.713969E-06,14.769,0
0.9855,-2.920577E-05,14.7825,0,0.9855,-2.014191E-05,14.7825,0
0.9864,-3.256275E-05,14.796,0,0.9864,-8.392462E-06,14.796,0
0.9873,-2.18204E-05,14.8095,0,0.9873,-1.678492E-05,14.8095,0
0.9882,1.980621E-05,14.823,0,0.9882,-2.047761E-05,14.823,0
0.9891,9.399558E-06,14.8365,0,0.9891,2.685588E-06,14.8365,0
0.99,6.713969E-07,14.85,0,0.99,-2.719158E-05,14.85,0
0.9909,2.349889E-06,14.8635,0,0.9909,-3.524834E-05,14.8635,0
0.9918,-9.735256E-06,14.877,0,0.9918,-1.309224E-05,14.877,0
0.9927,-1.242084E-05,14.8905,0,0.9927,-2.752728E-05,14.8905,0
0.9936,-1.007095E-06,14.904,0,0.9936,-4.36408E-05,14.904,0
0.9945,6.378271E-06,14.9175,0,0.9945,4.028382E-06,14.9175,0
0.9954,2.618448E-05,14.931,0,0.9954,2.484169E-05,14.931,0
0.9963,3.021286E-05,14.9445,0,0.9963,-1.644922E-05,14.9445,0
0.9972,5.337606E-05,14.958,0,0.9972,-7.385367E-06,14.958,0
0.9981,5.706874E-05,14.9715,0,0.9981,2.18204E-05,14.9715,0
0.999,3.424125E-05,14.985,0,0.999,-5.706874E-06,14.985,0
0.9999,-4.095522E-05,14.9985,0,0.9999,-3.491264E-05,14.9985,0
1.0008,-9.298848E-05,15.012,0,1.0008,-8.123904E-05,15.012,0
1.0017,-8.224613E-05,15.0255,0,1.0017,-5.807584E-05,15.0255,0
1.0026,-7.553216E-05,15.039,0,1.0026,-4.196231E-05,15.039,0
1.0035,-4.632639E-05,15.0525,0,1.0035,-1.577783E-05,15.0525,0
1.0044,1.275654E-05,15.066,0,1.0044,-5.404745E-05,15.066,0
1.0053,7.318227E-05,15.0795,0,1.0053,2.652018E-05,15.0795,0
1.0062,6.076142E-05,15.093,0,1.0062,3.323415E-05,15.093,0
1.0071,5.169757E-05,15.1065,0,1.0071,-8.526741E-05,15.1065,0
1.008,0,15.12,0,1.008,-6.915389E-05,15.12,0
1.0089,2.887007E-05,15.1335,0,1.0089,-2.752728E-05,15.1335,0
1.0098,-7.049668E-06,15.147,0,1.0098,-4.632639E-05,15.147,0
1.0107,-3.323415E-05,15.1605,0,1.0107,-1.980621E-05,15.1605,0
1.0116,-1.275654E-05,15.174,0,1.0116,5.069047E-05,15.174,0
1.0125,-1.510643E-05,15.1875,0,1.0125,4.53193E-05,15.1875,0
1.0134,-3.524834E-05,15.201,0,1.0134,4.901198E-05,15.201,0
1.0143,-1.007095E-05,15.2145,0,1.0143,2.618448E-05,15.2145,0
1.0152,-3.356985E-07,15.228,0,1.0152,3.121996E-05,15.228,0
1.0161,2.920577E-05,15.2415,0,1.0161,3.189136E-05,15.2415,0
1.017,3.927672E-05,15.255,0,1.017,-3.692683E-05,15.255,0
1.0179,1.577783E-05,15.2685,0,1.0179,-0.0001007095,15.2685,0
1.0188,3.356985E-07,15.282,0,1.0188,-9.298848E-05,15.282,0
1.0197,3.021286E-05,15.2955,0,1.0197,-6.311131E-05,15.2955,0
1.0206,5.874724E-05,15.309,0,1.0206,-5.404745E-05,15.309,0
1.0215,-3.356985E-07,15.3225,0,1.0215,-1.644922E-05,15.3225,0
1.0224,-2.484169E-05,15.336,0,1.0224,-6.042573E-06,15.336,0
1.0233,-1.544213E-05,15.3495,0,1.0233,-2.719158E-05,15.3495,0
1.0242,-1.913481E-05,15.363,0,1.0242,-1.510643E-05,15.363,0
1.0251,9.399558E-06,15.3765,0,1.0251,2.417029E-05,15.3765,0
1.026,-2.484169E-05,15.39,0,1.026,-8.392462E-06,15.39,0
1.0269,-7.620356E-05,15.4035,0,1.0269,-4.229801E-05,15.4035,0
1.0278,-1.242084E-05,15.417,0,1.0278,-2.383459E-05,15.417,0
1.0287,-1.174945E-05,15.4305,0,1.0287,-1.376364E-05,15.4305,0
1.0296,-4.901198E-05,15.444,0,1.0296,-3.021286E-05,15.444,0
1.0305,-1.913481E-05,15.4575,0,1.0305,-4.263371E-05,15.4575,0
1.0314,1.007095E-05,15.471,0,1.0314,-3.155566E-05,15.471,0
1.0323,-1.947051E-05,15.4845,0,1.0323,1.007095E-05,15.4845,0
1.0332,-1.107805E-05,15.498,0,1.0332,1.544213E-05,15.498,0
1.0341,-3.356985E-07,15.5115,0,1.0341,-2.18204E-05,15.5115,0
1.035,-2.18204E-05,15.525,0,1.035,-2.349889E-06,15.525,0
1.0359,-2.1149E-05,15.5385,0,1.0359,-1.107805E-05,15.5385,0
1.0368,-7.385367E-06,15.552,0,1.0368,-5.438316E-05,15.552,0
1.0377,-3.424125E-05,15.5655,0,1.0377,-4.196231E-05,15.5655,0
1.0386,-6.881819E-05,15.579,0,1.0386,-1.007095E-06,15.579,0
1.0395,-5.404745E-05,15.5925,0,1.0395,-3.021286E-06,15.5925,0
1.0404,-3.591974E-05,15.606,0,1.0404,-9.735256E-06,15.606,0
1.0413,-2.887007E-05,15.6195,0,1.0413,-2.819867E-05,15.6195,0
1.0422,1.712062E-05,15.633,0,1.0422,-2.1149E-05,15.633,0
1.0431,4.901198E-05,15.6465,0,1.0431,-1.678492E-05,15.6465,0
1.044,9.063859E-06,15.66,0,1.044,-2.18204E-05,15.66,0
1.0449,-1.644922E-05,15.6735,0,1.0449,-4.33051E-05,15.6735,0
1.0458,1.040665E-05,15.687,0,1.0458,-1.107805E-05,15.687,0
1.0467,4.733349E-05,15.7005,0,1.0467,-8.392462E-06,15.7005,0
1.0476,5.203327E-05,15.714,0,1.0476,-4.129091E-05,15.714,0
1.0485,3.591974E-05,15.7275,0,1.0485,-5.035477E-06,15.7275,0
1.0494,3.189136E-05,15.741,0,1.0494,3.424125E-05,15.741,0
1.0503,-2.517739E-05,15.7545,0,1.0503,-1.544213E-05,15.7545,0
1.0512,-6.948959E-05,15.768,0,1.0512,-1.242084E-05,15.768,0
1.0521,-7.989624E-05,15.7815,0,1.0521,6.378271E-06,15.7815,0
1.053,-0.0001003738,15.795,0,1.053,-9.735256E-06,15.795,0
1.0539,-6.378271E-05,15.8085,0,1.0539,-3.256275E-05,15.8085,0
1.0548,-1.913481E-05,15.822,0,1.0548,-4.733349E-05,15.822,0
1.0557,-3.088426E-05,15.8355,0,1.0557,-3.054856E-05,15.8355,0
1.0566,-5.706874E-06,15.849,0,1.0566,-1.107805E-05,15.849,0
1.0575,3.021286E-06,15.8625,0,1.0575,-3.591974E-05,15.8625,0
1.0584,5.438316E-05,15.876,0,1.0584,-3.121996E-05,15.876,0
1.0593,3.054856E-05,15.8895,0,1.0593,8.728161E-06,15.8895,0
1.0602,2.786297E-05,15.903,0,1.0602,-1.678492E-05,15.903,0
1.0611,2.450599E-05,15.9165,0,1.0611,-3.860533E-05,15.9165,0
1.062,-3.558404E-05,15.93,0,1.062,-2.349889E-06,15.93,0
1.0629,-4.632639E-05,15.9435,0,1.0629,7.049668E-06,15.9435,0
1.0638,-4.565499E-05,15.957,0,1.0638,-2.584878E-05,15.957,0
1.0647,-8.023193E-05,15.9705,0,1.0647,-2.349889E-05,15.9705,0
1.0656,-5.404745E-05,15.984,0,1.0656,5.371176E-06,15.984,0
1.0665,1.510643E-05,15.9975,0,1.0665,-3.692683E-06,15.9975,0
1.0674,3.256275E-05,16.011,0,1.0674,-6.713969E-06,16.011,0
1.0683,4.095522E-05,16.0245,0,1.0683,-2.584878E-05,16.0245,0
1.0692,5.069047E-05,16.038,0,1.0692,-6.713969E-06,16.038,0
1.0701,5.203327E-05,16.0515,0,1.0701,2.24918E-05,16.0515,0
1.071,4.901198E-05,16.065,0,1.071,-6.713969E-07,16.065,0
1.0719,5.236896E-05,16.0785,0,1.0719,-3.021286E-06,16.0785,0
1.0728,2.786297E-05,16.092,0,1.0728,2.987716E-05,16.092,0
1.0737,-1.107805E-05,16.1055,0,1.0737,-8.728161E-06,16.1055,0
1.0746,8.392462E-06,16.119,0,1.0746,-6.176852E-05,16.119,0
1.0755,6.713969E-06,16.1325,0,1.0755,-1.443504E-05,16.1325,0
1.0764,-4.061952E-05,16.146,0,1.0764,-8.392462E-06,16.146,0
1.0773,-6.478981E-05,16.1595,0,1.0773,-4.43122E-05,16.1595,0
1.0782,-5.941863E-05,16.173,0,1.0782,-4.666209E-05,16.173,0
1.0791,-5.505455E-05,16.1865,0,1.0791,-2.081331E-05,16.1865,0
1.08,-5.136187E-05,16.2,0,1.08,-1.309224E-05,16.2,0
1.0809,-3.021286E-06,16.2135,0,1.0809,-1.141375E-05,16.2135,0
1.0818,2.786297E-05,16.227,0,1.0818,-4.934768E-05,16.227,0
1.0827,3.189136E-05,16.2405,0,1.0827,-3.625543E-05,16.2405,0
1.0836,2.618448E-05,16.254,0,1.0836,-1.107805E-05,16.254,0
1.0845,2.28275E-05,16.2675,0,1.0845,-5.404745E-05,16.2675,0
1.0854,2.752728E-05,16.281,0,1.0854,-3.860533E-05,16.281,0
1.0863,-1.342794E-05,16.2945,0,1.0863,1.443504E-05,16.2945,0
1.0872,-4.867628E-05,16.308,0,1.0872,1.040665E-05,16.308,0
1.0881,-2.987716E-05,16.3215,0,1.0881,-8.627451E-05,16.3215,0
1.089,6.378271E-06,16.335,0,1.089,-4.666209E-05,16.335,0
1.0899,6.378271E-06,16.3485,0,1.0899,-3.390555E-05,16.3485,0
1.0908,-1.174945E-05,16.362,0,1.0908,-0.0001010452,16.362,0
1.0917,7.049668E-06,16.3755,0,1.0917,-0.0001138018,16.3755,0
1.0926,7.721065E-06,16.389,0,1.0926,-1.644922E-05,16.389,0
1.0935,-8.056763E-06,16.4025,0,1.0935,7.418937E-05,16.4025,0
1.0944,-3.121996E-05,16.416,0,1.0944,5.673304E-05,16.416,0
1.0953,-5.069047E-05,16.4295,0,1.0953,-5.035477E-06,16.4295,0
1.0962,-4.666209E-05,16.443,0,1.0962,-1.174945E-05,16.443,0
1.0971,-3.054856E-05,16.4565,0,1.0971,5.035477E-06,16.4565,0
1.098,-3.021286E-06,16.47,0,1.098,-7.016098E-05,16.47,0
1.0989,1.510643E-05,16.4835,0,1.0989,-8.661021E-05,16.4835,0
1.0998,-5.035477E-06,16.497,0,1.0998,-6.378271E-06,16.497,0
1.1007,1.577783E-05,16.5105,0,1.1007,-2.047761E-05,16.5105,0
1.1016,4.39765E-05,16.524,0,1.1016,-5.270466E-05,16.524,0
1.1025,-2.383459E-05,16.5375,0,1.1025,-3.356985E-07,16.5375,0
1.1034,-3.793393E-05,16.551,0,1.1034,3.256275E-05,16.551,0
1.1043,-2.18204E-05,16.5645,0,1.1043,2.349889E-06,16.5645,0
1.1052,-4.061952E-05,16.578,0,1.1052,1.342794E-06,16.578,0
1.1061,-5.807584E-05,16.5915,0,1.1061,1.443504E-05,16.5915,0
1.107,-2.819867E-05,16.605,0,1.107,-1.107805E-05,16.605,0
1.1079,-1.141375E-05,16.6185,0,1.1079,-1.980621E-05,16.6185,0
1.1088,1.007095E-06,16.632,0,1.1088,-2.786297E-05,16.632,0
1.1097,3.826963E-05,16.6455,0,1.1097,-1.678492E-05,16.6455,0
1.1106,2.887007E-05,16.659,0,1.1106,-1.678492E-06,16.659,0
1.1115,-5.035477E-06,16.6725,0,1.1115,-2.584878E-05,16.6725,0
1.1124,1.174945E-05,16.686,0,1.1124,-4.867628E-05,16.686,0
1.1133,-3.021286E-06,16.6995,0,1.1133,1.879912E-05,16.6995,0
1.1142,1.007095E-06,16.713,0,1.1142,1.007095E-05,16.713,0
1.1151,2.484169E-05,16.7265,0,1.1151,-4.46479E-05,16.7265,0
1.116,6.378271E-06,16.74,0,1.116,-2.450599E-05,16.74,0
1.1169,-1.644922E-05,16.7535,0,1.1169,6.713969E-07,16.7535,0
1.1178,-1.309224E-05,16.767,0,1.1178,-1.040665E-05,16.767,0
1.1187,3.692683E-06,16.7805,0,1.1187,-3.860533E-05,16.7805,0
1.1196,-1.443504E-05,16.794,0,1.1196,-5.404745E-05,16.794,0
1.1205,-3.356985E-06,16.8075,0,1.1205,-2.652018E-05,16.8075,0
1.1214,1.174945E-05,16.821,0,1.1214,-1.678492E-05,16.821,0
1.1223,1.712062E-05,16.8345,0,1.1223,-3.457694E-05,16.8345,0
1.1232,2.450599E-05,16.848,0,1.1232,-1.007095E-06,16.848,0
1.1241,1.107805E-05,16.8615,0,1.1241,8.392462E-06,16.8615,0
1.125,-4.095522E-05,16.875,0,1.125,-2.047761E-05,16.875,0
1.1259,-2.920577E-05,16.8885,0,1.1259,-4.39765E-05,16.8885,0
1.1268,-2.18204E-05,16.902,0,1.1268,-6.713969E-07,16.902,0
1.1277,-3.323415E-05,16.9155,0,1.1277,-5.706874E-06,16.9155,0
1.1286,-2.719158E-05,16.929,0,1.1286,-4.36408E-05,16.929,0
1.1295,-1.443504E-05,16.9425,0,1.1295,-7.721065E-06,16.9425,0
1.1304,-3.356985E-07,16.956,0,1.1304,7.049668E-06,16.956,0
1.1313,-3.860533E-05,16.9695,0,1.1313,-3.659113E-05,16.9695,0
1.1322,-4.867628E-05,16.983,0,1.1322,-2.081331E-05,16.983,0
1.1331,-9.399558E-06,16.9965,0,1.1331,6.713969E-06,16.9965,0
1.134,-2.652018E-05,17.01,0,1.134,-1.846342E-05,17.01,0
1.1349,-6.57969E-05,17.0235,0,1.1349,-2.047761E-05,17.0235,0
1.1358,-1.913481E-05,17.037,0,1.1358,-2.719158E-05,17.037,0
1.1367,2.551309E-05,17.0505,0,1.1367,-7.049668E-06,17.0505,0
1.1376,-1.846342E-05,17.064,0,1.1376,-2.18204E-05,17.064,0
1.1385,-1.443504E-05,17.0775,0,1.1385,-3.155566E-05,17.0775,0
1.1394,4.53193E-05,17.091,0,1.1394,-3.659113E-05,17.091,0
1.1403,-6.713969E-07,17.1045,0,1.1403,2.349889E-06,17.1045,0
1.1412,7.721065E-06,17.118,0,1.1412,-1.242084E-05,17.118,0
1.1421,4.867628E-05,17.1315,0,1.1421,-5.001907E-05,17.1315,0
1.143,5.807584E-05,17.145,0,1.143,-1.510643E-05,17.145,0
1.1439,7.116808E-05,17.1585,0,1.1439,-2.349889E-05,17.1585,0
1.1448,3.860533E-05,17.172,0,1.1448,-5.337606E-05,17.172,0
1.1457,2.24918E-05,17.1855,0,1.1457,-4.599069E-05,17.1855,0
1.1466,-1.174945E-05,17.199,0,1.1466,-5.706874E-06,17.199,0
1.1475,-4.36408E-05,17.2125,0,1.1475,-6.378271E-06,17.2125,0
1.1484,-5.874724E-05,17.226,0,1.1484,-2.047761E-05,17.226,0
1.1493,-6.881819E-05,17.2395,0,1.1493,-3.860533E-05,17.2395,0
1.1502,-6.6804E-05,17.253,0,1.1502,-3.088426E-05,17.253,0
1.1511,-6.143282E-05,17.2665,0,1.1511,-1.544213E-05,17.2665,0
1.152,-6.948959E-05,17.28,0,1.152,-2.719158E-05,17.28,0
1.1529,1.779202E-05,17.2935,0,1.1529,-4.095522E-05,17.2935,0
1.1538,2.584878E-05,17.307,0,1.1538,6.713969E-06,17.307,0
1.1547,1.644922E-05,17.3205,0,1.1547,1.443504E-05,17.3205,0
1.1556,4.162661E-05,17.334,0,1.1556,-1.544213E-05,17.334,0
1.1565,1.007095E-05,17.3475,0,1.1565,1.040665E-05,17.3475,0
1.1574,-1.510643E-05,17.361,0,1.1574,2.652018E-05,17.361,0
1.1583,-3.155566E-05,17.3745,0,1.1583,-8.056763E-06,17.3745,0
1.1592,1.376364E-05,17.388,0,1.1592,-5.706874E-06,17.388,0
1.1601,-1.242084E-05,17.4015,0,1.1601,2.1149E-05,17.4015,0
1.161,-3.591974E-05,17.415,0,1.161,-3.692683E-06,17.415,0
1.1619,-2.819867E-05,17.4285,0,1.1619,-3.659113E-05,17.4285,0
1.1628,-1.443504E-05,17.442,0,1.1628,-8.358892E-05,17.442,0
1.1637,5.035477E-06,17.4555,0,1.1637,-6.076142E-05,17.4555,0
1.1646,3.356985E-07,17.469,0,1.1646,-2.517739E-05,17.469,0
1.1655,1.040665E-05,17.4825,0,1.1655,-1.007095E-06,17.4825,0
1.1664,1.712062E-05,17.496,0,1.1664,9.063859E-06,17.496,0
1.1673,3.424125E-05,17.5095,0,1.1673,-8.728161E-06,17.5095,0
1.1682,3.021286E-05,17.523,0,1.1682,-9.063859E-06,17.523,0
1.1691,3.021286E-05,17.5365,0,1.1691,-2.450599E-05,17.5365,0
1.17,1.007095E-05,17.55,0,1.17,-5.035477E-06,17.55,0
1.1709,-3.356985E-05,17.5635,0,1.1709,-4.36408E-06,17.5635,0
1.1718,-2.21561E-05,17.577,0,1.1718,-3.121996E-05,17.577,0
1.1727,-2.316319E-05,17.5905,0,1.1727,-4.263371E-05,17.5905,0
1.1736,-4.061952E-05,17.604,0,1.1736,-2.987716E-05,17.604,0
1.1745,-1.107805E-05,17.6175,0,1.1745,-3.021286E-05,17.6175,0
1.1754,1.409934E-05,17.631,0,1.1754,-2.081331E-05,17.631,0
1.1763,1.678492E-06,17.6445,0,1.1763,-2.652018E-05,17.6445,0
1.1772,1.611353E-05,17.658,0,1.1772,1.174945E-05,17.658,0
1.1781,1.510643E-05,17.6715,0,1.1781,3.591974E-05,17.6715,0
1.179,6.378271E-06,17.685,0,1.179,-2.349889E-06,17.685,0
1.1799,1.779202E-05,17.6985,0,1.1799,-2.24918E-05,17.6985,0
1.1808,-3.088426E-05,17.712,0,1.1808,-1.678492E-06,17.712,0
1.1817,-1.477073E-05,17.7255,0,1.1817,-2.047761E-05,17.7255,0
1.1826,3.591974E-05,17.739,0,1.1826,-5.874724E-05,17.739,0
1.1835,-3.356985E-07,17.7525,0,1.1835,-3.054856E-05,17.7525,0
1.1844,-6.54612E-05,17.766,0,1.1844,-1.644922E-05,17.766,0
1.1853,-7.452507E-05,17.7795,0,1.1853,-4.095522E-05,17.7795,0
1.1862,-5.069047E-05,17.793,0,1.1862,-5.471885E-05,17.793,0
1.1871,-4.934768E-05,17.8065,0,1.1871,-2.618448E-05,17.8065,0
1.188,-6.378271E-05,17.82,0,1.188,-2.1149E-05,17.82,0
1.1889,-3.927672E-05,17.8335,0,1.1889,-2.047761E-05,17.8335,0
1.1898,-1.242084E-05,17.847,0,1.1898,-3.021286E-06,17.847,0
1.1907,-1.409934E-05,17.8605,0,1.1907,-6.713969E-07,17.8605,0
1.1916,8.728161E-06,17.874,0,1.1916,-3.927672E-05,17.874,0
1.1925,1.644922E-05,17.8875,0,1.1925,-6.478981E-05,17.8875,0
1.1934,4.766919E-05,17.901,0,1.1934,-3.793393E-05,17.901,0
1.1943,1.309224E-05,17.9145,0,1.1943,1.275654E-05,17.9145,0
1.1952,-3.323415E-05,17.928,0,1.1952,2.752728E-05,17.928,0
1.1961,4.263371E-05,17.9415,0,1.1961,-2.954147E-05,17.9415,0
1.197,1.678492E-05,17.955,0,1.197,-2.786297E-05,17.955,0
1.1979,-2.316319E-05,17.9685,0,1.1979,-1.477073E-05,17.9685,0
1.1988,-1.174945E-05,17.982,0,1.1988,-3.927672E-05,17.982,0
1.1997,3.961242E-05,17.9955,0,1.1997,-3.021286E-06,17.9955,0
1.2006,-1.040665E-05,18.009,0,1.2006,1.779202E-05,18.009,0
1.2015,-3.189136E-05,18.0225,0,1.2015,-7.049668E-06,18.0225,0
1.2024,-1.980621E-05,18.036,0,1.2024,-2.014191E-06,18.036,0
1.2033,-1.007095E-06,18.0495,0,1.2033,-1.376364E-05,18.0495,0
1.2042,-2.752728E-05,18.063,0,1.2042,1.342794E-06,18.063,0
1.2051,-4.263371E-05,18.0765,0,1.2051,-5.035477E-06,18.0765,0
1.206,-3.390555E-05,18.09,0,1.206,-4.934768E-05,18.09,0
1.2069,-2.887007E-05,18.1035,0,1.2069,-3.793393E-05,18.1035,0
1.2078,-1.644922E-05,18.117,0,1.2078,2.1149E-05,18.117,0
1.2087,-1.376364E-05,18.1305,0,1.2087,1.611353E-05,18.1305,0
1.2096,1.174945E-05,18.144,0,1.2096,-3.927672E-05,18.144,0
1.2105,4.46479E-05,18.1575,0,1.2105,9.735256E-06,18.1575,0
1.2114,4.229801E-05,18.171,0,1.2114,1.174945E-05,18.171,0
1.2123,3.994812E-05,18.1845,0,1.2123,-2.618448E-05,18.1845,0
1.2132,2.28275E-05,18.198,0,1.2132,-3.692683E-05,18.198,0
1.2141,-3.021286E-06,18.2115,0,1.2141,-1.376364E-05,18.2115,0
1.215,-5.706874E-06,18.225,0,1.215,-1.611353E-05,18.225,0
1.2159,1.007095E-05,18.2385,0,1.2159,-1.712062E-05,18.2385,0
1.2168,5.639734E-05,18.252,0,1.2168,-2.719158E-05,18.252,0
1.2177,8.728161E-06,18.2655,0,1.2177,-5.337606E-05,18.2655,0
1.2186,-5.505455E-05,18.279,0,1.2186,-5.136187E-05,18.279,0
1.2195,-2.450599E-05,18.2925,0,1.2195,-3.491264E-05,18.2925,0
1.2204,-5.706874E-06,18.306,0,1.2204,-6.411841E-05,18.306,0
1.2213,-2.18204E-05,18.3195,0,1.2213,-2.853437E-05,18.3195,0
1.2222,-3.256275E-05,18.333,0,1.2222,-5.740444E-05,18.333,0
1.2231,-3.021286E-05,18.3465,0,1.2231,-9.433127E-05,18.3465,0
1.224,-2.853437E-05,18.36,0,1.224,-2.1149E-05,18.36,0
1.2249,-2.584878E-05,18.3735,0,1.2249,6.042573E-06,18.3735,0
1.2258,3.692683E-06,18.387,0,1.2258,-2.920577E-05,18.387,0
1.2267,1.779202E-05,18.4005,0,1.2267,-3.323415E-05,18.4005,0
1.2276,-1.544213E-05,18.414,0,1.2276,-1.107805E-05,18.414,0
1.2285,-3.121996E-05,18.4275,0,1.2285,-1.644922E-05,18.4275,0
1.2294,3.356985E-06,18.441,0,1.2294,-1.376364E-05,18.441,0
1.2303,-7.721065E-06,18.4545,0,1.2303,-3.524834E-05,18.4545,0
1.2312,8.392462E-06,18.468,0,1.2312,8.392462E-06,18.468,0
1.2321,1.107805E-05,18.4815,0,1.2321,4.599069E-05,18.4815,0
1.233,-2.584878E-05,18.495,0,1.233,5.706874E-06,18.495,0
1.2339,-1.745632E-05,18.5085,0,1.2339,-3.256275E-05,18.5085,0
1.2348,-1.510643E-05,18.522,0,1.2348,4.36408E-06,18.522,0
1.2357,-2.853437E-05,18.5355,0,1.2357,1.678492E-06,18.5355,0
1.2366,-7.721065E-06,18.549,0,1.2366,-3.994812E-05,18.549,0
1.2375,-2.450599E-05,18.5625,0,1.2375,-2.1149E-05,18.5625,0
1.2384,-7.049668E-06,18.576,0,1.2384,-1.678492E-06,18.576,0
1.2393,-8.392462E-06,18.5895,0,1.2393,-1.812772E-05,18.5895,0
1.2402,7.385367E-06,18.603,0,1.2402,2.450599E-05,18.603,0
1.2411,-4.028382E-06,18.6165,0,1.2411,5.270466E-05,18.6165,0
1.242,-2.417029E-05,18.63,0,1.242,4.028382E-06,18.63,0
1.2429,-1.342794E-06,18.6435,0,1.2429,-2.786297E-05,18.6435,0
1.2438,0,18.657,0,1.2438,-7.183947E-05,18.657,0
1.2447,-1.644922E-05,18.6705,0,1.2447,-4.666209E-05,18.6705,0
1.2456,-6.210422E-05,18.684,0,1.2456,-2.517739E-05,18.684,0
1.2465,-4.599069E-05,18.6975,0,1.2465,-3.558404E-05,18.6975,0
1.2474,-3.021286E-05,18.711,0,1.2474,-4.49836E-05,18.711,0
1.2483,-1.141375E-05,18.7245,0,1.2483,-4.028382E-06,18.7245,0
1.2492,1.107805E-05,18.738,0,1.2492,-4.49836E-05,18.738,0
1.2501,4.699779E-05,18.7515,0,1.2501,-8.258183E-05,18.7515,0
1.251,2.853437E-05,18.765,0,1.251,5.706874E-06,18.765,0
1.2519,-2.21561E-05,18.7785,0,1.2519,3.356985E-06,18.7785,0
1.2528,-4.43122E-05,18.792,0,1.2528,-1.879912E-05,18.792,0
1.2537,3.356985E-07,18.8055,0,1.2537,1.779202E-05,18.8055,0
1.2546,8.728161E-06,18.819,0,1.2546,1.174945E-05,18.819,0
1.2555,1.879912E-05,18.8325,0,1.2555,-9.063859E-06,18.8325,0
1.2564,1.443504E-05,18.846,0,1.2564,-1.779202E-05,18.846,0
1.2573,3.289845E-05,18.8595,0,1.2573,-3.121996E-05,18.8595,0
1.2582,-1.007095E-06,18.873,0,1.2582,-1.913481E-05,18.873,0
1.2591,-5.371176E-06,18.8865,0,1.2591,6.378271E-06,18.8865,0
1.26,1.443504E-05,18.9,0,1.26,-1.040665E-05,18.9,0
1.2609,1.577783E-05,18.9135,0,1.2609,-3.961242E-05,18.9135,0
1.2618,-1.779202E-05,18.927,0,1.2618,-7.049668E-06,18.927,0
1.2627,-6.378271E-06,18.9405,0,1.2627,-8.392462E-06,18.9405,0
1.2636,1.846342E-05,18.954,0,1.2636,-4.33051E-05,18.954,0
1.2645,-3.256275E-05,18.9675,0,1.2645,3.692683E-06,18.9675,0
1.2654,-5.001907E-05,18.981,0,1.2654,2.349889E-06,18.981,0
1.2663,1.242084E-05,18.9945,0,1.2663,-2.853437E-05,18.9945,0
1.2672,-1.309224E-05,19.008,0,1.2672,-3.894102E-05,19.008,0
1.2681,-1.913481E-05,19.0215,0,1.2681,-7.721065E-06,19.0215,0
1.269,1.644922E-05,19.035,0,1.269,-7.049668E-06,19.035,0
1.2699,1.779202E-05,19.0485,0,1.2699,-1.846342E-05,19.0485,0
1.2708,-2.1149E-05,19.062,0,1.2708,-3.894102E-05,19.062,0
1.2717,-2.853437E-05,19.0755,0,1.2717,-3.256275E-05,19.0755,0
1.2726,-4.061952E-05,19.089,0,1.2726,-2.584878E-05,19.089,0
1.2735,-4.53193E-05,19.1025,0,1.2735,-4.599069E-05,19.1025,0
1.2744,-2.551309E-05,19.116,0,1.2744,-6.176852E-05,19.116,0
1.2753,-1.107805E-05,19.1295,0,1.2753,-2.853437E-05,19.1295,0
1.2762,-2.047761E-05,19.143,0,1.2762,-3.558404E-05,19.143,0
1.2771,-3.356985E-07,19.1565,0,1.2771,-6.54612E-05,19.1565,0
1.278,1.141375E-05,19.17,0,1.278,-8.056763E-06,19.17,0
1.2789,2.517739E-05,19.1835,0,1.2789,8.560311E-05,19.1835,0
1.2798,1.980621E-05,19.197,0,1.2798,2.24918E-05,19.197,0
1.2807,-5.001907E-05,19.2105,0,1.2807,-9.063859E-06,19.2105,0
1.2816,-1.510643E-05,19.224,0,1.2816,-1.275654E-05,19.224,0
1.2825,1.040665E-05,19.2375,0,1.2825,-3.491264E-05,19.2375,0
1.2834,6.378271E-06,19.251,0,1.2834,-3.860533E-05,19.251,0
1.2843,2.685588E-06,19.2645,0,1.2843,-8.627451E-05,19.2645,0
1.2852,3.356985E-07,19.278,0,1.2852,-3.659113E-05,19.278,0
1.2861,3.692683E-06,19.2915,0,1.2861,3.994812E-05,19.2915,0
1.287,1.040665E-05,19.305,0,1.287,3.591974E-05,19.305,0
1.2879,-2.383459E-05,19.3185,0,1.2879,-2.1149E-05,19.3185,0
1.2888,-5.471885E-05,19.332,0,1.2888,-3.692683E-06,19.332,0
1.2897,-3.860533E-05,19.3455,0,1.2897,-1.980621E-05,19.3455,0
1.2906,-2.920577E-05,19.359,0,1.2906,-5.169757E-05,19.359,0
1.2915,-5.941863E-05,19.3725,0,1.2915,-8.392462E-06,19.3725,0
1.2924,1.309224E-05,19.386,0,1.2924,-1.141375E-05,19.386,0
1.2933,7.620356E-05,19.3995,0,1.2933,-4.162661E-05,19.3995,0
1.2942,4.196231E-05,19.413,0,1.2942,-1.980621E-05,19.413,0
1.2951,4.36408E-05,19.4265,0,1.2951,-7.049668E-06,19.4265,0
1.296,4.599069E-05,19.44,0,1.296,-2.450599E-05,19.44,0
1.2969,6.411841E-05,19.4535,0,1.2969,0,19.4535,0
1.2978,2.652018E-05,19.467,0,1.2978,-3.692683E-06,19.467,0
1.2987,4.36408E-06,19.4805,0,1.2987,1.007095E-06,19.4805,0
1.2996,-2.28275E-05,19.494,0,1.2996,-8.392462E-06,19.494,0
1.3005,-1.577783E-05,19.5075,0,1.3005,2.349889E-06,19.5075,0
1.3014,-4.36408E-06,19.521,0,1.3014,1.040665E-05,19.521,0
1.3023,-3.189136E-05,19.5345,0,1.3023,2.450599E-05,19.5345,0
1.3032,-2.719158E-05,19.548,0,1.3032,-1.107805E-05,19.548,0
1.3041,-8.728161E-06,19.5615,0,1.3041,-0.000102388,19.5615,0
1.305,-3.323415E-05,19.575,0,1.305,-5.874724E-05,19.575,0
1.3059,7.721065E-06,19.5885,0,1.3059,-6.277562E-05,19.5885,0
1.3068,4.666209E-05,19.602,0,1.3068,-5.069047E-05,19.602,0
1.3077,6.78111E-05,19.6155,0,1.3077,-2.920577E-05,19.6155,0
1.3086,-1.913481E-05,19.629,0,1.3086,-3.994812E-05,19.629,0
1.3095,-4.196231E-05,19.6425,0,1.3095,-4.33051E-05,19.6425,0
1.3104,-6.076142E-05,19.656,0,1.3104,-3.021286E-05,19.656,0
1.3113,-3.793393E-05,19.6695,0,1.3113,-1.712062E-05,19.6695,0
1.3122,-2.349889E-05,19.683,0,1.3122,1.174945E-05,19.683,0
1.3131,-7.016098E-05,19.6965,0,1.3131,5.069047E-05,19.6965,0
1.314,-3.591974E-05,19.71,0,1.314,3.222705E-05,19.71,0
1.3149,-1.007095E-06,19.7235,0,1.3149,-4.36408E-06,19.7235,0
1.3158,-3.793393E-05,19.737,0,1.3158,1.174945E-05,19.737,0
1.3167,-6.54612E-05,19.7505,0,1.3167,-9.063859E-06,19.7505,0
1.3176,-3.390555E-05,19.764,0,1.3176,-7.754635E-05,19.764,0
1.3185,-4.599069E-05,19.7775,0,1.3185,-4.46479E-05,19.7775,0
1.3194,-3.021286E-06,19.791,0,1.3194,-2.719158E-05,19.791,0
1.3203,1.577783E-05,19.8045,0,1.3203,-4.666209E-05,19.8045,0
1.3212,-1.443504E-05,19.818,0,1.3212,-2.652018E-05,19.818,0
1.3221,-1.040665E-05,19.8315,0,1.3221,-1.007095E-06,19.8315,0
1.323,3.021286E-06,19.845,0,1.323,-1.107805E-05,19.845,0
1.3239,6.713969E-07,19.8585,0,1.3239,-3.155566E-05,19.8585,0
1.3248,2.383459E-05,19.872,0,1.3248,-2.819867E-05,19.872,0
1.3257,3.994812E-05,19.8855,0,1.3257,1.208515E-05,19.8855,0
1.3266,7.721065E-06,19.899,0,1.3266,-1.174945E-05,19.899,0
1.3275,-3.021286E-06,19.9125,0,1.3275,-4.229801E-05,19.9125,0
1.3284,-1.007095E-05,19.926,0,1.3284,-3.189136E-05,19.926,0
1.3293,1.779202E-05,19.9395,0,1.3293,3.021286E-05,19.9395,0
1.3302,1.376364E-05,19.953,0,1.3302,1.947051E-05,19.953,0
1.3311,-9.399558E-06,19.9665,0,1.3311,-4.53193E-05,19.9665,0
1.332,-7.049668E-06,19.98,0,1.332,1.678492E-05,19.98,0
1.3329,-3.726253E-05,19.9935,0,1.3329,-1.644922E-05,19.9935,0
1.3338,-3.659113E-05,20.007,0,1.3338,-7.150377E-05,20.007,0
1.3347,1.913481E-05,20.0205,0,1.3347,-2.618448E-05,20.0205,0
1.3356,1.208515E-05,20.034,0,1.3356,-8.392462E-06,20.034,0
1.3365,2.349889E-05,20.0475,0,1.3365,-1.510643E-05,20.0475,0
1.3374,2.349889E-06,20.061,0,1.3374,-1.913481E-05,20.061,0
1.3383,-2.584878E-05,20.0745,0,1.3383,-3.927672E-05,20.0745,0
1.3392,-5.438316E-05,20.088,0,1.3392,-1.376364E-05,20.088,0
1.3401,-8.560311E-05,20.1015,0,1.3401,1.846342E-05,20.1015,0
1.341,-5.539025E-05,20.115,0,1.341,-1.510643E-05,20.115,0
1.3419,-1.846342E-05,20.1285,0,1.3419,-4.43122E-05,20.1285,0
1.3428,5.035477E-06,20.142,0,1.3428,-1.040665E-05,20.142,0
1.3437,1.712062E-05,20.1555,0,1.3437,-2.349889E-06,20.1555,0
1.3446,4.834058E-05,20.169,0,1.3446,-2.18204E-05,20.169,0
1.3455,3.054856E-05,20.1825,0,1.3455,2.887007E-05,20.1825,0
1.3464,2.517739E-05,20.196,0,1.3464,3.088426E-05,20.196,0
1.3473,1.678492E-05,20.2095,0,1.3473,-4.53193E-05,20.2095,0
1.3482,1.040665E-05,20.223,0,1.3482,-7.486076E-05,20.223,0
1.3491,-1.913481E-05,20.2365,0,1.3491,-3.289845E-05,20.2365,0
1.35,-1.376364E-05,20.25,0,1.35,-6.411841E-05,20.25,0
1.3509,-4.699779E-06,20.2635,0,1.3509,-8.89601E-05,20.2635,0
1.3518,-7.721065E-06,20.277,0,1.3518,-6.378271E-06,20.277,0
1.3527,1.007095E-06,20.2905,0,1.3527,4.162661E-05,20.2905,0
1.3536,-1.678492E-06,20.304,0,1.3536,8.728161E-06,20.304,0
1.3545,1.242084E-05,20.3175,0,1.3545,-7.721065E-06,20.3175,0
1.3554,3.692683E-06,20.331,0,1.3554,-8.392462E-06,20.331,0
1.3563,-3.692683E-06,20.3445,0,1.3563,-3.356985E-06,20.3445,0
1.3572,6.042573E-06,20.358,0,1.3572,-4.095522E-05,20.358,0
1.3581,-1.879912E-05,20.3715,0,1.3581,-9.567407E-05,20.3715,0
1.359,-4.632639E-05,20.385,0,1.359,-4.33051E-05,20.385,0
1.3599,-3.524834E-05,20.3985,0,1.3599,1.678492E-06,20.3985,0
1.3608,-7.452507E-05,20.412,0,1.3608,-1.712062E-05,20.412,0
1.3617,-2.987716E-05,20.4255,0,1.3617,-3.256275E-05,20.4255,0
1.3626,-3.356985E-06,20.439,0,1.3626,-7.049668E-06,20.439,0
1.3635,3.356985E-07,20.4525,0,1.3635,-3.692683E-06,20.4525,0
1.3644,8.728161E-06,20.466,0,1.3644,-1.007095E-06,20.466,0
1.3653,1.577783E-05,20.4795,0,1.3653,-1.107805E-05,20.4795,0
1.3662,1.208515E-05,20.493,0,1.3662,2.21561E-05,20.493,0
1.3671,-2.786297E-05,20.5065,0,1.3671,4.867628E-05,20.5065,0
1.368,-2.316319E-05,20.52,0,1.368,5.035477E-06,20.52,0
1.3689,3.356985E-07,20.5335,0,1.3689,-6.54612E-05,20.5335,0
1.3698,-3.021286E-05,20.547,0,1.3698,-2.786297E-05,20.547,0
1.3707,-2.316319E-05,20.5605,0,1.3707,-5.807584E-05,20.5605,0
1.3716,-3.356985E-07,20.574,0,1.3716,-0.0001185016,20.574,0
1.3725,-3.256275E-05,20.5875,0,1.3725,-4.632639E-05,20.5875,0
1.3734,3.021286E-06,20.601,0,1.3734,-3.558404E-05,20.601,0
1.3743,3.692683E-05,20.6145,0,1.3743,-8.123904E-05,20.6145,0
1.3752,4.263371E-05,20.628,0,1.3752,-5.740444E-05,20.628,0
1.3761,6.378271E-05,20.6415,0,1.3761,2.1149E-05,20.6415,0
1.377,6.64683E-05,20.655,0,1.377,5.337606E-05,20.655,0
1.3779,2.517739E-05,20.6685,0,1.3779,2.081331E-05,20.6685,0
1.3788,-1.644922E-05,20.682,0,1.3788,-1.712062E-05,20.682,0
1.3797,-5.706874E-05,20.6955,0,1.3797,-2.18204E-05,20.6955,0
1.3806,-8.358892E-05,20.709,0,1.3806,-1.074235E-05,20.709,0
1.3815,-6.881819E-05,20.7225,0,1.3815,-1.040665E-05,20.7225,0
1.3824,-6.210422E-05,20.736,0,1.3824,6.713969E-07,20.736,0
1.3833,-2.719158E-05,20.7495,0,1.3833,1.846342E-05,20.7495,0
1.3842,-6.713969E-07,20.763,0,1.3842,-3.659113E-05,20.763,0
1.3851,3.189136E-05,20.7765,0,1.3851,-7.083238E-05,20.7765,0
1.386,4.46479E-05,20.79,0,1.386,-1.846342E-05,20.79,0
1.3869,3.189136E-05,20.8035,0,1.3869,-1.007095E-06,20.8035,0
1.3878,-1.510643E-05,20.817,0,1.3878,-2.584878E-05,20.817,0
1.3887,-2.853437E-05,20.8305,0,1.3887,2.28275E-05,20.8305,0
1.3896,-2.853437E-05,20.844,0,1.3896,4.263371E-05,20.844,0
1.3905,-8.728161E-06,20.8575,0,1.3905,-3.994812E-05,20.8575,0
1.3914,1.342794E-06,20.871,0,1.3914,-5.035477E-05,20.871,0
1.3923,1.007095E-06,20.8845,0,1.3923,-3.121996E-05,20.8845,0
1.3932,-1.947051E-05,20.898,0,1.3932,5.035477E-06,20.898,0
1.3941,5.706874E-06,20.9115,0,1.3941,3.189136E-05,20.9115,0
1.395,2.21561E-05,20.925,0,1.395,1.007095E-06,20.925,0
1.3959,5.035477E-06,20.9385,0,1.3959,-4.766919E-05,20.9385,0
1.3968,2.349889E-06,20.952,0,1.3968,-9.735256E-06,20.952,0
1.3977,1.913481E-05,20.9655,0,1.3977,-2.618448E-05,20.9655,0
1.3986,8.392462E-06,20.979,0,1.3986,-5.673304E-05,20.979,0
1.3995,-1.409934E-05,20.9925,0,1.3995,-1.107805E-05,20.9925,0
1.4004,-3.021286E-06,21.006,0,1.4004,-2.014191E-06,21.006,0
1.4013,-1.678492E-06,21.0195,0,1.4013,-4.095522E-05,21.0195,0
1.4022,4.699779E-06,21.033,0,1.4022,-3.524834E-05,21.033,0
1.4031,-2.853437E-05,21.0465,0,1.4031,-1.913481E-05,21.0465,0
1.404,-4.229801E-05,21.06,0,1.404,-1.846342E-05,21.06,0
1.4049,-3.961242E-05,21.0735,0,1.4049,-1.644922E-05,21.0735,0
1.4058,-3.189136E-05,21.087,0,1.4058,-1.040665E-05,21.087,0
1.4067,-4.39765E-05,21.1005,0,1.4067,1.040665E-05,21.1005,0
1.4076,-2.853437E-05,21.114,0,1.4076,2.349889E-06,21.114,0
1.4085,3.021286E-06,21.1275,0,1.4085,-1.141375E-05,21.1275,0
1.4094,6.344701E-05,21.141,0,1.4094,-3.021286E-06,21.141,0
1.4103,-3.121996E-05,21.1545,0,1.4103,-3.860533E-05,21.1545,0
1.4112,-3.121996E-05,21.168,0,1.4112,-4.800488E-05,21.168,0
1.4121,4.599069E-05,21.1815,0,1.4121,-4.834058E-05,21.1815,0
1.413,-1.309224E-05,21.195,0,1.413,-2.584878E-05,21.195,0
1.4139,-1.309224E-05,21.2085,0,1.4139,-5.706874E-06,21.2085,0
1.4148,1.007095E-05,21.222,0,1.4148,-2.719158E-05,21.222,0
1.4157,-5.706874E-06,21.2355,0,1.4157,-3.356985E-06,21.2355,0
1.4166,-3.155566E-05,21.249,0,1.4166,3.021286E-06,21.249,0
1.4175,-1.913481E-05,21.2625,0,1.4175,3.356985E-07,21.2625,0
1.4184,-1.913481E-05,21.276,0,1.4184,-3.021286E-06,21.276,0
1.4193,-3.021286E-06,21.2895,0,1.4193,-2.987716E-05,21.2895,0
1.4202,8.392462E-06,21.303,0,1.4202,-4.33051E-05,21.303,0
1.4211,-1.309224E-05,21.3165,0,1.4211,-3.457694E-05,21.3165,0
1.422,0,21.33,0,1.422,-5.841154E-05,21.33,0
1.4229,1.678492E-06,21.3435,0,1.4229,-6.51255E-05,21.3435,0
1.4238,-2.28275E-05,21.357,0,1.4238,-1.846342E-05,21.357,0
1.4247,-1.644922E-05,21.3705,0,1.4247,-7.721065E-06,21.3705,0
1.4256,-1.779202E-05,21.384,0,1.4256,-4.834058E-05,21.384,0
1.4265,-5.035477E-06,21.3975,0,1.4265,1.141375E-05,21.3975,0
1.4274,-1.544213E-05,21.411,0,1.4274,3.961242E-05,21.411,0
1.4283,-4.733349E-05,21.4245,0,1.4283,-2.014191E-05,21.4245,0
1.4292,-6.311131E-05,21.438,0,1.4292,-5.136187E-05,21.438,0
1.4301,-5.471885E-05,21.4515,0,1.4301,-9.735256E-06,21.4515,0
1.431,-6.61326E-05,21.465,0,1.431,-9.735256E-06,21.465,0
1.4319,-4.53193E-05,21.4785,0,1.4319,-1.275654E-05,21.4785,0
1.4328,-1.107805E-05,21.492,0,1.4328,-2.450599E-05,21.492,0
1.4337,1.913481E-05,21.5055,0,1.4337,-9.063859E-06,21.5055,0
1.4346,1.779202E-05,21.519,0,1.4346,-3.356985E-06,21.519,0
1.4355,4.699779E-06,21.5325,0,1.4355,-4.061952E-05,21.5325,0
1.4364,-1.007095E-06,21.546,0,1.4364,-4.061952E-05,21.546,0
1.4373,-6.042573E-06,21.5595,0,1.4373,-1.174945E-05,21.5595,0
1.4382,1.040665E-05,21.573,0,1.4382,-9.399558E-06,21.573,0
1.4391,4.43122E-05,21.5865,0,1.4391,7.721065E-06,21.5865,0
1.44,1.577783E-05,21.6,0,1.44,1.342794E-06,21.6,0
1.4409,5.606165E-05,21.6135,0,1.4409,1.577783E-05,21.6135,0
1.4418,0.0001037308,21.627,0,1.4418,4.968337E-05,21.627,0
1.4427,2.349889E-05,21.6405,0,1.4427,2.584878E-05,21.6405,0
1.4436,-3.692683E-06,21.654,0,1.4436,1.107805E-05,21.654,0
1.4445,9.735256E-06,21.6675,0,1.4445,7.049668E-06,21.6675,0
1.4454,-2.685588E-06,21.681,0,1.4454,-3.793393E-05,21.681,0
1.4463,1.443504E-05,21.6945,0,1.4463,-9.198138E-05,21.6945,0
1.4472,2.618448E-05,21.708,0,1.4472,-7.586786E-05,21.708,0
1.4481,2.786297E-05,21.7215,0,1.4481,-3.289845E-05,21.7215,0
1.449,3.356985E-06,21.735,0,1.449,-4.229801E-05,21.735,0
1.4499,-4.36408E-06,21.7485,0,1.4499,-3.826963E-05,21.7485,0
1.4508,-1.040665E-05,21.762,0,1.4508,-2.21561E-05,21.762,0
1.4517,-3.323415E-05,21.7755,0,1.4517,-4.43122E-05,21.7755,0
1.4526,-5.035477E-06,21.789,0,1.4526,-6.57969E-05,21.789,0
1.4535,-1.040665E-05,21.8025,0,1.4535,-3.021286E-06,21.8025,0
1.4544,-3.121996E-05,21.816,0,1.4544,6.713969E-06,21.816,0
1.4553,-2.685588E-06,21.8295,0,1.4553,-2.24918E-05,21.8295,0
1.4562,-3.356985E-05,21.843,0,1.4562,-2.18204E-05,21.843,0
1.4571,-3.726253E-05,21.8565,0,1.4571,-1.074235E-05,21.8565,0
1.458,-5.371176E-06,21.87,0,1.458,-2.316319E-05,21.87,0
1.4589,1.040665E-05,21.8835,0,1.4589,8.392462E-06,21.8835,0
1.4598,-3.021286E-05,21.897,0,1.4598,-1.409934E-05,21.897,0
1.4607,-2.652018E-05,21.9105,0,1.4607,-1.040665E-05,21.9105,0
1.4616,9.063859E-06,21.924,0,1.4616,-1.007095E-05,21.924,0
1.4625,-1.544213E-05,21.9375,0,1.4625,-2.853437E-05,21.9375,0
1.4634,-5.706874E-06,21.951,0,1.4634,-3.659113E-05,21.951,0
1.4643,2.349889E-06,21.9645,0,1.4643,-1.275654E-05,21.9645,0
1.4652,9.735256E-06,21.978,0,1.4652,-1.913481E-05,21.978,0
1.4661,1.007095E-06,21.9915,0,1.4661,-5.606165E-05,21.9915,0
1.467,-2.047761E-05,22.005,0,1.467,-2.719158E-05,22.005,0
1.4679,-4.196231E-05,22.0185,0,1.4679,8.392462E-06,22.0185,0
1.4688,-5.270466E-05,22.032,0,1.4688,1.174945E-05,22.032,0
1.4697,-3.860533E-05,22.0455,0,1.4697,-1.644922E-05,22.0455,0
1.4706,-5.807584E-05,22.059,0,1.4706,4.028382E-06,22.059,0
1.4715,-3.189136E-05,22.0725,0,1.4715,-1.174945E-05,22.0725,0
1.4724,-2.18204E-05,22.086,0,1.4724,-1.779202E-05,22.086,0
1.4733,-1.947051E-05,22.0995,0,1.4733,-5.035477E-05,22.0995,0
1.4742,2.014191E-06,22.113,0,1.4742,-4.29694E-05,22.113,0
1.4751,3.021286E-06,22.1265,0,1.4751,-1.544213E-05,22.1265,0
1.476,-7.385367E-06,22.14,0,1.476,-2.887007E-05,22.14,0
1.4769,2.920577E-05,22.1535,0,1.4769,-5.539025E-05,22.1535,0
1.4778,4.666209E-05,22.167,0,1.4778,6.713969E-07,22.167,0
1.4787,2.1149E-05,22.1805,0,1.4787,1.544213E-05,22.1805,0
1.4796,1.980621E-05,22.194,0,1.4796,-1.980621E-05,22.194,0
1.4805,-9.063859E-06,22.2075,0,1.4805,2.18204E-05,22.2075,0
1.4814,-3.256275E-05,22.221,0,1.4814,3.356985E-07,22.221,0
1.4823,-6.344701E-05,22.2345,0,1.4823,-3.021286E-05,22.2345,0
1.4832,-3.894102E-05,22.248,0,1.4832,-2.819867E-05,22.248,0
1.4841,-2.719158E-05,22.2615,0,1.4841,-3.726253E-05,22.2615,0
1.485,1.846342E-05,22.275,0,1.485,3.692683E-06,22.275,0
1.4859,3.457694E-05,22.2885,0,1.4859,1.577783E-05,22.2885,0
1.4868,8.392462E-06,22.302,0,1.4868,-2.18204E-05,22.302,0
1.4877,3.189136E-05,22.3155,0,1.4877,3.356985E-07,22.3155,0
1.4886,4.028382E-05,22.329,0,1.4886,2.887007E-05,22.329,0
1.4895,-8.392462E-06,22.3425,0,1.4895,-2.786297E-05,22.3425,0
1.4904,-2.316319E-05,22.356,0,1.4904,-7.150377E-05,22.356,0
1.4913,-3.793393E-05,22.3695,0,1.4913,-4.49836E-05,22.3695,0
1.4922,-6.143282E-05,22.383,0,1.4922,-4.263371E-05,22.383,0
1.4931,6.042573E-06,22.3965,0,1.4931,-4.263371E-05,22.3965,0
1.494,-4.867628E-05,22.41,0,1.494,-2.316319E-05,22.41,0
1.4949,-2.450599E-05,22.4235,0,1.4949,-5.706874E-06,22.4235,0
1.4958,-4.028382E-06,22.437,0,1.4958,-3.558404E-05,22.437,0
1.4967,2.484169E-05,22.4505,0,1.4967,-2.28275E-05,22.4505,0
1.4976,1.846342E-05,22.464,0,1.4976,2.685588E-06,22.464,0
1.4985,2.819867E-05,22.4775,0,1.4985,-9.399558E-06,22.4775,0
1.4994,6.109713E-05,22.491,0,1.4994,-1.040665E-05,22.491,0
1.5003,2.316319E-05,22.5045,0,1.5003,-1.812772E-05,22.5045,0
1.5012,1.980621E-05,22.518,0,1.5012,-1.376364E-05,22.518,0
1.5021,1.174945E-05,22.5315,0,1.5021,-1.275654E-05,22.5315,0
1.503,-1.242084E-05,22.545,0,1.503,-4.129091E-05,22.545,0
1.5039,-1.477073E-05,22.5585,0,1.5039,-3.726253E-05,22.5585,0
1.5048,-4.061952E-05,22.572,0,1.5048,1.812772E-05,22.572,0
1.5057,-4.599069E-05,22.5855,0,1.5057,-2.014191E-06,22.5855,0
1.5066,-1.846342E-05,22.599,0,1.5066,-3.591974E-05,22.599,0
1.5075,-4.263371E-05,22.6125,0,1.5075,-2.987716E-05,22.6125,0
1.5084,-5.706874E-06,22.626,0,1.5084,-4.39765E-05,22.626,0
1.5093,2.081331E-05,22.6395,0,1.5093,-5.874724E-05,22.6395,0
1.5102,-1.443504E-05,22.653,0,1.5102,-2.014191E-05,22.653,0
1.5111,-1.980621E-05,22.6665,0,1.5111,2.652018E-05,22.6665,0
1.512,-2.014191E-06,22.68,0,1.512,3.726253E-05,22.68,0
1.5129,-7.721065E-06,22.6935,0,1.5129,7.049668E-05,22.6935,0
1.5138,-9.063859E-06,22.707,0,1.5138,-2.349889E-05,22.707,0
1.5147,2.349889E-06,22.7205,0,1.5147,-3.558404E-05,22.7205,0
1.5156,-3.692683E-06,22.734,0,1.5156,-1.745632E-05,22.734,0
1.5165,1.242084E-05,22.7475,0,1.5165,-4.36408E-06,22.7475,0
1.5174,-7.049668E-06,22.761,0,1.5174,-4.800488E-05,22.761,0
1.5183,-3.054856E-05,22.7745,0,1.5183,-1.980621E-05,22.7745,0
1.5192,-2.316319E-05,22.788,0,1.5192,-2.584878E-05,22.788,0
1.5201,3.692683E-06,22.8015,0,1.5201,-6.009003E-05,22.8015,0
1.521,-1.678492E-05,22.815,0,1.521,-2.920577E-05,22.815,0
1.5219,-1.443504E-05,22.8285,0,1.5219,-2.316319E-05,22.8285,0
1.5228,-1.879912E-05,22.842,0,1.5228,-6.71397E-05,22.842,0
1.5237,-3.256275E-05,22.8555,0,1.5237,-5.001907E-05,22.8555,0
1.5246,3.692683E-06,22.869,0,1.5246,-2.450599E-05,22.869,0
1.5255,1.007095E-05,22.8825,0,1.5255,-2.786297E-05,22.8825,0
1.5264,-3.894102E-05,22.896,0,1.5264,-1.577783E-05,22.896,0
1.5273,-9.399558E-06,22.9095,0,1.5273,-2.920577E-05,22.9095,0
1.5282,4.263371E-05,22.923,0,1.5282,8.392462E-06,22.923,0
1.5291,-1.678492E-06,22.9365,0,1.5291,3.491264E-05,22.9365,0
1.53,-7.754635E-05,22.95,0,1.53,-1.913481E-05,22.95,0
1.5309,-1.745632E-05,22.9635,0,1.5309,-2.920577E-05,22.9635,0
1.5318,-7.385367E-06,22.977,0,1.5318,2.786297E-05,22.977,0
1.5327,-1.913481E-05,22.9905,0,1.5327,7.721065E-06,22.9905,0
1.5336,-4.028382E-06,23.004,0,1.5336,-2.719158E-05,23.004,0
1.5345,1.947051E-05,23.0175,0,1.5345,-3.289845E-05,23.0175,0
1.5354,3.793393E-05,23.031,0,1.5354,-3.625543E-05,23.031,0
1.5363,4.43122E-05,23.0445,0,1.5363,-7.620356E-05,23.0445,0
1.5372,-1.007095E-06,23.058,0,1.5372,-8.056764E-05,23.058,0
1.5381,-3.491264E-05,23.0715,0,1.5381,-3.961242E-05,23.0715,0
1.539,-3.256275E-05,23.085,0,1.539,0,23.085,0
1.5399,-2.920577E-05,23.0985,0,1.5399,4.53193E-05,23.0985,0
1.5408,-1.107805E-05,23.112,0,1.5408,-8.392462E-06,23.112,0
1.5417,-1.409934E-05,23.1255,0,1.5417,-3.323415E-05,23.1255,0
1.5426,8.392462E-06,23.139,0,1.5426,-2.417029E-05,23.139,0
1.5435,1.510643E-05,23.1525,0,1.5435,-1.812772E-05,23.1525,0
1.5444,5.035477E-06,23.166,0,1.5444,1.040665E-05,23.166,0
1.5453,-1.174945E-05,23.1795,0,1.5453,3.356985E-07,23.1795,0
1.5462,-2.1149E-05,23.193,0,1.5462,-2.987716E-05,23.193,0
1.5471,4.699779E-06,23.2065,0,1.5471,-4.129091E-05,23.2065,0
1.548,-6.042573E-06,23.22,0,1.548,7.385367E-06,23.22,0
1.5489,-1.107805E-05,23.2335,0,1.5489,3.860533E-05,23.2335,0
1.5498,-1.342794E-05,23.247,0,1.5498,9.063859E-06,23.247,0
1.5507,-6.713969E-07,23.2605,0,1.5507,-1.544213E-05,23.2605,0
1.5516,-2.450599E-05,23.274,0,1.5516,-1.611353E-05,23.274,0
1.5525,-2.383459E-05,23.2875,0,1.5525,-1.141375E-05,23.2875,0
1.5534,-1.242084E-05,23.301,0,1.5534,-1.846342E-05,23.301,0
1.5543,1.980621E-05,23.3145,0,1.5543,-3.524834E-05,23.3145,0
1.5552,4.901198E-05,23.328,0,1.5552,3.692683E-06,23.328,0
1.5561,2.652018E-05,23.3415,0,1.5561,2.014191E-05,23.3415,0
1.557,2.920577E-05,23.355,0,1.557,-1.745632E-05,23.355,0
1.5579,-1.678492E-06,23.3685,0,1.5579,-4.733349E-05,23.3685,0
1.5588,-4.095522E-05,23.382,0,1.5588,-1.040665E-05,23.382,0
1.5597,-1.712062E-05,23.3955,0,1.5597,-2.450599E-05,23.3955,0
1.5606,1.980621E-05,23.409,0,1.5606,-5.740444E-05,23.409,0
1.5615,-6.713969E-06,23.4225,0,1.5615,-1.644922E-05,23.4225,0
1.5624,2.349889E-06,23.436,0,1.5624,1.846342E-05,23.436,0
1.5633,-1.745632E-05,23.4495,0,1.5633,-2.450599E-05,23.4495,0
1.5642,-0.0001000381,23.463,0,1.5642,-5.740444E-05,23.463,0
1.5651,-6.344701E-05,23.4765,0,1.5651,-1.577783E-05,23.4765,0
1.566,-3.860533E-05,23.49,0,1.566,-2.24918E-05,23.49,0
1.5669,-5.706874E-05,23.5035,0,1.5669,-3.927672E-05,23.5035,0
1.5678,-3.021286E-06,23.517,0,1.5678,-2.920577E-05,23.517,0
1.5687,2.987716E-05,23.5305,0,1.5687,-4.36408E-06,23.5305,0
1.5696,2.517739E-05,23.544,0,1.5696,9.063859E-06,23.544,0
1.5705,-4.028382E-06,23.5575,0,1.5705,-1.510643E-05,23.5575,0
1.5714,6.378271E-06,23.571,0,1.5714,-2.987716E-05,23.571,0
1.5723,4.46479E-05,23.5845,0,1.5723,5.035477E-06,23.5845,0
1.5732,1.644922E-05,23.598,0,1.5732,-2.752728E-05,23.598,0
1.5741,-4.229801E-05,23.6115,0,1.5741,-5.438316E-05,23.6115,0
1.575,-6.78111E-05,23.625,0,1.575,-2.349889E-06,23.625,0
1.5759,-8.560311E-05,23.6385,0,1.5759,-9.063859E-06,23.6385,0
1.5768,-5.404745E-05,23.652,0,1.5768,-3.927672E-05,23.652,0
1.5777,2.1149E-05,23.6655,0,1.5777,-4.129091E-05,23.6655,0
1.5786,3.189136E-05,23.679,0,1.5786,-7.721065E-06,23.679,0
1.5795,4.263371E-05,23.6925,0,1.5795,-2.786297E-05,23.6925,0
1.5804,5.740444E-05,23.706,0,1.5804,-2.920577E-05,23.706,0
1.5813,3.860533E-05,23.7195,0,1.5813,-2.987716E-05,23.7195,0
1.5822,-7.049668E-06,23.733,0,1.5822,-1.745632E-05,23.733,0
1.5831,-2.853437E-05,23.7465,0,1.5831,-3.323415E-05,23.7465,0
1.584,-2.987716E-05,23.76,0,1.584,-4.733349E-05,23.76,0
1.5849,-8.392462E-06,23.7735,0,1.5849,-4.800488E-05,23.7735,0
1.5858,-3.021286E-06,23.787,0,1.5858,7.721065E-06,23.787,0
1.5867,1.577783E-05,23.8005,0,1.5867,2.349889E-06,23.8005,0
1.5876,-6.713969E-07,23.814,0,1.5876,-5.807584E-05,23.814,0
1.5885,-2.652018E-05,23.8275,0,1.5885,-1.913481E-05,23.8275,0
1.5894,1.577783E-05,23.841,0,1.5894,2.21561E-05,23.841,0
1.5903,-6.713969E-06,23.8545,0,1.5903,-3.390555E-05,23.8545,0
1.5912,-2.920577E-05,23.868,0,1.5912,-6.478981E-05,23.868,0
1.5921,-2.047761E-05,23.8815,0,1.5921,-1.409934E-05,23.8815,0
1.593,-1.409934E-05,23.895,0,1.593,3.155566E-05,23.895,0
1.5939,-3.356985E-07,23.9085,0,1.5939,3.390555E-05,23.9085,0
1.5948,2.014191E-06,23.922,0,1.5948,-2.014191E-05,23.922,0
1.5957,2.014191E-06,23.9355,0,1.5957,-2.24918E-05,23.9355,0
1.5966,-3.692683E-05,23.949,0,1.5966,-1.309224E-05,23.949,0
1.5975,-5.438316E-05,23.9625,0,1.5975,-3.256275E-05,23.9625,0
1.5984,-2.24918E-05,23.976,0,1.5984,-3.189136E-05,23.976,0
1.5993,-1.510643E-05,23.9895,0,1.5993,8.392462E-06,23.9895,0
1.6002,-8.728161E-06,24.003,0,1.6002,3.189136E-05,24.003,0
1.6011,1.309224E-05,24.0165,0,1.6011,-5.035477E-06,24.0165,0
1.602,3.692683E-06,24.03,0,1.602,-1.409934E-05,24.03,0
1.6029,3.189136E-05,24.0435,0,1.6029,-2.450599E-05,24.0435,0
1.6038,4.53193E-05,24.057,0,1.6038,-3.054856E-05,24.057,0
1.6047,4.800488E-05,24.0705,0,1.6047,-2.618448E-05,24.0705,0
1.6056,-2.047761E-05,24.084,0,1.6056,6.713969E-07,24.084,0
1.6065,1.947051E-05,24.0975,0,1.6065,1.577783E-05,24.0975,0
1.6074,7.721065E-06,24.111,0,1.6074,-1.174945E-05,24.111,0
1.6083,0,24.1245,0,1.6083,-3.457694E-05,24.1245,0
1.6092,1.007095E-06,24.138,0,1.6092,-2.18204E-05,24.138,0
1.6101,-8.392462E-06,24.1515,0,1.6101,0,24.1515,0
1.611,-1.242084E-05,24.165,0,1.611,-3.323415E-05,24.165,0
1.6119,3.692683E-06,24.1785,0,1.6119,-5.774014E-05,24.1785,0
1.6128,-3.793393E-05,24.192,0,1.6128,-4.867628E-05,24.192,0
1.6137,-7.183947E-05,24.2055,0,1.6137,-4.061952E-05,24.2055,0
1.6146,-3.961242E-05,24.219,0,1.6146,-5.136187E-05,24.219,0
1.6155,-1.174945E-05,24.2325,0,1.6155,-1.644922E-05,24.2325,0
1.6164,-3.021286E-06,24.246,0,1.6164,3.692683E-06,24.246,0
1.6173,-1.107805E-05,24.2595,0,1.6173,-3.826963E-05,24.2595,0
1.6182,1.409934E-05,24.273,0,1.6182,-4.39765E-05,24.273,0
1.6191,-1.208515E-05,24.2865,0,1.6191,-8.392462E-06,24.2865,0
1.62,-7.385367E-06,24.3,0,1.62,-2.652018E-05,24.3,0
1.6209,7.721065E-06,24.3135,0,1.6209,-3.524834E-05,24.3135,0
1.6218,-2.383459E-05,24.327,0,1.6218,-7.150377E-05,24.327,0
1.6227,-4.766919E-05,24.3405,0,1.6227,-5.606165E-05,24.3405,0
1.6236,-5.706874E-06,24.354,0,1.6236,-2.819867E-05,24.354,0
1.6245,7.049668E-06,24.3675,0,1.6245,-1.242084E-05,24.3675,0
1.6254,-1.779202E-05,24.381,0,1.6254,-6.378271E-06,24.381,0
1.6263,-3.558404E-05,24.3945,0,1.6263,4.36408E-06,24.3945,0
1.6272,-1.007095E-05,24.408,0,1.6272,1.846342E-05,24.408,0
1.6281,3.356985E-07,24.4215,0,1.6281,3.356985E-06,24.4215,0
1.629,-2.887007E-05,24.435,0,1.629,-2.450599E-05,24.435,0
1.6299,-4.43122E-05,24.4485,0,1.6299,2.1149E-05,24.4485,0
1.6308,-1.510643E-05,24.462,0,1.6308,9.735256E-06,24.462,0
1.6317,2.819867E-05,24.4755,0,1.6317,3.356985E-07,24.4755,0
1.6326,7.049668E-06,24.489,0,1.6326,-8.392462E-06,24.489,0
1.6335,-3.054856E-05,24.5025,0,1.6335,-2.719158E-05,24.5025,0
1.6344,-4.666209E-05,24.516,0,1.6344,-2.28275E-05,24.516,0
1.6353,2.383459E-05,24.5295,0,1.6353,-2.383459E-05,24.5295,0
1.6362,2.450599E-05,24.543,0,1.6362,7.721065E-06,24.543,0
1.6371,-3.189136E-05,24.5565,0,1.6371,-6.713969E-06,24.5565,0
1.638,-1.779202E-05,24.57,0,1.638,-8.392462E-06,24.57,0
1.6389,1.712062E-05,24.5835,0,1.6389,-2.383459E-05,24.5835,0
1.6398,4.699779E-06,24.597,0,1.6398,-8.392462E-06,24.597,0
1.6407,-3.054856E-05,24.6105,0,1.6407,-5.706874E-06,24.6105,0
1.6416,2.014191E-06,24.624,0,1.6416,-4.632639E-05,24.624,0
1.6425,1.141375E-05,24.6375,0,1.6425,-2.1149E-05,24.6375,0
1.6434,1.242084E-05,24.651,0,1.6434,9.063859E-06,24.651,0
1.6443,1.712062E-05,24.6645,0,1.6443,-2.24918E-05,24.6645,0
1.6452,-1.275654E-05,24.678,0,1.6452,-3.390555E-05,24.678,0
1.6461,-1.443504E-05,24.6915,0,1.6461,-1.443504E-05,24.6915,0
1.647,-3.356985E-07,24.705,0,1.647,-1.342794E-06,24.705,0
1.6479,-9.735256E-06,24.7185,0,1.6479,7.049668E-06,24.7185,0
1.6488,-4.800488E-05,24.732,0,1.6488,-3.054856E-05,24.732,0
1.6497,-2.752728E-05,24.7455,0,1.6497,6.378271E-06,24.7455,0
1.6506,1.040665E-05,24.759,0,1.6506,2.383459E-05,24.759,0
1.6515,4.028382E-06,24.7725,0,1.6515,-2.719158E-05,24.7725,0
1.6524,-1.443504E-05,24.786,0,1.6524,-6.74754E-05,24.786,0
1.6533,0,24.7995,0,1.6533,-6.57969E-05,24.7995,0
1.6542,4.43122E-05,24.813,0,1.6542,-5.001907E-05,24.813,0
1.6551,5.001907E-05,24.8265,0,1.6551,-6.814679E-05,24.8265,0
1.656,3.088426E-05,24.84,0,1.656,-2.618448E-05,24.84,0
1.6569,1.913481E-05,24.8535,0,1.6569,-6.042573E-06,24.8535,0
1.6578,1.141375E-05,24.867,0,1.6578,-2.047761E-05,24.867,0
1.6587,2.987716E-05,24.8805,0,1.6587,-2.316319E-05,24.8805,0
1.6596,-2.014191E-06,24.894,0,1.6596,-1.644922E-05,24.894,0
1.6605,-1.242084E-05,24.9075,0,1.6605,-1.040665E-05,24.9075,0
1.6614,1.040665E-05,24.921,0,1.6614,-2.618448E-05,24.921,0
1.6623,2.1149E-05,24.9345,0,1.6623,-3.826963E-05,24.9345,0
1.6632,-5.136187E-05,24.948,0,1.6632,-2.819867E-05,24.948,0
1.6641,-8.493171E-05,24.9615,0,1.6641,-9.735256E-06,24.9615,0
1.665,-3.558404E-05,24.975,0,1.665,-1.913481E-05,24.975,0
1.6659,-1.913481E-05,24.9885,0,1.6659,-3.121996E-05,24.9885,0
1.6668,-1.644922E-05,25.002,0,1.6668,5.035477E-06,25.002,0
1.6677,2.584878E-05,25.0155,0,1.6677,-3.692683E-06,25.0155,0
1.6686,4.36408E-06,25.029,0,1.6686,-5.404745E-05,25.029,0
1.6695,-2.484169E-05,25.0425,0,1.6695,-5.035477E-06,25.0425,0
1.6704,-1.678492E-06,25.056,0,1.6704,1.141375E-05,25.056,0
1.6713,3.692683E-06,25.0695,0,1.6713,-1.947051E-05,25.0695,0
1.6722,-1.846342E-05,25.083,0,1.6722,-2.920577E-05,25.083,0
1.6731,-2.786297E-05,25.0965,0,1.6731,-4.196231E-05,25.0965,0
1.674,-1.577783E-05,25.11,0,1.674,-5.404745E-05,25.11,0
1.6749,-1.107805E-05,25.1235,0,1.6749,-3.927672E-05,25.1235,0
1.6758,1.779202E-05,25.137,0,1.6758,-6.378271E-06,25.137,0
1.6767,1.477073E-05,25.1505,0,1.6767,0.0001097734,25.1505,0
1.6776,-9.735256E-06,25.164,0,1.6776,8.358892E-05,25.164,0
1.6785,-1.678492E-06,25.1775,0,1.6785,-4.095522E-05,25.1775,0
1.6794,2.652018E-05,25.191,0,1.6794,-6.009003E-05,25.191,0
1.6803,-1.544213E-05,25.2045,0,1.6803,-2.685588E-06,25.2045,0
1.6812,-3.692683E-06,25.218,0,1.6812,-1.007095E-06,25.218,0
1.6821,1.913481E-05,25.2315,0,1.6821,-2.18204E-05,25.2315,0
1.683,-3.155566E-05,25.245,0,1.683,1.443504E-05,25.245,0
1.6839,-1.409934E-05,25.2585,0,1.6839,2.316319E-05,25.2585,0
1.6848,-2.1149E-05,25.272,0,1.6848,-2.819867E-05,25.272,0
1.6857,-6.61326E-05,25.2855,0,1.6857,-3.457694E-05,25.2855,0
1.6866,-3.558404E-05,25.299,0,1.6866,-1.644922E-05,25.299,0
1.6875,-9.735256E-06,25.3125,0,1.6875,-4.53193E-05,25.3125,0
1.6884,-2.618448E-05,25.326,0,1.6884,-5.807584E-05,25.326,0
1.6893,-4.263371E-05,25.3395,0,1.6893,-7.586786E-05,25.3395,0
1.6902,-2.1149E-05,25.353,0,1.6902,-1.712062E-05,25.353,0
1.6911,4.36408E-06,25.3665,0,1.6911,4.699779E-06,25.3665,0
1.692,-5.471885E-05,25.38,0,1.692,-4.599069E-05,25.38,0
1.6929,-2.584878E-05,25.3935,0,1.6929,-4.599069E-05,25.3935,0
1.6938,-3.021286E-06,25.407,0,1.6938,-1.409934E-05,25.407,0
1.6947,-8.056763E-06,25.4205,0,1.6947,-2.18204E-05,25.4205,0
1.6956,3.424125E-05,25.434,0,1.6956,-3.121996E-05,25.434,0
1.6965,2.652018E-05,25.4475,0,1.6965,2.014191E-06,25.4475,0
1.6974,1.913481E-05,25.461,0,1.6974,1.443504E-05,25.461,0
1.6983,1.409934E-05,25.4745,0,1.6983,-2.316319E-05,25.4745,0
1.6992,-2.450599E-05,25.488,0,1.6992,-2.28275E-05,25.488,0
1.7001,-9.063859E-06,25.5015,0,1.7001,3.356985E-07,25.5015,0
1.701,-3.591974E-05,25.515,0,1.701,-2.752728E-05,25.515,0
1.7019,-5.371176E-05,25.5285,0,1.7019,-4.901198E-05,25.5285,0
1.7028,0,25.542,0,1.7028,-5.001907E-05,25.542,0
1.7037,1.846342E-05,25.5555,0,1.7037,-1.510643E-05,25.5555,0
1.7046,2.21561E-05,25.569,0,1.7046,4.095522E-05,25.569,0
1.7055,3.356985E-07,25.5825,0,1.7055,-6.713969E-07,25.5825,0
1.7064,-1.309224E-05,25.596,0,1.7064,-3.088426E-05,25.596,0
1.7073,-2.786297E-05,25.6095,0,1.7073,-1.678492E-06,25.6095,0
1.7082,-1.678492E-05,25.623,0,1.7082,-8.056763E-06,25.623,0
1.7091,-1.947051E-05,25.6365,0,1.7091,-5.606165E-05,25.6365,0
1.71,-2.450599E-05,25.65,0,1.71,-7.721065E-06,25.65,0
1.7109,-5.706874E-06,25.6635,0,1.7109,-1.678492E-06,25.6635,0
1.7118,2.1149E-05,25.677,0,1.7118,-2.987716E-05,25.677,0
1.7127,1.174945E-05,25.6905,0,1.7127,-1.644922E-05,25.6905,0
1.7136,-1.443504E-05,25.704,0,1.7136,-1.309224E-05,25.704,0
1.7145,-1.007095E-06,25.7175,0,1.7145,6.713969E-07,25.7175,0
1.7154,1.443504E-05,25.731,0,1.7154,2.047761E-05,25.731,0
1.7163,2.383459E-05,25.7445,0,1.7163,-1.779202E-05,25.7445,0
1.7172,2.047761E-05,25.758,0,1.7172,-5.706874E-06,25.758,0
1.7181,4.162661E-05,25.7715,0,1.7181,1.376364E-05,25.7715,0
1.719,2.954147E-05,25.785,0,1.719,-3.860533E-05,25.785,0
1.7199,3.121996E-05,25.7985,0,1.7199,-8.358892E-05,25.7985,0
1.7208,-1.846342E-05,25.812,0,1.7208,-5.673304E-05,25.812,0
1.7217,-4.36408E-06,25.8255,0,1.7217,-5.639734E-05,25.8255,0
1.7226,2.719158E-05,25.839,0,1.7226,-5.539025E-05,25.839,0
1.7235,-3.121996E-05,25.8525,0,1.7235,-1.309224E-05,25.8525,0
1.7244,-4.46479E-05,25.866,0,1.7244,-2.819867E-05,25.866,0
1.7253,-1.007095E-06,25.8795,0,1.7253,-5.941863E-05,25.8795,0
1.7262,-1.913481E-05,25.893,0,1.7262,-4.733349E-05,25.893,0
1.7271,-5.304036E-05,25.9065,0,1.7271,-1.846342E-05,25.9065,0
1.728,-5.304036E-05,25.92,0,1.728,-5.706874E-06,25.92,0
1.7289,-3.759823E-05,25.9335,0,1.7289,5.673304E-05,25.9335,0
1.7298,-3.256275E-05,25.947,0,1.7298,1.913481E-05,25.947,0
1.7307,-3.390555E-05,25.9605,0,1.7307,-1.712062E-05,25.9605,0
1.7316,-3.591974E-05,25.974,0,1.7316,-6.378271E-06,25.974,0
1.7325,-6.143282E-05,25.9875,0,1.7325,-3.121996E-05,25.9875,0
1.7334,-2.450599E-05,26.001,0,1.7334,-4.36408E-05,26.001,0
1.7343,1.779202E-05,26.0145,0,1.7343,-2.349889E-06,26.0145,0
1.7352,1.141375E-05,26.028,0,1.7352,-1.577783E-05,26.028,0
1.7361,-1.141375E-05,26.0415,0,1.7361,-4.46479E-05,26.0415,0
1.737,-2.24918E-05,26.055,0,1.737,0,26.055,0
1.7379,4.666209E-05,26.0685,0,1.7379,1.040665E-05,26.0685,0
1.7388,2.21561E-05,26.082,0,1.7388,-1.947051E-05,26.082,0
1.7397,-2.014191E-06,26.0955,0,1.7397,-1.510643E-05,26.0955,0
1.7406,1.577783E-05,26.109,0,1.7406,4.028382E-06,26.109,0
1.7415,1.443504E-05,26.1225,0,1.7415,-8.392462E-06,26.1225,0
1.7424,1.644922E-05,26.136,0,1.7424,-1.477073E-05,26.136,0
1.7433,6.009003E-05,26.1495,0,1.7433,-3.726253E-05,26.1495,0
1.7442,4.599069E-05,26.163,0,1.7442,-1.007095E-05,26.163,0
1.7451,3.021286E-05,26.1765,0,1.7451,-1.846342E-05,26.1765,0
1.746,8.728161E-06,26.19,0,1.746,-4.46479E-05,26.19,0
1.7469,-3.356985E-06,26.2035,0,1.7469,-5.404745E-05,26.2035,0
1.7478,-2.987716E-05,26.217,0,1.7478,-5.035477E-06,26.217,0
1.7487,-5.035477E-06,26.2305,0,1.7487,-1.141375E-05,26.2305,0
1.7496,-1.712062E-05,26.244,0,1.7496,-5.539025E-05,26.244,0
1.7505,-2.484169E-05,26.2575,0,1.7505,-1.208515E-05,26.2575,0
1.7514,-4.867628E-05,26.271,0,1.7514,-1.678492E-06,26.271,0
1.7523,-2.24918E-05,26.2845,0,1.7523,-3.826963E-05,26.2845,0
1.7532,-3.356985E-06,26.298,0,1.7532,-3.457694E-05,26.298,0
1.7541,-2.316319E-05,26.3115,0,1.7541,-5.706874E-06,26.3115,0
1.755,1.174945E-05,26.325,0,1.755,-1.242084E-05,26.325,0
1.7559,3.659113E-05,26.3385,0,1.7559,5.706874E-06,26.3385,0
1.7568,2.786297E-05,26.352,0,1.7568,-1.980621E-05,26.352,0
1.7577,-2.517739E-05,26.3655,0,1.7577,-1.544213E-05,26.3655,0
1.7586,-6.78111E-05,26.379,0,1.7586,-1.107805E-05,26.379,0
1.7595,-3.659113E-05,26.3925,0,1.7595,-2.551309E-05,26.3925,0
1.7604,1.577783E-05,26.406,0,1.7604,-3.189136E-05,26.406,0
1.7613,-1.678492E-06,26.4195,0,1.7613,-1.678492E-06,26.4195,0
1.7622,-1.074235E-05,26.433,0,1.7622,-4.028382E-06,26.433,0
1.7631,-2.618448E-05,26.4465,0,1.7631,-4.061952E-05,26.4465,0
1.764,-1.242084E-05,26.46,0,1.764,-1.141375E-05,26.46,0
1.7649,-3.323415E-05,26.4735,0,1.7649,1.040665E-05,26.4735,0
1.7658,-6.378271E-06,26.487,0,1.7658,-1.141375E-05,26.487,0
1.7667,-4.028382E-05,26.5005,0,1.7667,-9.063859E-06,26.5005,0
1.7676,-8.023193E-05,26.514,0,1.7676,0,26.514,0
1.7685,-4.599069E-05,26.5275,0,1.7685,1.678492E-06,26.5275,0
1.7694,-9.735256E-06,26.541,0,1.7694,-1.712062E-05,26.541,0
1.7703,-6.713969E-07,26.5545,0,1.7703,-4.33051E-05,26.5545,0
1.7712,-2.752728E-05,26.568,0,1.7712,-2.987716E-05,26.568,0
1.7721,-3.356985E-07,26.5815,0,1.7721,-1.309224E-05,26.5815,0
1.773,3.726253E-05,26.595,0,1.773,-3.189136E-05,26.595,0
1.7739,2.719158E-05,26.6085,0,1.7739,-3.994812E-05,26.6085,0
1.7748,6.713969E-06,26.622,0,1.7748,8.392462E-06,26.622,0
1.7757,-2.685588E-06,26.6355,0,1.7757,-1.242084E-05,26.6355,0
1.7766,7.721065E-06,26.649,0,1.7766,-6.042573E-05,26.649,0
1.7775,6.378271E-06,26.6625,0,1.7775,-2.383459E-05,26.6625,0
1.7784,2.1149E-05,26.676,0,1.7784,-1.846342E-05,26.676,0
1.7793,-9.063859E-06,26.6895,0,1.7793,-4.599069E-05,26.6895,0
1.7802,-9.063859E-06,26.703,0,1.7802,-3.826963E-05,26.703,0
1.7811,-2.719158E-05,26.7165,0,1.7811,-1.644922E-05,26.7165,0
1.782,-2.786297E-05,26.73,0,1.782,-1.376364E-05,26.73,0
1.7829,-1.644922E-05,26.7435,0,1.7829,-3.692683E-06,26.7435,0
1.7838,-3.659113E-05,26.757,0,1.7838,3.356985E-07,26.757,0
1.7847,-2.920577E-05,26.7705,0,1.7847,8.728161E-06,26.7705,0
1.7856,1.242084E-05,26.784,0,1.7856,-7.385367E-06,26.784,0
1.7865,4.129091E-05,26.7975,0,1.7865,-2.719158E-05,26.7975,0
1.7874,4.934768E-05,26.811,0,1.7874,-3.894102E-05,26.811,0
1.7883,3.558404E-05,26.8245,0,1.7883,-2.047761E-05,26.8245,0
1.7892,3.793393E-05,26.838,0,1.7892,-1.812772E-05,26.838,0
1.7901,4.061952E-05,26.8515,0,1.7901,-4.33051E-05,26.8515,0
1.791,-9.063859E-06,26.865,0,1.791,-1.980621E-05,26.865,0
1.7919,-1.913481E-05,26.8785,0,1.7919,3.356985E-07,26.8785,0
1.7928,5.035477E-06,26.892,0,1.7928,-4.33051E-05,26.892,0
1.7937,-1.208515E-05,26.9055,0,1.7937,-2.584878E-05,26.9055,0
1.7946,-1.644922E-05,26.919,0,1.7946,6.713969E-07,26.919,0
1.7955,-9.735256E-06,26.9325,0,1.7955,-1.040665E-05,26.9325,0
1.7964,-2.18204E-05,26.946,0,1.7964,-2.719158E-05,26.946,0
1.7973,-2.584878E-05,26.9595,0,1.7973,-4.867628E-05,26.9595,0
1.7982,0,26.973,0,1.7982,-1.544213E-05,26.973,0
1.7991,-2.887007E-05,26.9865,0,1.7991,1.208515E-05,26.9865,0
1.8,-5.941863E-05,27,0,1.8,-3.927672E-05,27,0
1.8009,-2.24918E-05,27.0135,0,1.8009,-5.706874E-05,27.0135,0
1.8018,-3.390555E-05,27.027,0,1.8018,-9.399558E-06,27.027,0
1.8027,-2.081331E-05,27.0405,0,1.8027,-9.063859E-06,27.0405,0
1.8036,-3.021286E-06,27.054,0,1.8036,-2.954147E-05,27.054,0
1.8045,-3.155566E-05,27.0675,0,1.8045,7.721065E-06,27.0675,0
1.8054,-3.927672E-05,27.081,0,1.8054,2.1149E-05,27.081,0
1.8063,-5.035477E-05,27.0945,0,1.8063,-6.713969E-06,27.0945,0
1.8072,-4.129091E-05,27.108,0,1.8072,-2.551309E-05,27.108,0
1.8081,-4.49836E-05,27.1215,0,1.8081,3.021286E-06,27.1215,0
1.809,1.678492E-06,27.135,0,1.809,-3.356985E-06,27.135,0
1.8099,4.968337E-05,27.1485,0,1.8099,-1.107805E-05,27.1485,0
1.8108,2.517739E-05,27.162,0,1.8108,-4.39765E-05,27.162,0
1.8117,2.1149E-05,27.1755,0,1.8117,-3.524834E-05,27.1755,0
1.8126,2.383459E-05,27.189,0,1.8126,-9.063859E-06,27.189,0
1.8135,-1.443504E-05,27.2025,0,1.8135,-1.376364E-05,27.2025,0
1.8144,-7.721065E-06,27.216,0,1.8144,-1.678492E-05,27.216,0
1.8153,-1.342794E-05,27.2295,0,1.8153,2.685588E-06,27.2295,0
1.8162,-6.378271E-06,27.243,0,1.8162,2.920577E-05,27.243,0
1.8171,5.706874E-06,27.2565,0,1.8171,-3.692683E-06,27.2565,0
1.818,-1.879912E-05,27.27,0,1.818,-1.208515E-05,27.27,0
